3996.16951	0.01291
3994.24086	0.01292
3992.31221	0.01308
3990.38355	0.01330
3988.45490	0.01342
3986.52625	0.01347
3984.59759	0.01357
3982.66894	0.01365
3980.74029	0.01363
3978.81163	0.01354
3976.88298	0.01335
3974.95433	0.01310
3973.02567	0.01294
3971.09702	0.01292
3969.16837	0.01302
3967.23972	0.01316
3965.31106	0.01319
3963.38241	0.01312
3961.45376	0.01313
3959.52510	0.01321
3957.59645	0.01317
3955.66780	0.01305
3953.73914	0.01304
3951.81049	0.01315
3949.88184	0.01317
3947.95318	0.01308
3946.02453	0.01302
3944.09588	0.01308
3942.16722	0.01325
3940.23857	0.01340
3938.30992	0.01342
3936.38126	0.01327
3934.45261	0.01306
3932.52396	0.01298
3930.59530	0.01311
3928.66665	0.01324
3926.73800	0.01313
3924.80934	0.01287
3922.88069	0.01280
3920.95204	0.01292
3919.02338	0.01302
3917.09473	0.01299
3915.16608	0.01295
3913.23742	0.01310
3911.30877	0.01333
3909.38012	0.01329
3907.45146	0.01297
3905.52281	0.01274
3903.59416	0.01280
3901.66550	0.01297
3899.73685	0.01299
3897.80820	0.01286
3895.87955	0.01275
3893.95089	0.01270
3892.02224	0.01271
3890.09359	0.01280
3888.16493	0.01293
3886.23628	0.01300
3884.30763	0.01299
3882.37897	0.01291
3880.45032	0.01280
3878.52167	0.01270
3876.59301	0.01267
3874.66436	0.01272
3872.73571	0.01275
3870.80705	0.01277
3868.87840	0.01287
3866.94975	0.01296
3865.02109	0.01294
3863.09244	0.01288
3861.16379	0.01280
3859.23513	0.01269
3857.30648	0.01261
3855.37783	0.01266
3853.44917	0.01278
3851.52052	0.01280
3849.59187	0.01273
3847.66321	0.01270
3845.73456	0.01278
3843.80591	0.01276
3841.87725	0.01259
3839.94860	0.01246
3838.01995	0.01250
3836.09129	0.01261
3834.16264	0.01263
3832.23399	0.01250
3830.30534	0.01239
3828.37668	0.01242
3826.44803	0.01244
3824.51938	0.01240
3822.59072	0.01244
3820.66207	0.01246
3818.73342	0.01234
3816.80476	0.01232
3814.87611	0.01250
3812.94746	0.01265
3811.01880	0.01250
3809.09015	0.01221
3807.16150	0.01209
3805.23284	0.01211
3803.30419	0.01206
3801.37554	0.01201
3799.44688	0.01209
3797.51823	0.01221
3795.58958	0.01228
3793.66092	0.01237
3791.73227	0.01244
3789.80362	0.01244
3787.87496	0.01233
3785.94631	0.01219
3784.01766	0.01212
3782.08900	0.01217
3780.16035	0.01225
3778.23170	0.01231
3776.30304	0.01235
3774.37439	0.01231
3772.44574	0.01214
3770.51708	0.01197
3768.58843	0.01188
3766.65978	0.01185
3764.73112	0.01187
3762.80247	0.01193
3760.87382	0.01192
3758.94517	0.01181
3757.01651	0.01181
3755.08786	0.01201
3753.15921	0.01220
3751.23055	0.01228
3749.30190	0.01224
3747.37325	0.01211
3745.44459	0.01200
3743.51594	0.01198
3741.58729	0.01194
3739.65863	0.01180
3737.72998	0.01180
3735.80133	0.01202
3733.87267	0.01201
3731.94402	0.01195
3730.01537	0.01177
3728.08671	0.01164
3726.15806	0.01174
3724.22941	0.01195
3722.30075	0.01203
3720.37210	0.01212
3718.44345	0.01202
3716.51479	0.01181
3714.58614	0.01174
3712.65749	0.01178
3710.72883	0.01176
3708.80018	0.01169
3706.87153	0.01187
3704.94287	0.01188
3703.01422	0.01159
3701.08557	0.01149
3699.15691	0.01140
3697.22826	0.01131
3695.29961	0.01134
3693.37095	0.01149
3691.44230	0.01168
3689.51365	0.01183
3687.58500	0.01188
3685.65634	0.01174
3683.72769	0.01151
3681.79904	0.01137
3679.87038	0.01142
3677.94173	0.01157
3676.01308	0.01173
3674.08442	0.01176
3672.15577	0.01173
3670.22712	0.01181
3668.29846	0.01185
3666.36981	0.01171
3664.44116	0.01164
3662.51250	0.01167
3660.58385	0.01166
3658.65520	0.01164
3656.72654	0.01169
3654.79789	0.01180
3652.86924	0.01192
3650.94058	0.01203
3649.01193	0.01216
3647.08328	0.01233
3645.15462	0.01249
3643.22597	0.01266
3641.29732	0.01275
3639.36866	0.01269
3637.44001	0.01264
3635.51136	0.01274
3633.58270	0.01268
3631.65405	0.01274
3629.72540	0.01291
3627.79674	0.01317
3625.86809	0.01338
3623.93944	0.01365
3622.01079	0.01356
3620.08213	0.01369
3618.15348	0.01399
3616.22483	0.01398
3614.29617	0.01398
3612.36752	0.01406
3610.43887	0.01409
3608.51021	0.01411
3606.58156	0.01426
3604.65291	0.01428
3602.72425	0.01429
3600.79560	0.01439
3598.86695	0.01456
3596.93829	0.01472
3595.00964	0.01480
3593.08099	0.01491
3591.15233	0.01505
3589.22368	0.01517
3587.29503	0.01529
3585.36637	0.01537
3583.43772	0.01547
3581.50907	0.01560
3579.58041	0.01576
3577.65176	0.01597
3575.72311	0.01627
3573.79445	0.01657
3571.86580	0.01678
3569.93715	0.01686
3568.00849	0.01690
3566.07984	0.01704
3564.15119	0.01725
3562.22253	0.01739
3560.29388	0.01748
3558.36523	0.01763
3556.43657	0.01786
3554.50792	0.01809
3552.57927	0.01828
3550.65062	0.01841
3548.72196	0.01847
3546.79331	0.01855
3544.86466	0.01875
3542.93600	0.01901
3541.00735	0.01924
3539.07870	0.01940
3537.15004	0.01954
3535.22139	0.01965
3533.29274	0.01971
3531.36408	0.01984
3529.43543	0.02002
3527.50678	0.02019
3525.57812	0.02036
3523.64947	0.02056
3521.72082	0.02073
3519.79216	0.02087
3517.86351	0.02103
3515.93486	0.02116
3514.00620	0.02124
3512.07755	0.02138
3510.14890	0.02159
3508.22024	0.02172
3506.29159	0.02174
3504.36294	0.02179
3502.43428	0.02195
3500.50563	0.02207
3498.57698	0.02212
3496.64832	0.02225
3494.71967	0.02246
3492.79102	0.02260
3490.86236	0.02268
3488.93371	0.02278
3487.00506	0.02290
3485.07641	0.02307
3483.14775	0.02327
3481.21910	0.02336
3479.29045	0.02328
3477.36179	0.02318
3475.43314	0.02328
3473.50449	0.02363
3471.57583	0.02399
3469.64718	0.02411
3467.71853	0.02412
3465.78987	0.02422
3463.86122	0.02444
3461.93257	0.02463
3460.00391	0.02469
3458.07526	0.02471
3456.14661	0.02487
3454.21795	0.02511
3452.28930	0.02526
3450.36065	0.02532
3448.43199	0.02543
3446.50334	0.02568
3444.57469	0.02593
3442.64603	0.02603
3440.71738	0.02607
3438.78873	0.02617
3436.86007	0.02625
3434.93142	0.02629
3433.00277	0.02646
3431.07411	0.02676
3429.14546	0.02699
3427.21681	0.02712
3425.28815	0.02722
3423.35950	0.02731
3421.43085	0.02743
3419.50219	0.02755
3417.57354	0.02764
3415.64489	0.02772
3413.71624	0.02781
3411.78758	0.02791
3409.85893	0.02812
3407.93028	0.02843
3406.00162	0.02868
3404.07297	0.02881
3402.14432	0.02885
3400.21566	0.02887
3398.28701	0.02900
3396.35836	0.02921
3394.42970	0.02937
3392.50105	0.02942
3390.57240	0.02947
3388.64374	0.02970
3386.71509	0.03005
3384.78644	0.03035
3382.85778	0.03058
3380.92913	0.03074
3379.00048	0.03084
3377.07182	0.03094
3375.14317	0.03113
3373.21452	0.03139
3371.28586	0.03166
3369.35721	0.03181
3367.42856	0.03189
3365.49990	0.03207
3363.57125	0.03244
3361.64260	0.03286
3359.71394	0.03315
3357.78529	0.03337
3355.85664	0.03364
3353.92798	0.03390
3351.99933	0.03415
3350.07068	0.03456
3348.14202	0.03515
3346.21337	0.03567
3344.28472	0.03596
3342.35607	0.03608
3340.42741	0.03617
3338.49876	0.03640
3336.57011	0.03675
3334.64145	0.03703
3332.71280	0.03723
3330.78415	0.03754
3328.85549	0.03789
3326.92684	0.03812
3324.99819	0.03826
3323.06953	0.03841
3321.14088	0.03860
3319.21223	0.03886
3317.28357	0.03911
3315.35492	0.03925
3313.42627	0.03930
3311.49761	0.03937
3309.56896	0.03954
3307.64031	0.03975
3305.71165	0.03992
3303.78300	0.04004
3301.85435	0.04015
3299.92569	0.04020
3297.99704	0.04018
3296.06839	0.04023
3294.13973	0.04039
3292.21108	0.04044
3290.28243	0.04039
3288.35377	0.04044
3286.42512	0.04057
3284.49647	0.04062
3282.56781	0.04057
3280.63916	0.04051
3278.71051	0.04050
3276.78186	0.04047
3274.85320	0.04037
3272.92455	0.04025
3270.99590	0.04018
3269.06724	0.04014
3267.13859	0.04004
3265.20994	0.03991
3263.28128	0.03980
3261.35263	0.03968
3259.42398	0.03947
3257.49532	0.03918
3255.56667	0.03893
3253.63802	0.03889
3251.70936	0.03900
3249.78071	0.03898
3247.85206	0.03874
3245.92340	0.03846
3243.99475	0.03831
3242.06610	0.03827
3240.13744	0.03824
3238.20879	0.03821
3236.28014	0.03819
3234.35148	0.03815
3232.42283	0.03808
3230.49418	0.03799
3228.56552	0.03793
3226.63687	0.03789
3224.70822	0.03782
3222.77956	0.03768
3220.85091	0.03752
3218.92226	0.03743
3216.99360	0.03736
3215.06495	0.03729
3213.13630	0.03725
3211.20764	0.03725
3209.27899	0.03718
3207.35034	0.03703
3205.42169	0.03691
3203.49303	0.03695
3201.56438	0.03699
3199.63573	0.03686
3197.70707	0.03666
3195.77842	0.03652
3193.84977	0.03641
3191.92111	0.03630
3189.99246	0.03621
3188.06381	0.03615
3186.13515	0.03605
3184.20650	0.03589
3182.27785	0.03568
3180.34919	0.03543
3178.42054	0.03522
3176.49189	0.03512
3174.56323	0.03507
3172.63458	0.03496
3170.70593	0.03472
3168.77727	0.03447
3166.84862	0.03426
3164.91997	0.03406
3162.99131	0.03384
3161.06266	0.03364
3159.13401	0.03347
3157.20535	0.03329
3155.27670	0.03313
3153.34805	0.03301
3151.41939	0.03290
3149.49074	0.03270
3147.56209	0.03249
3145.63343	0.03233
3143.70478	0.03221
3141.77613	0.03208
3139.84748	0.03190
3137.91882	0.03170
3135.99017	0.03157
3134.06152	0.03153
3132.13286	0.03147
3130.20421	0.03136
3128.27556	0.03116
3126.34690	0.03096
3124.41825	0.03083
3122.48960	0.03083
3120.56094	0.03091
3118.63229	0.03098
3116.70364	0.03097
3114.77498	0.03090
3112.84633	0.03084
3110.91768	0.03079
3108.98902	0.03075
3107.06037	0.03073
3105.13172	0.03079
3103.20306	0.03085
3101.27441	0.03087
3099.34576	0.03097
3097.41710	0.03111
3095.48845	0.03122
3093.55980	0.03133
3091.63114	0.03143
3089.70249	0.03150
3087.77384	0.03161
3085.84518	0.03180
3083.91653	0.03200
3081.98788	0.03208
3080.05922	0.03211
3078.13057	0.03220
3076.20192	0.03234
3074.27326	0.03243
3072.34461	0.03244
3070.41596	0.03239
3068.48731	0.03230
3066.55865	0.03217
3064.63000	0.03198
3062.70135	0.03186
3060.77269	0.03185
3058.84404	0.03193
3056.91539	0.03199
3054.98673	0.03196
3053.05808	0.03181
3051.12943	0.03163
3049.20077	0.03149
3047.27212	0.03130
3045.34347	0.03107
3043.41481	0.03085
3041.48616	0.03066
3039.55751	0.03053
3037.62885	0.03043
3035.70020	0.03028
3033.77155	0.03009
3031.84289	0.02992
3029.91424	0.02976
3027.98559	0.02953
3026.05693	0.02931
3024.12828	0.02915
3022.19963	0.02898
3020.27097	0.02882
3018.34232	0.02876
3016.41367	0.02881
3014.48501	0.02886
3012.55636	0.02880
3010.62771	0.02863
3008.69905	0.02853
3006.77040	0.02854
3004.84175	0.02853
3002.91309	0.02844
3000.98444	0.02836
2999.05579	0.02845
2997.12714	0.02860
2995.19848	0.02869
2993.26983	0.02866
2991.34118	0.02869
2989.41252	0.02884
2987.48387	0.02898
2985.55522	0.02910
2983.62656	0.02928
2981.69791	0.02947
2979.76926	0.02962
2977.84060	0.02977
2975.91195	0.02998
2973.98330	0.03023
2972.05464	0.03036
2970.12599	0.03031
2968.19734	0.03030
2966.26868	0.03044
2964.34003	0.03063
2962.41138	0.03078
2960.48272	0.03096
2958.55407	0.03123
2956.62542	0.03150
2954.69676	0.03161
2952.76811	0.03153
2950.83946	0.03143
2948.91080	0.03149
2946.98215	0.03166
2945.05350	0.03175
2943.12484	0.03180
2941.19619	0.03198
2939.26754	0.03231
2937.33888	0.03265
2935.41023	0.03286
2933.48158	0.03299
2931.55293	0.03316
2929.62427	0.03335
2927.69562	0.03349
2925.76697	0.03362
2923.83831	0.03374
2921.90966	0.03374
2919.98101	0.03363
2918.05235	0.03346
2916.12370	0.03316
2914.19505	0.03271
2912.26639	0.03217
2910.33774	0.03162
2908.40909	0.03116
2906.48043	0.03083
2904.55178	0.03064
2902.62313	0.03049
2900.69447	0.03023
2898.76582	0.02998
2896.83717	0.02988
2894.90851	0.02988
2892.97986	0.02980
2891.05121	0.02959
2889.12255	0.02940
2887.19390	0.02937
2885.26525	0.02944
2883.33659	0.02947
2881.40794	0.02940
2879.47929	0.02932
2877.55063	0.02937
2875.62198	0.02948
2873.69333	0.02949
2871.76467	0.02943
2869.83602	0.02939
2867.90737	0.02933
2865.97871	0.02914
2864.05006	0.02888
2862.12141	0.02872
2860.19276	0.02869
2858.26410	0.02874
2856.33545	0.02884
2854.40680	0.02901
2852.47814	0.02914
2850.54949	0.02905
2848.62084	0.02870
2846.69218	0.02827
2844.76353	0.02791
2842.83488	0.02758
2840.90622	0.02726
2838.97757	0.02701
2837.04892	0.02676
2835.12026	0.02654
2833.19161	0.02641
2831.26296	0.02636
2829.33430	0.02636
2827.40565	0.02626
2825.47700	0.02607
2823.54834	0.02594
2821.61969	0.02591
2819.69104	0.02585
2817.76238	0.02575
2815.83373	0.02567
2813.90508	0.02564
2811.97642	0.02564
2810.04777	0.02563
2808.11912	0.02558
2806.19046	0.02546
2804.26181	0.02530
2802.33316	0.02520
2800.40450	0.02520
2798.47585	0.02518
2796.54720	0.02509
2794.61855	0.02499
2792.68989	0.02487
2790.76124	0.02477
2788.83259	0.02471
2786.90393	0.02467
2784.97528	0.02461
2783.04663	0.02454
2781.11797	0.02446
2779.18932	0.02434
2777.26067	0.02425
2775.33201	0.02423
2773.40336	0.02423
2771.47471	0.02418
2769.54605	0.02412
2767.61740	0.02405
2765.68875	0.02398
2763.76009	0.02387
2761.83144	0.02377
2759.90279	0.02373
2757.97413	0.02370
2756.04548	0.02367
2754.11683	0.02364
2752.18817	0.02362
2750.25952	0.02359
2748.33087	0.02356
2746.40221	0.02355
2744.47356	0.02357
2742.54491	0.02355
2740.61625	0.02350
2738.68760	0.02344
2736.75895	0.02339
2734.83029	0.02332
2732.90164	0.02321
2730.97299	0.02308
2729.04433	0.02297
2727.11568	0.02289
2725.18703	0.02283
2723.25838	0.02272
2721.32972	0.02260
2719.40107	0.02255
2717.47242	0.02251
2715.54376	0.02248
2713.61511	0.02250
2711.68646	0.02257
2709.75780	0.02260
2707.82915	0.02255
2705.90050	0.02246
2703.97184	0.02236
2702.04319	0.02224
2700.11454	0.02220
2698.18588	0.02221
2696.25723	0.02220
2694.32858	0.02215
2692.39992	0.02206
2690.47127	0.02203
2688.54262	0.02209
2686.61396	0.02216
2684.68531	0.02218
2682.75666	0.02212
2680.82800	0.02206
2678.89935	0.02204
2676.97070	0.02200
2675.04204	0.02193
2673.11339	0.02189
2671.18474	0.02191
2669.25608	0.02192
2667.32743	0.02189
2665.39878	0.02179
2663.47012	0.02163
2661.54147	0.02148
2659.61282	0.02139
2657.68417	0.02131
2655.75551	0.02123
2653.82686	0.02122
2651.89821	0.02123
2649.96955	0.02114
2648.04090	0.02095
2646.11225	0.02076
2644.18359	0.02065
2642.25494	0.02060
2640.32629	0.02058
2638.39763	0.02051
2636.46898	0.02034
2634.54033	0.02017
2632.61167	0.02007
2630.68302	0.02003
2628.75437	0.01999
2626.82571	0.01991
2624.89706	0.01972
2622.96841	0.01950
2621.03975	0.01939
2619.11110	0.01928
2617.18245	0.01906
2615.25379	0.01886
2613.32514	0.01876
2611.39649	0.01877
2609.46783	0.01889
2607.53918	0.01901
2605.61053	0.01896
2603.68187	0.01880
2601.75322	0.01864
2599.82457	0.01848
2597.89591	0.01834
2595.96726	0.01822
2594.03861	0.01810
2592.10995	0.01798
2590.18130	0.01791
2588.25265	0.01793
2586.32400	0.01800
2584.39534	0.01794
2582.46669	0.01781
2580.53804	0.01774
2578.60938	0.01777
2576.68073	0.01776
2574.75208	0.01764
2572.82342	0.01745
2570.89477	0.01721
2568.96612	0.01704
2567.03746	0.01711
2565.10881	0.01735
2563.18016	0.01748
2561.25150	0.01739
2559.32285	0.01719
2557.39420	0.01697
2555.46554	0.01685
2553.53689	0.01691
2551.60824	0.01708
2549.67958	0.01715
2547.75093	0.01708
2545.82228	0.01691
2543.89362	0.01674
2541.96497	0.01670
2540.03632	0.01678
2538.10766	0.01688
2536.17901	0.01689
2534.25036	0.01677
2532.32170	0.01670
2530.39305	0.01672
2528.46440	0.01671
2526.53574	0.01658
2524.60709	0.01650
2522.67844	0.01655
2520.74978	0.01657
2518.82113	0.01645
2516.89248	0.01632
2514.96383	0.01625
2513.03517	0.01625
2511.10652	0.01630
2509.17787	0.01634
2507.24921	0.01634
2505.32056	0.01630
2503.39191	0.01625
2501.46325	0.01622
2499.53460	0.01622
2497.60595	0.01623
2495.67729	0.01624
2493.74864	0.01624
2491.81999	0.01618
2489.89133	0.01604
2487.96268	0.01594
2486.03403	0.01599
2484.10537	0.01608
2482.17672	0.01611
2480.24807	0.01603
2478.31941	0.01587
2476.39076	0.01574
2474.46211	0.01572
2472.53345	0.01581
2470.60480	0.01588
2468.67615	0.01587
2466.74749	0.01585
2464.81884	0.01581
2462.89019	0.01580
2460.96153	0.01585
2459.03288	0.01588
2457.10423	0.01583
2455.17557	0.01568
2453.24692	0.01554
2451.31827	0.01554
2449.38962	0.01561
2447.46096	0.01562
2445.53231	0.01561
2443.60366	0.01554
2441.67500	0.01537
2439.74635	0.01529
2437.81770	0.01541
2435.88904	0.01555
2433.96039	0.01560
2432.03174	0.01563
2430.10308	0.01565
2428.17443	0.01563
2426.24578	0.01561
2424.31712	0.01562
2422.38847	0.01561
2420.45982	0.01556
2418.53116	0.01557
2416.60251	0.01568
2414.67386	0.01575
2412.74520	0.01569
2410.81655	0.01563
2408.88790	0.01565
2406.95924	0.01573
2405.03059	0.01585
2403.10194	0.01595
2401.17328	0.01595
2399.24463	0.01494
2397.31598	0.01515
2395.38732	0.01548
2393.45867	0.01576
2391.53002	0.01610
2389.60136	0.01640
2387.67271	0.01660
2385.74406	0.01676
2383.81540	0.01694
2381.88675	0.01732
2379.95810	0.01778
2378.02945	0.01812
2376.10079	0.01772
2374.17214	0.01785
2372.24349	0.01859
2370.31483	0.02108
2368.38618	0.01779
2366.45753	0.01591
2364.52887	0.01660
2362.60022	0.01612
2360.67157	0.01901
2358.74291	0.02284
2356.81426	0.01944
2354.88561	0.01799
2352.95695	0.02055
2351.02830	0.02048
2349.09965	0.02049
2347.17099	0.02025
2345.24234	0.02056
2343.31369	0.02029
2341.38503	0.01920
2339.45638	0.02270
2337.52773	0.01748
2335.59907	0.01632
2333.67042	0.01712
2331.74177	0.01584
2329.81311	0.01387
2327.88446	0.01261
2325.95581	0.01280
2324.02715	0.01466
2322.09850	0.01729
2320.16985	0.01897
2318.24119	0.01962
2316.31254	0.01976
2314.38389	0.01951
2312.45524	0.01883
2310.52658	0.01791
2308.59793	0.01696
2306.66928	0.01616
2304.74062	0.01582
2302.81197	0.01491
2300.88332	0.01415
2298.95466	0.01364
2297.02601	0.01310
2295.09736	0.01263
2293.16870	0.01239
2291.24005	0.01238
2289.31140	0.01270
2287.38274	0.01330
2285.45409	0.01401
2283.52544	0.01455
2281.59678	0.01468
2279.66813	0.01455
2277.73948	0.01434
2275.81082	0.01399
2273.88217	0.01359
2271.95352	0.01324
2270.02486	0.01299
2268.09621	0.01287
2266.16756	0.01256
2264.23890	0.01209
2262.31025	0.01164
2260.38160	0.01134
2258.45294	0.01111
2256.52429	0.01080
2254.59564	0.01032
2252.66698	0.00966
2250.73833	0.00943
2248.80968	0.01092
2246.88102	0.01077
2244.95237	0.01052
2243.02372	0.01037
2241.09507	0.01046
2239.16641	0.01053
2237.23776	0.01028
2235.30911	0.00995
2233.38045	0.00980
2231.45180	0.00998
2229.52315	0.01036
2227.59449	0.01054
2225.66584	0.01031
2223.73719	0.00986
2221.80853	0.00950
2219.87988	0.00947
2217.95123	0.00955
2216.02257	0.00943
2214.09392	0.00924
2212.16527	0.00912
2210.23661	0.00902
2208.30796	0.00891
2206.37931	0.00871
2204.45065	0.00843
2202.52200	0.00821
2200.59335	0.00815
2198.66469	0.00814
2196.73604	0.00816
2194.80739	0.00823
2192.87873	0.00828
2190.95008	0.00824
2189.02143	0.00809
2187.09277	0.00794
2185.16412	0.00779
2183.23547	0.00756
2181.30681	0.00738
2179.37816	0.00735
2177.44951	0.00737
2175.52085	0.00739
2173.59220	0.00745
2171.66355	0.00749
2169.73490	0.00743
2167.80624	0.00723
2165.87759	0.00680
2163.94894	0.00616
2162.02028	0.00548
2160.09163	0.00494
2158.16298	0.00486
2156.23432	0.00553
2154.30567	0.00644
2152.37702	0.00702
2150.44836	0.00733
2148.51971	0.00757
2146.59106	0.00774
2144.66240	0.00783
2142.73375	0.00775
2140.80510	0.00757
2138.87644	0.00758
2136.94779	0.00788
2135.01914	0.00830
2133.09048	0.00883
2131.16183	0.00939
2129.23318	0.00981
2127.30452	0.01008
2125.37587	0.01025
2123.44722	0.01049
2121.51856	0.01064
2119.58991	0.01050
2117.66126	0.01029
2115.73260	0.01023
2113.80395	0.01023
2111.87530	0.01015
2109.94664	0.01004
2108.01799	0.01012
2106.08934	0.01025
2104.16069	0.01016
2102.23203	0.01004
2100.30338	0.01007
2098.37473	0.01016
2096.44607	0.01016
2094.51742	0.01017
2092.58877	0.01013
2090.66011	0.01011
2088.73146	0.01011
2086.80281	0.01000
2084.87415	0.00980
2082.94550	0.00970
2081.01685	0.00970
2079.08819	0.00978
2077.15954	0.00975
2075.23089	0.00954
2073.30223	0.00935
2071.37358	0.00917
2069.44493	0.00890
2067.51627	0.00865
2065.58762	0.00846
2063.65897	0.00832
2061.73031	0.00822
2059.80166	0.00815
2057.87301	0.00814
2055.94435	0.00819
2054.01570	0.00822
2052.08705	0.00797
2050.15839	0.00753
2048.22974	0.00716
2046.30109	0.00680
2044.37243	0.00634
2042.44378	0.00610
2040.51513	0.00611
2038.58647	0.00604
2036.65782	0.00600
2034.72917	0.00633
2032.80052	0.00670
2030.87186	0.00639
2028.94321	0.00574
2027.01456	0.00552
2025.08590	0.00575
2023.15725	0.00587
2021.22860	0.00564
2019.29994	0.00545
2017.37129	0.00548
2015.44264	0.00547
2013.51398	0.00541
2011.58533	0.00547
2009.65668	0.00562
2007.72802	0.00577
2005.79937	0.00597
2003.87072	0.00630
2001.94206	0.00672
2000.01341	0.00691
1998.08476	0.00671
1996.15610	0.00646
1994.22745	0.00646
1992.29880	0.00650
1990.37014	0.00646
1988.44149	0.00638
1986.51284	0.00642
1984.58418	0.00673
1982.65553	0.00707
1980.72688	0.00697
1978.79822	0.00651
1976.86957	0.00618
1974.94092	0.00621
1973.01226	0.00644
1971.08361	0.00658
1969.15496	0.00647
1967.22631	0.00646
1965.29765	0.00692
1963.36900	0.00761
1961.44035	0.00803
1959.51169	0.00797
1957.58304	0.00754
1955.65439	0.00708
1953.72573	0.00701
1951.79708	0.00727
1949.86843	0.00749
1947.93977	0.00769
1946.01112	0.00820
1944.08247	0.00879
1942.15381	0.00899
1940.22516	0.00892
1938.29651	0.00892
1936.36785	0.00901
1934.43920	0.00904
1932.51055	0.00896
1930.58189	0.00883
1928.65324	0.00892
1926.72459	0.00912
1924.79593	0.00921
1922.86728	0.00930
1920.93863	0.00948
1919.00997	0.00960
1917.08132	0.00957
1915.15267	0.00947
1913.22401	0.00944
1911.29536	0.00956
1909.36671	0.00976
1907.43805	0.00992
1905.50940	0.00995
1903.58075	0.00986
1901.65209	0.00975
1899.72344	0.00976
1897.79479	0.01001
1895.86614	0.01033
1893.93748	0.01045
1892.00883	0.01040
1890.08018	0.01032
1888.15152	0.01025
1886.22287	0.01014
1884.29422	0.01005
1882.36556	0.01005
1880.43691	0.01006
1878.50826	0.00998
1876.57960	0.00991
1874.65095	0.00993
1872.72230	0.00998
1870.79364	0.01013
1868.86499	0.01043
1866.93634	0.01057
1865.00768	0.01042
1863.07903	0.01021
1861.15038	0.01016
1859.22172	0.01022
1857.29307	0.01026
1855.36442	0.01024
1853.43576	0.01027
1851.50711	0.01033
1849.57846	0.01035
1847.64980	0.01034
1845.72115	0.01036
1843.79250	0.01046
1841.86384	0.01059
1839.93519	0.01065
1838.00654	0.01060
1836.07788	0.01053
1834.14923	0.01052
1832.22058	0.01052
1830.29192	0.01056
1828.36327	0.01067
1826.43462	0.01078
1824.50597	0.01085
1822.57731	0.01088
1820.64866	0.01086
1818.72001	0.01087
1816.79135	0.01093
1814.86270	0.01095
1812.93405	0.01088
1811.00539	0.01076
1809.07674	0.01064
1807.14809	0.01056
1805.21943	0.01058
1803.29078	0.01068
1801.36213	0.01074
1799.43347	0.01071
1797.50482	0.01070
1795.57617	0.01073
1793.64751	0.01076
1791.71886	0.01075
1789.79021	0.01068
1787.86155	0.01060
1785.93290	0.01059
1784.00425	0.01061
1782.07559	0.01060
1780.14694	0.01058
1778.21829	0.01059
1776.28963	0.01061
1774.36098	0.01063
1772.43233	0.01063
1770.50367	0.01058
1768.57502	0.01050
1766.64637	0.01045
1764.71771	0.01046
1762.78906	0.01049
1760.86041	0.01051
1758.93176	0.01053
1757.00310	0.01055
1755.07445	0.01056
1753.14580	0.01062
1751.21714	0.01076
1749.28849	0.01095
1747.35984	0.01106
1745.43118	0.01115
1743.50253	0.01131
1741.57388	0.01155
1739.64522	0.01183
1737.71657	0.01212
1735.78792	0.01249
1733.85926	0.01292
1731.93061	0.01326
1730.00196	0.01353
1728.07330	0.01381
1726.14465	0.01412
1724.21600	0.01440
1722.28734	0.01468
1720.35869	0.01508
1718.43004	0.01563
1716.50138	0.01626
1714.57273	0.01689
1712.64408	0.01750
1710.71542	0.01816
1708.78677	0.01894
1706.85812	0.01983
1704.92946	0.02084
1703.00081	0.02197
1701.07216	0.02329
1699.14350	0.02477
1697.21485	0.02633
1695.28620	0.02795
1693.35754	0.02959
1691.42889	0.03125
1689.50024	0.03300
1687.57159	0.03488
1685.64293	0.03694
1683.71428	0.03911
1681.78563	0.04128
1679.85697	0.04350
1677.92832	0.04596
1675.99967	0.04869
1674.07101	0.05160
1672.14236	0.05459
1670.21371	0.05763
1668.28505	0.06067
1666.35640	0.06365
1664.42775	0.06659
1662.49909	0.06948
1660.57044	0.07216
1658.64179	0.07452
1656.71313	0.07665
1654.78448	0.07870
1652.85583	0.08069
1650.92717	0.08241
1648.99852	0.08380
1647.06987	0.08505
1645.14121	0.08622
1643.21256	0.08727
1641.28391	0.08825
1639.35525	0.08922
1637.42660	0.09020
1635.49795	0.09113
1633.56929	0.09185
1631.64064	0.09223
1629.71199	0.09228
1627.78333	0.09192
1625.85468	0.09103
1623.92603	0.08965
1621.99738	0.08786
1620.06872	0.08572
1618.14007	0.08338
1616.21142	0.08089
1614.28276	0.07821
1612.35411	0.07532
1610.42546	0.07237
1608.49680	0.06947
1606.56815	0.06668
1604.63950	0.06398
1602.71084	0.06138
1600.78219	0.05896
1598.85354	0.05676
1596.92488	0.05477
1594.99623	0.05301
1593.06758	0.05151
1591.13892	0.05026
1589.21027	0.04921
1587.28162	0.04836
1585.35296	0.04776
1583.42431	0.04746
1581.49566	0.04746
1579.56700	0.04776
1577.63835	0.04837
1575.70970	0.04928
1573.78104	0.05039
1571.85239	0.05168
1569.92374	0.05327
1567.99508	0.05506
1566.06643	0.05693
1564.13778	0.05886
1562.20912	0.06090
1560.28047	0.06312
1558.35182	0.06542
1556.42316	0.06747
1554.49451	0.06920
1552.56586	0.07077
1550.63721	0.07223
1548.70855	0.07356
1546.77990	0.07467
1544.85125	0.07555
1542.92259	0.07631
1540.99394	0.07701
1539.06529	0.07752
1537.13663	0.07766
1535.20798	0.07755
1533.27933	0.07741
1531.35067	0.07719
1529.42202	0.07680
1527.49337	0.07628
1525.56471	0.07570
1523.63606	0.07511
1521.70741	0.07450
1519.77875	0.07380
1517.85010	0.07294
1515.92145	0.07190
1513.99279	0.07067
1512.06414	0.06924
1510.13549	0.06766
1508.20683	0.06600
1506.27818	0.06424
1504.34953	0.06233
1502.42087	0.06034
1500.49222	0.05841
1498.56357	0.05659
1496.63491	0.05483
1494.70626	0.05304
1492.77761	0.05126
1490.84895	0.04960
1488.92030	0.04815
1486.99165	0.04691
1485.06299	0.04595
1483.13434	0.04529
1481.20569	0.04492
1479.27704	0.04482
1477.34838	0.04499
1475.41973	0.04547
1473.49108	0.04632
1471.56242	0.04743
1469.63377	0.04860
1467.70512	0.04976
1465.77646	0.05099
1463.84781	0.05227
1461.91916	0.05356
1459.99050	0.05489
1458.06185	0.05636
1456.13320	0.05788
1454.20454	0.05914
1452.27589	0.06002
1450.34724	0.06059
1448.41858	0.06095
1446.48993	0.06105
1444.56128	0.06083
1442.63262	0.06037
1440.70397	0.05977
1438.77532	0.05912
1436.84666	0.05836
1434.91801	0.05739
1432.98936	0.05629
1431.06070	0.05524
1429.13205	0.05433
1427.20340	0.05355
1425.27474	0.05292
1423.34609	0.05245
1421.41744	0.05220
1419.48878	0.05215
1417.56013	0.05219
1415.63148	0.05225
1413.70283	0.05238
1411.77417	0.05256
1409.84552	0.05274
1407.91687	0.05290
1405.98821	0.05299
1404.05956	0.05294
1402.13091	0.05277
1400.20225	0.05255
1398.27360	0.05226
1396.34495	0.05192
1394.41629	0.05158
1392.48764	0.05128
1390.55899	0.05103
1388.63033	0.05084
1386.70168	0.05068
1384.77303	0.05054
1382.84437	0.05038
1380.91572	0.05024
1378.98707	0.05013
1377.05841	0.04992
1375.12976	0.04957
1373.20111	0.04919
1371.27245	0.04881
1369.34380	0.04830
1367.41515	0.04762
1365.48649	0.04690
1363.55784	0.04628
1361.62919	0.04579
1359.70053	0.04543
1357.77188	0.04526
1355.84323	0.04529
1353.91457	0.04553
1351.98592	0.04597
1350.05727	0.04659
1348.12861	0.04732
1346.19996	0.04815
1344.27131	0.04906
1342.34266	0.05000
1340.41400	0.05078
1338.48535	0.05131
1336.55670	0.05165
1334.62804	0.05177
1332.69939	0.05164
1330.77074	0.05132
1328.84208	0.05087
1326.91343	0.05034
1324.98478	0.04977
1323.05612	0.04924
1321.12747	0.04881
1319.19882	0.04852
1317.27016	0.04833
1315.34151	0.04817
1313.41286	0.04798
1311.48420	0.04777
1309.55555	0.04755
1307.62690	0.04733
1305.69824	0.04715
1303.76959	0.04705
1301.84094	0.04700
1299.91228	0.04695
1297.98363	0.04693
1296.05498	0.04695
1294.12632	0.04707
1292.19767	0.04734
1290.26902	0.04779
1288.34036	0.04835
1286.41171	0.04894
1284.48306	0.04951
1282.55440	0.05006
1280.62575	0.05054
1278.69710	0.05085
1276.76845	0.05097
1274.83979	0.05097
1272.91114	0.05102
1270.98249	0.05116
1269.05383	0.05138
1267.12518	0.05174
1265.19653	0.05220
1263.26787	0.05270
1261.33922	0.05324
1259.41057	0.05389
1257.48191	0.05458
1255.55326	0.05529
1253.62461	0.05608
1251.69595	0.05703
1249.76730	0.05808
1247.83865	0.05919
1245.90999	0.06033
1243.98134	0.06147
1242.05269	0.06258
1240.12403	0.06358
1238.19538	0.06439
1236.26673	0.06497
1234.33807	0.06532
1232.40942	0.06543
1230.48077	0.06524
1228.55211	0.06470
1226.62346	0.06393
1224.69481	0.06298
1222.76615	0.06187
1220.83750	0.06069
1218.90885	0.05958
1216.98019	0.05868
1215.05154	0.05807
1213.12289	0.05774
1211.19423	0.05765
1209.26558	0.05777
1207.33693	0.05809
1205.40828	0.05848
1203.47962	0.05884
1201.55097	0.05901
1199.62232	0.05869
1197.69366	0.05816
1195.76501	0.05745
1193.83636	0.05668
1191.90770	0.05584
1189.97905	0.05499
1188.05040	0.05419
1186.12174	0.05351
1184.19309	0.05299
1182.26444	0.05252
1180.33578	0.05210
1178.40713	0.05184
1176.47848	0.05177
1174.54982	0.05179
1172.62117	0.05181
1170.69252	0.05186
1168.76386	0.05200
1166.83521	0.05218
1164.90656	0.05235
1162.97790	0.05250
1161.04925	0.05260
1159.12060	0.05255
1157.19194	0.05239
1155.26329	0.05209
1153.33464	0.05166
1151.40598	0.05117
1149.47733	0.05066
1147.54868	0.05010
1145.62002	0.04957
1143.69137	0.04910
1141.76272	0.04868
1139.83406	0.04839
1137.90541	0.04828
1135.97676	0.04823
1134.04811	0.04815
1132.11945	0.04799
1130.19080	0.04788
1128.26215	0.04791
1126.33349	0.04791
1124.40484	0.04783
1122.47619	0.04779
1120.54753	0.04792
1118.61888	0.04812
1116.69023	0.04821
1114.76157	0.04821
1112.83292	0.04830
1110.90427	0.04853
1108.97561	0.04880
1107.04696	0.04898
1105.11831	0.04912
1103.18965	0.04937
1101.26100	0.04983
1099.33235	0.05033
1097.40369	0.05077
1095.47504	0.05120
1093.54639	0.05174
1091.61773	0.05238
1089.68908	0.05315
1087.76043	0.05400
1085.83177	0.05491
1083.90312	0.05581
1081.97447	0.05657
1080.04581	0.05703
1078.11716	0.05710
1076.18851	0.05685
1074.25985	0.05649
1072.33120	0.05613
1070.40255	0.05570
1068.47390	0.05528
1066.54524	0.05510
1064.61659	0.05509
1062.68794	0.05502
1060.75928	0.05484
1058.83063	0.05459
1056.90198	0.05427
1054.97332	0.05385
1053.04467	0.05338
1051.11602	0.05291
1049.18736	0.05252
1047.25871	0.05223
1045.33006	0.05198
1043.40140	0.05181
1041.47275	0.05174
1039.54410	0.05182
1037.61544	0.05215
1035.68679	0.05270
1033.75814	0.05326
1031.82948	0.05365
1029.90083	0.05373
1027.97218	0.05348
1026.04352	0.05302
1024.11487	0.05246
1022.18622	0.05194
1020.25756	0.05150
1018.32891	0.05111
1016.40026	0.05076
1014.47160	0.05045
1012.54295	0.05010
1010.61430	0.04963
1008.68564	0.04914
1006.75699	0.04870
1004.82834	0.04823
1002.89968	0.04778
1000.97103	0.04736
999.04238	0.04684
997.11373	0.04619
995.18507	0.04557
993.25642	0.04511
991.32777	0.04466
989.39911	0.04419
987.47046	0.04381
985.54181	0.04351
983.61315	0.04324
981.68450	0.04317
979.75585	0.04338
977.82719	0.04365
975.89854	0.04378
973.96989	0.04380
972.04123	0.04378
970.11258	0.04370
968.18393	0.04355
966.25527	0.04342
964.32662	0.04335
962.39797	0.04328
960.46931	0.04313
958.54066	0.04295
956.61201	0.04288
954.68335	0.04283
952.75470	0.04271
950.82605	0.04260
948.89739	0.04258
946.96874	0.04260
945.04009	0.04266
943.11143	0.04281
941.18278	0.04292
939.25413	0.04291
937.32547	0.04288
935.39682	0.04288
933.46817	0.04289
931.53952	0.04276
929.61086	0.04244
927.68221	0.04210
925.75356	0.04191
923.82490	0.04186
921.89625	0.04187
919.96760	0.04187
918.03894	0.04186
916.11029	0.04166
914.18164	0.04115
912.25298	0.04051
910.32433	0.04012
908.39568	0.04003
906.46702	0.04004
904.53837	0.04019
902.60972	0.04027
900.68106	0.04005
898.75241	0.03978
896.82376	0.03972
894.89510	0.03977
892.96645	0.03972
891.03780	0.03949
889.10914	0.03925
887.18049	0.03929
885.25184	0.03957
883.32318	0.04001
881.39453	0.04049
879.46588	0.04083
877.53722	0.04092
875.60857	0.04085
873.67992	0.04088
871.75126	0.04104
869.82261	0.04103
867.89396	0.04082
865.96530	0.04058
864.03665	0.04039
862.10800	0.04033
860.17935	0.04035
858.25069	0.04035
856.32204	0.04039
854.39339	0.04045
852.46473	0.04044
850.53608	0.04031
848.60743	0.04003
846.67877	0.03966
844.75012	0.03936
842.82147	0.03912
840.89281	0.03885
838.96416	0.03869
837.03551	0.03863
835.10685	0.03840
833.17820	0.03805
831.24955	0.03790
829.32089	0.03794
827.39224	0.03803
825.46359	0.03808
823.53493	0.03816
821.60628	0.03841
819.67763	0.03887
817.74897	0.03941
815.82032	0.03980
813.89167	0.04003
811.96301	0.04017
810.03436	0.04026
808.10571	0.04030
806.17705	0.04038
804.24840	0.04063
802.31975	0.04087
800.39109	0.04088
798.46244	0.04086
796.53379	0.04101
794.60513	0.04128
792.67648	0.04164
790.74783	0.04206
788.81918	0.04241
786.89052	0.04266
784.96187	0.04282
783.03322	0.04295
781.10456	0.04314
779.17591	0.04339
777.24726	0.04359
775.31860	0.04375
773.38995	0.04390
771.46130	0.04408
769.53264	0.04452
767.60399	0.04531
765.67534	0.04603
763.74668	0.04637
761.81803	0.04650
759.88938	0.04675
757.96072	0.04719
756.03207	0.04763
754.10342	0.04797
752.17476	0.04827
750.24611	0.04856
748.31746	0.04885
746.38880	0.04920
744.46015	0.04959
742.53150	0.04992
740.60284	0.05023
738.67419	0.05063
736.74554	0.05102
734.81688	0.05153
732.88823	0.05224
730.95958	0.05293
729.03092	0.05346
727.10227	0.05411
725.17362	0.05479
723.24497	0.05149
721.31631	0.05549
719.38766	0.05984
717.45901	0.06230
715.53035	0.06263
713.60170	0.06122
711.67305	0.05960
709.74439	0.05902
707.81574	0.05947
705.88709	0.05993
703.95843	0.06027
702.02978	0.06065
700.10113	0.06139
698.17247	0.06264
696.24382	0.06441
694.31517	0.06591
692.38651	0.06686
690.45786	0.06765
688.52921	0.06742
686.60055	0.06707
684.67190	0.06642
682.74325	0.06583
680.81459	0.06597
678.88594	0.06557
676.95729	0.06578
675.02863	0.06623
673.09998	0.06676
671.17133	0.06723
669.24267	0.06810
667.31402	0.06877
665.38537	0.06934
663.45671	0.06969
661.52806	0.07014
659.59941	0.07088
657.67075	0.07124
655.74210	0.07149
653.81345	0.07176
651.88480	0.07239
649.95614	0.07282
648.02749	0.07341
646.09884	0.07395
644.17018	0.07452
642.24153	0.07502
640.31288	0.07511
638.38422	0.07479
636.45557	0.07431
634.52692	0.07454
632.59826	0.07482
630.66961	0.07486
628.74096	0.07266
626.81230	0.07305
624.88365	0.07583
622.95500	0.07956
621.02634	0.08383
619.09769	0.08608
617.16904	0.08362
615.24038	0.07845
613.31173	0.07446
611.38308	0.07325
609.45442	0.07465
607.52577	0.07693
605.59712	0.07791
603.66846	0.07850
601.73981	0.07971
599.81116	0.08033
597.88250	0.08036
595.95385	0.08079
594.02520	0.08155
592.09654	0.08220
590.16789	0.08278
588.23924	0.08333
586.31059	0.08379
584.38193	0.08425
582.45328	0.08458
580.52463	0.08472
578.59597	0.08497
576.66732	0.08556
574.73867	0.08651
572.81001	0.08762
570.88136	0.08840
568.95271	0.08885
567.02405	0.08928
565.09540	0.08970
563.16675	0.09012
561.23809	0.09046
559.30944	0.09045
557.38079	0.09047
555.45213	0.09107
553.52348	0.09196
551.59483	0.09248
549.66617	0.09268
547.73752	0.09288
545.80887	0.09306
543.88021	0.09311
541.95156	0.09317
540.02291	0.09345
538.09425	0.09391
536.16560	0.09434
534.23695	0.09482
532.30829	0.09553
530.37964	0.09624
528.45099	0.09670
526.52233	0.09689
524.59368	0.09690
522.66503	0.09686
520.73637	0.09679
518.80772	0.09664
516.87907	0.09629
514.95042	0.09584
513.02176	0.09556
511.09311	0.09546
509.16446	0.09541
507.23580	0.09516
505.30715	0.09462
503.37850	0.09428
501.44984	0.09434
499.52119	0.09424
497.59254	0.09369
495.66388	0.09316
493.73523	0.09297
491.80658	0.09283
489.87792	0.09246
487.94927	0.09181
486.02062	0.09110
484.09196	0.09076
482.16331	0.09075
480.23466	0.09070
478.30600	0.09066
476.37735	0.09076
474.44870	0.09079
472.52004	0.09061
470.59139	0.09038
468.66274	0.09028
466.73408	0.09014
464.80543	0.08982
462.87678	0.08941
460.94812	0.08891
459.01947	0.08844
457.09082	0.08823
455.16216	0.08818
453.23351	0.08806
451.30486	0.08780
449.37620	0.08733
447.44755	0.08680
445.51890	0.08641
443.59025	0.08608
441.66159	0.08577
439.73294	0.08560
437.80429	0.08554
435.87563	0.08554
433.94698	0.08551
432.01833	0.08533
430.08967	0.08502
428.16102	0.08463
426.23237	0.08420
424.30371	0.08384
422.37506	0.08353
420.44641	0.08335
418.51775	0.08343
416.58910	0.08351
414.66045	0.08321
412.73179	0.08272
410.80314	0.08247
408.87449	0.08243
406.94583	0.08243
405.01718	0.08261
403.08853	0.08289
401.15987	0.08300
399.23122	0.08292
