3996.16951	0.01306
3994.24086	0.01298
3992.31221	0.01308
3990.38355	0.01327
3988.45490	0.01336
3986.52625	0.01341
3984.59759	0.01347
3982.66894	0.01346
3980.74029	0.01338
3978.81163	0.01328
3976.88298	0.01313
3974.95433	0.01299
3973.02567	0.01302
3971.09702	0.01313
3969.16837	0.01316
3967.23972	0.01317
3965.31106	0.01319
3963.38241	0.01323
3961.45376	0.01338
3959.52510	0.01344
3957.59645	0.01328
3955.66780	0.01315
3953.73914	0.01324
3951.81049	0.01339
3949.88184	0.01339
3947.95318	0.01327
3946.02453	0.01312
3944.09588	0.01302
3942.16722	0.01307
3940.23857	0.01325
3938.30992	0.01335
3936.38126	0.01330
3934.45261	0.01321
3932.52396	0.01313
3930.59530	0.01307
3928.66665	0.01300
3926.73800	0.01290
3924.80934	0.01277
3922.88069	0.01268
3920.95204	0.01268
3919.02338	0.01277
3917.09473	0.01290
3915.16608	0.01299
3913.23742	0.01307
3911.30877	0.01312
3909.38012	0.01309
3907.45146	0.01302
3905.52281	0.01300
3903.59416	0.01302
3901.66550	0.01299
3899.73685	0.01282
3897.80820	0.01264
3895.87955	0.01256
3893.95089	0.01258
3892.02224	0.01265
3890.09359	0.01277
3888.16493	0.01285
3886.23628	0.01281
3884.30763	0.01274
3882.37897	0.01269
3880.45032	0.01271
3878.52167	0.01281
3876.59301	0.01280
3874.66436	0.01267
3872.73571	0.01265
3870.80705	0.01271
3868.87840	0.01283
3866.94975	0.01293
3865.02109	0.01299
3863.09244	0.01308
3861.16379	0.01304
3859.23513	0.01285
3857.30648	0.01277
3855.37783	0.01280
3853.44917	0.01284
3851.52052	0.01288
3849.59187	0.01285
3847.66321	0.01284
3845.73456	0.01288
3843.80591	0.01284
3841.87725	0.01270
3839.94860	0.01257
3838.01995	0.01249
3836.09129	0.01251
3834.16264	0.01260
3832.23399	0.01266
3830.30534	0.01262
3828.37668	0.01250
3826.44803	0.01242
3824.51938	0.01247
3822.59072	0.01257
3820.66207	0.01269
3818.73342	0.01271
3816.80476	0.01252
3814.87611	0.01238
3812.94746	0.01240
3811.01880	0.01238
3809.09015	0.01234
3807.16150	0.01235
3805.23284	0.01242
3803.30419	0.01234
3801.37554	0.01222
3799.44688	0.01221
3797.51823	0.01217
3795.58958	0.01219
3793.66092	0.01231
3791.73227	0.01235
3789.80362	0.01228
3787.87496	0.01220
3785.94631	0.01216
3784.01766	0.01215
3782.08900	0.01218
3780.16035	0.01223
3778.23170	0.01223
3776.30304	0.01223
3774.37439	0.01219
3772.44574	0.01208
3770.51708	0.01196
3768.58843	0.01192
3766.65978	0.01193
3764.73112	0.01197
3762.80247	0.01197
3760.87382	0.01186
3758.94517	0.01179
3757.01651	0.01192
3755.08786	0.01214
3753.15921	0.01228
3751.23055	0.01232
3749.30190	0.01228
3747.37325	0.01217
3745.44459	0.01191
3743.51594	0.01182
3741.58729	0.01199
3739.65863	0.01207
3737.72998	0.01195
3735.80133	0.01182
3733.87267	0.01182
3731.94402	0.01179
3730.01537	0.01172
3728.08671	0.01168
3726.15806	0.01174
3724.22941	0.01167
3722.30075	0.01147
3720.37210	0.01143
3718.44345	0.01153
3716.51479	0.01166
3714.58614	0.01178
3712.65749	0.01177
3710.72883	0.01167
3708.80018	0.01157
3706.87153	0.01157
3704.94287	0.01164
3703.01422	0.01167
3701.08557	0.01164
3699.15691	0.01154
3697.22826	0.01134
3695.29961	0.01126
3693.37095	0.01141
3691.44230	0.01162
3689.51365	0.01174
3687.58500	0.01178
3685.65634	0.01172
3683.72769	0.01151
3681.79904	0.01135
3679.87038	0.01138
3677.94173	0.01152
3676.01308	0.01164
3674.08442	0.01176
3672.15577	0.01179
3670.22712	0.01179
3668.29846	0.01180
3666.36981	0.01171
3664.44116	0.01170
3662.51250	0.01184
3660.58385	0.01195
3658.65520	0.01196
3656.72654	0.01189
3654.79789	0.01191
3652.86924	0.01208
3650.94058	0.01227
3649.01193	0.01239
3647.08328	0.01249
3645.15462	0.01259
3643.22597	0.01266
3641.29732	0.01271
3639.36866	0.01279
3637.44001	0.01285
3635.51136	0.01286
3633.58270	0.01283
3631.65405	0.01288
3629.72540	0.01302
3627.79674	0.01319
3625.86809	0.01323
3623.93944	0.01323
3622.01079	0.01337
3620.08213	0.01361
3618.15348	0.01389
3616.22483	0.01406
3614.29617	0.01409
3612.36752	0.01411
3610.43887	0.01410
3608.51021	0.01410
3606.58156	0.01425
3604.65291	0.01447
3602.72425	0.01473
3600.79560	0.01493
3598.86695	0.01504
3596.93829	0.01503
3595.00964	0.01502
3593.08099	0.01514
3591.15233	0.01538
3589.22368	0.01559
3587.29503	0.01568
3585.36637	0.01572
3583.43772	0.01579
3581.50907	0.01593
3579.58041	0.01614
3577.65176	0.01640
3575.72311	0.01670
3573.79445	0.01701
3571.86580	0.01728
3569.93715	0.01741
3568.00849	0.01748
3566.07984	0.01772
3564.15119	0.01802
3562.22253	0.01816
3560.29388	0.01822
3558.36523	0.01835
3556.43657	0.01853
3554.50792	0.01868
3552.57927	0.01888
3550.65062	0.01914
3548.72196	0.01935
3546.79331	0.01946
3544.86466	0.01962
3542.93600	0.01994
3541.00735	0.02026
3539.07870	0.02047
3537.15004	0.02065
3535.22139	0.02080
3533.29274	0.02085
3531.36408	0.02088
3529.43543	0.02103
3527.50678	0.02132
3525.57812	0.02161
3523.64947	0.02184
3521.72082	0.02201
3519.79216	0.02208
3517.86351	0.02215
3515.93486	0.02238
3514.00620	0.02270
3512.07755	0.02298
3510.14890	0.02318
3508.22024	0.02333
3506.29159	0.02343
3504.36294	0.02353
3502.43428	0.02364
3500.50563	0.02371
3498.57698	0.02374
3496.64832	0.02383
3494.71967	0.02408
3492.79102	0.02437
3490.86236	0.02456
3488.93371	0.02466
3487.00506	0.02476
3485.07641	0.02488
3483.14775	0.02500
3481.21910	0.02514
3479.29045	0.02524
3477.36179	0.02532
3475.43314	0.02548
3473.50449	0.02571
3471.57583	0.02594
3469.64718	0.02612
3467.71853	0.02623
3465.78987	0.02636
3463.86122	0.02653
3461.93257	0.02671
3460.00391	0.02683
3458.07526	0.02689
3456.14661	0.02698
3454.21795	0.02714
3452.28930	0.02731
3450.36065	0.02749
3448.43199	0.02771
3446.50334	0.02795
3444.57469	0.02818
3442.64603	0.02831
3440.71738	0.02836
3438.78873	0.02848
3436.86007	0.02871
3434.93142	0.02895
3433.00277	0.02917
3431.07411	0.02934
3429.14546	0.02944
3427.21681	0.02953
3425.28815	0.02968
3423.35950	0.02982
3421.43085	0.02995
3419.50219	0.03011
3417.57354	0.03029
3415.64489	0.03045
3413.71624	0.03058
3411.78758	0.03073
3409.85893	0.03098
3407.93028	0.03129
3406.00162	0.03155
3404.07297	0.03172
3402.14432	0.03181
3400.21566	0.03188
3398.28701	0.03196
3396.35836	0.03207
3394.42970	0.03222
3392.50105	0.03235
3390.57240	0.03241
3388.64374	0.03259
3386.71509	0.03291
3384.78644	0.03326
3382.85778	0.03358
3380.92913	0.03387
3379.00048	0.03409
3377.07182	0.03429
3375.14317	0.03446
3373.21452	0.03458
3371.28586	0.03475
3369.35721	0.03500
3367.42856	0.03529
3365.49990	0.03559
3363.57125	0.03597
3361.64260	0.03644
3359.71394	0.03685
3357.78529	0.03710
3355.85664	0.03733
3353.92798	0.03761
3351.99933	0.03794
3350.07068	0.03835
3348.14202	0.03883
3346.21337	0.03923
3344.28472	0.03949
3342.35607	0.03968
3340.42741	0.03991
3338.49876	0.04027
3336.57011	0.04074
3334.64145	0.04112
3332.71280	0.04139
3330.78415	0.04172
3328.85549	0.04205
3326.92684	0.04233
3324.99819	0.04258
3323.06953	0.04282
3321.14088	0.04297
3319.21223	0.04307
3317.28357	0.04323
3315.35492	0.04347
3313.42627	0.04366
3311.49761	0.04377
3309.56896	0.04386
3307.64031	0.04393
3305.71165	0.04403
3303.78300	0.04421
3301.85435	0.04444
3299.92569	0.04461
3297.99704	0.04465
3296.06839	0.04459
3294.13973	0.04453
3292.21108	0.04454
3290.28243	0.04459
3288.35377	0.04463
3286.42512	0.04471
3284.49647	0.04485
3282.56781	0.04494
3280.63916	0.04491
3278.71051	0.04489
3276.78186	0.04498
3274.85320	0.04498
3272.92455	0.04480
3270.99590	0.04460
3269.06724	0.04442
3267.13859	0.04420
3265.20994	0.04396
3263.28128	0.04372
3261.35263	0.04351
3259.42398	0.04333
3257.49532	0.04315
3255.56667	0.04294
3253.63802	0.04277
3251.70936	0.04267
3249.78071	0.04263
3247.85206	0.04262
3245.92340	0.04260
3243.99475	0.04258
3242.06610	0.04256
3240.13744	0.04244
3238.20879	0.04217
3236.28014	0.04190
3234.35148	0.04181
3232.42283	0.04180
3230.49418	0.04169
3228.56552	0.04152
3226.63687	0.04140
3224.70822	0.04128
3222.77956	0.04111
3220.85091	0.04094
3218.92226	0.04086
3216.99360	0.04082
3215.06495	0.04072
3213.13630	0.04060
3211.20764	0.04057
3209.27899	0.04055
3207.35034	0.04046
3205.42169	0.04032
3203.49303	0.04022
3201.56438	0.04018
3199.63573	0.04008
3197.70707	0.03987
3195.77842	0.03971
3193.84977	0.03967
3191.92111	0.03960
3189.99246	0.03942
3188.06381	0.03916
3186.13515	0.03887
3184.20650	0.03862
3182.27785	0.03843
3180.34919	0.03828
3178.42054	0.03812
3176.49189	0.03800
3174.56323	0.03793
3172.63458	0.03783
3170.70593	0.03760
3168.77727	0.03730
3166.84862	0.03706
3164.91997	0.03686
3162.99131	0.03661
3161.06266	0.03633
3159.13401	0.03617
3157.20535	0.03609
3155.27670	0.03596
3153.34805	0.03578
3151.41939	0.03554
3149.49074	0.03524
3147.56209	0.03493
3145.63343	0.03471
3143.70478	0.03460
3141.77613	0.03452
3139.84748	0.03436
3137.91882	0.03408
3135.99017	0.03385
3134.06152	0.03377
3132.13286	0.03376
3130.20421	0.03374
3128.27556	0.03364
3126.34690	0.03353
3124.41825	0.03344
3122.48960	0.03335
3120.56094	0.03330
3118.63229	0.03331
3116.70364	0.03330
3114.77498	0.03323
3112.84633	0.03316
3110.91768	0.03316
3108.98902	0.03316
3107.06037	0.03316
3105.13172	0.03323
3103.20306	0.03329
3101.27441	0.03329
3099.34576	0.03333
3097.41710	0.03346
3095.48845	0.03357
3093.55980	0.03364
3091.63114	0.03372
3089.70249	0.03384
3087.77384	0.03398
3085.84518	0.03412
3083.91653	0.03423
3081.98788	0.03432
3080.05922	0.03440
3078.13057	0.03444
3076.20192	0.03446
3074.27326	0.03449
3072.34461	0.03450
3070.41596	0.03451
3068.48731	0.03458
3066.55865	0.03460
3064.63000	0.03448
3062.70135	0.03429
3060.77269	0.03422
3058.84404	0.03424
3056.91539	0.03418
3054.98673	0.03400
3053.05808	0.03379
3051.12943	0.03363
3049.20077	0.03349
3047.27212	0.03329
3045.34347	0.03307
3043.41481	0.03289
3041.48616	0.03275
3039.55751	0.03263
3037.62885	0.03249
3035.70020	0.03226
3033.77155	0.03201
3031.84289	0.03182
3029.91424	0.03163
3027.98559	0.03137
3026.05693	0.03114
3024.12828	0.03100
3022.19963	0.03082
3020.27097	0.03058
3018.34232	0.03048
3016.41367	0.03051
3014.48501	0.03052
3012.55636	0.03042
3010.62771	0.03030
3008.69905	0.03024
3006.77040	0.03025
3004.84175	0.03026
3002.91309	0.03023
3000.98444	0.03020
2999.05579	0.03024
2997.12714	0.03033
2995.19848	0.03044
2993.26983	0.03054
2991.34118	0.03065
2989.41252	0.03081
2987.48387	0.03100
2985.55522	0.03119
2983.62656	0.03133
2981.69791	0.03145
2979.76926	0.03159
2977.84060	0.03178
2975.91195	0.03202
2973.98330	0.03223
2972.05464	0.03233
2970.12599	0.03243
2968.19734	0.03263
2966.26868	0.03288
2964.34003	0.03313
2962.41138	0.03337
2960.48272	0.03359
2958.55407	0.03381
2956.62542	0.03397
2954.69676	0.03407
2952.76811	0.03416
2950.83946	0.03424
2948.91080	0.03430
2946.98215	0.03441
2945.05350	0.03457
2943.12484	0.03478
2941.19619	0.03503
2939.26754	0.03539
2937.33888	0.03580
2935.41023	0.03616
2933.48158	0.03645
2931.55293	0.03676
2929.62427	0.03707
2927.69562	0.03736
2925.76697	0.03757
2923.83831	0.03763
2921.90966	0.03752
2919.98101	0.03729
2918.05235	0.03699
2916.12370	0.03660
2914.19505	0.03603
2912.26639	0.03527
2910.33774	0.03452
2908.40909	0.03397
2906.48043	0.03359
2904.55178	0.03329
2902.62313	0.03307
2900.69447	0.03290
2898.76582	0.03277
2896.83717	0.03262
2894.90851	0.03245
2892.97986	0.03228
2891.05121	0.03213
2889.12255	0.03202
2887.19390	0.03199
2885.26525	0.03199
2883.33659	0.03194
2881.40794	0.03186
2879.47929	0.03189
2877.55063	0.03200
2875.62198	0.03208
2873.69333	0.03211
2871.76467	0.03208
2869.83602	0.03197
2867.90737	0.03182
2865.97871	0.03167
2864.05006	0.03154
2862.12141	0.03148
2860.19276	0.03149
2858.26410	0.03156
2856.33545	0.03164
2854.40680	0.03175
2852.47814	0.03183
2850.54949	0.03171
2848.62084	0.03133
2846.69218	0.03074
2844.76353	0.03013
2842.83488	0.02965
2840.90622	0.02925
2838.97757	0.02891
2837.04892	0.02862
2835.12026	0.02835
2833.19161	0.02815
2831.26296	0.02806
2829.33430	0.02802
2827.40565	0.02785
2825.47700	0.02758
2823.54834	0.02740
2821.61969	0.02737
2819.69104	0.02737
2817.76238	0.02733
2815.83373	0.02726
2813.90508	0.02718
2811.97642	0.02711
2810.04777	0.02703
2808.11912	0.02692
2806.19046	0.02680
2804.26181	0.02668
2802.33316	0.02663
2800.40450	0.02666
2798.47585	0.02668
2796.54720	0.02661
2794.61855	0.02647
2792.68989	0.02634
2790.76124	0.02629
2788.83259	0.02627
2786.90393	0.02621
2784.97528	0.02611
2783.04663	0.02602
2781.11797	0.02591
2779.18932	0.02578
2777.26067	0.02568
2775.33201	0.02564
2773.40336	0.02558
2771.47471	0.02554
2769.54605	0.02551
2767.61740	0.02540
2765.68875	0.02527
2763.76009	0.02515
2761.83144	0.02504
2759.90279	0.02496
2757.97413	0.02490
2756.04548	0.02486
2754.11683	0.02482
2752.18817	0.02478
2750.25952	0.02476
2748.33087	0.02473
2746.40221	0.02463
2744.47356	0.02456
2742.54491	0.02458
2740.61625	0.02461
2738.68760	0.02455
2736.75895	0.02446
2734.83029	0.02439
2732.90164	0.02429
2730.97299	0.02421
2729.04433	0.02416
2727.11568	0.02412
2725.18703	0.02405
2723.25838	0.02398
2721.32972	0.02390
2719.40107	0.02384
2717.47242	0.02376
2715.54376	0.02366
2713.61511	0.02357
2711.68646	0.02354
2709.75780	0.02354
2707.82915	0.02357
2705.90050	0.02355
2703.97184	0.02342
2702.04319	0.02327
2700.11454	0.02322
2698.18588	0.02323
2696.25723	0.02318
2694.32858	0.02308
2692.39992	0.02308
2690.47127	0.02318
2688.54262	0.02326
2686.61396	0.02327
2684.68531	0.02320
2682.75666	0.02309
2680.82800	0.02299
2678.89935	0.02295
2676.97070	0.02293
2675.04204	0.02291
2673.11339	0.02290
2671.18474	0.02289
2669.25608	0.02289
2667.32743	0.02291
2665.39878	0.02293
2663.47012	0.02292
2661.54147	0.02287
2659.61282	0.02275
2657.68417	0.02260
2655.75551	0.02251
2653.82686	0.02247
2651.89821	0.02238
2649.96955	0.02223
2648.04090	0.02210
2646.11225	0.02202
2644.18359	0.02195
2642.25494	0.02187
2640.32629	0.02181
2638.39763	0.02171
2636.46898	0.02156
2634.54033	0.02144
2632.61167	0.02137
2630.68302	0.02128
2628.75437	0.02111
2626.82571	0.02094
2624.89706	0.02085
2622.96841	0.02078
2621.03975	0.02063
2619.11110	0.02039
2617.18245	0.02014
2615.25379	0.01996
2613.32514	0.01988
2611.39649	0.01982
2609.46783	0.01984
2607.53918	0.01996
2605.61053	0.02001
2603.68187	0.01989
2601.75322	0.01971
2599.82457	0.01957
2597.89591	0.01945
2595.96726	0.01932
2594.03861	0.01921
2592.10995	0.01914
2590.18130	0.01908
2588.25265	0.01900
2586.32400	0.01890
2584.39534	0.01874
2582.46669	0.01856
2580.53804	0.01850
2578.60938	0.01858
2576.68073	0.01861
2574.75208	0.01846
2572.82342	0.01819
2570.89477	0.01795
2568.96612	0.01787
2567.03746	0.01801
2565.10881	0.01823
2563.18016	0.01832
2561.25150	0.01822
2559.32285	0.01807
2557.39420	0.01792
2555.46554	0.01779
2553.53689	0.01780
2551.60824	0.01792
2549.67958	0.01795
2547.75093	0.01787
2545.82228	0.01774
2543.89362	0.01761
2541.96497	0.01758
2540.03632	0.01764
2538.10766	0.01765
2536.17901	0.01764
2534.25036	0.01762
2532.32170	0.01757
2530.39305	0.01755
2528.46440	0.01751
2526.53574	0.01737
2524.60709	0.01721
2522.67844	0.01711
2520.74978	0.01707
2518.82113	0.01708
2516.89248	0.01710
2514.96383	0.01708
2513.03517	0.01703
2511.10652	0.01697
2509.17787	0.01696
2507.24921	0.01704
2505.32056	0.01712
2503.39191	0.01714
2501.46325	0.01712
2499.53460	0.01701
2497.60595	0.01690
2495.67729	0.01690
2493.74864	0.01689
2491.81999	0.01679
2489.89133	0.01668
2487.96268	0.01665
2486.03403	0.01666
2484.10537	0.01662
2482.17672	0.01654
2480.24807	0.01643
2478.31941	0.01636
2476.39076	0.01634
2474.46211	0.01632
2472.53345	0.01636
2470.60480	0.01647
2468.67615	0.01655
2466.74749	0.01652
2464.81884	0.01641
2462.89019	0.01638
2460.96153	0.01645
2459.03288	0.01650
2457.10423	0.01645
2455.17557	0.01633
2453.24692	0.01621
2451.31827	0.01608
2449.38962	0.01601
2447.46096	0.01606
2445.53231	0.01615
2443.60366	0.01615
2441.67500	0.01605
2439.74635	0.01600
2437.81770	0.01612
2435.88904	0.01631
2433.96039	0.01638
2432.03174	0.01633
2430.10308	0.01620
2428.17443	0.01604
2426.24578	0.01597
2424.31712	0.01605
2422.38847	0.01615
2420.45982	0.01614
2418.53116	0.01613
2416.60251	0.01621
2414.67386	0.01632
2412.74520	0.01632
2410.81655	0.01620
2408.88790	0.01611
2406.95924	0.01611
2405.03059	0.01617
2403.10194	0.01620
2401.17328	0.01624
2399.24463	0.01631
2397.31598	0.01637
2395.38732	0.01641
2393.45867	0.01650
2391.53002	0.01660
2389.60136	0.01666
2387.67271	0.01668
2385.74406	0.01666
2383.81540	0.01657
2381.88675	0.01648
2379.95810	0.01646
2378.02945	0.01656
2376.10079	0.01671
2374.17214	0.01684
2372.24349	0.01691
2370.31483	0.01690
2368.38618	0.01689
2366.45753	0.01696
2364.52887	0.01709
2362.60022	0.01721
2360.67157	0.01724
2358.74291	0.01718
2356.81426	0.01718
2354.88561	0.01732
2352.95695	0.01746
2351.02830	0.01745
2349.09965	0.01740
2347.17099	0.01742
2345.24234	0.01749
2343.31369	0.01756
2341.38503	0.01762
2339.45638	0.01765
2337.52773	0.01761
2335.59907	0.01747
2333.67042	0.01731
2331.74177	0.01725
2329.81311	0.01729
2327.88446	0.01746
2325.95581	0.01772
2324.02715	0.01787
2322.09850	0.01774
2320.16985	0.01744
2318.24119	0.01712
2316.31254	0.01682
2314.38389	0.01664
2312.45524	0.01655
2310.52658	0.01641
2308.59793	0.01617
2306.66928	0.01588
2304.74062	0.01565
2302.81197	0.01553
2300.88332	0.01548
2298.95466	0.01542
2297.02601	0.01528
2295.09736	0.01511
2293.16870	0.01495
2291.24005	0.01483
2289.31140	0.01476
2287.38274	0.01469
2285.45409	0.01461
2283.52544	0.01456
2281.59678	0.01445
2279.66813	0.01420
2277.73948	0.01384
2275.81082	0.01340
2273.88217	0.01301
2271.95352	0.01282
2270.02486	0.01284
2268.09621	0.01285
2266.16756	0.01269
2264.23890	0.01245
2262.31025	0.01231
2260.38160	0.01222
2258.45294	0.01209
2256.52429	0.01197
2254.59564	0.01191
2252.66698	0.01183
2250.73833	0.01164
2248.80968	0.01139
2246.88102	0.01109
2244.95237	0.01093
2243.02372	0.01084
2241.09507	0.01077
2239.16641	0.01071
2237.23776	0.01051
2235.30911	0.01026
2233.38045	0.01021
2231.45180	0.01031
2229.52315	0.01040
2227.59449	0.01043
2225.66584	0.01040
2223.73719	0.01028
2221.80853	0.01009
2219.87988	0.00991
2217.95123	0.00980
2216.02257	0.00973
2214.09392	0.00962
2212.16527	0.00942
2210.23661	0.00920
2208.30796	0.00903
2206.37931	0.00884
2204.45065	0.00853
2202.52200	0.00816
2200.59335	0.00802
2198.66469	0.00820
2196.73604	0.00844
2194.80739	0.00857
2192.87873	0.00858
2190.95008	0.00841
2189.02143	0.00798
2187.09277	0.00757
2185.16412	0.00736
2183.23547	0.00720
2181.30681	0.00714
2179.37816	0.00735
2177.44951	0.00759
2175.52085	0.00755
2173.59220	0.00739
2171.66355	0.00724
2169.73490	0.00697
2167.80624	0.00669
2165.87759	0.00632
2163.94894	0.00584
2162.02028	0.00549
2160.09163	0.00525
2158.16298	0.00498
2156.23432	0.00517
2154.30567	0.00599
2152.37702	0.00676
2150.44836	0.00714
2148.51971	0.00727
2146.59106	0.00727
2144.66240	0.00733
2142.73375	0.00750
2140.80510	0.00756
2138.87644	0.00746
2136.94779	0.00746
2135.01914	0.00773
2133.09048	0.00825
2131.16183	0.00889
2129.23318	0.00943
2127.30452	0.00981
2125.37587	0.01012
2123.44722	0.01035
2121.51856	0.01042
2119.58991	0.01037
2117.66126	0.01049
2115.73260	0.01080
2113.80395	0.01091
2111.87530	0.01067
2109.94664	0.01043
2108.01799	0.01048
2106.08934	0.01065
2104.16069	0.01063
2102.23203	0.01060
2100.30338	0.01080
2098.37473	0.01090
2096.44607	0.01071
2094.51742	0.01048
2092.58877	0.01040
2090.66011	0.01037
2088.73146	0.01022
2086.80281	0.00994
2084.87415	0.00972
2082.94550	0.00972
2081.01685	0.00982
2079.08819	0.00992
2077.15954	0.00989
2075.23089	0.00974
2073.30223	0.00965
2071.37358	0.00955
2069.44493	0.00933
2067.51627	0.00916
2065.58762	0.00907
2063.65897	0.00902
2061.73031	0.00893
2059.80166	0.00864
2057.87301	0.00825
2055.94435	0.00804
2054.01570	0.00801
2052.08705	0.00794
2050.15839	0.00775
2048.22974	0.00755
2046.30109	0.00731
2044.37243	0.00701
2042.44378	0.00687
2040.51513	0.00675
2038.58647	0.00642
2036.65782	0.00604
2034.72917	0.00584
2032.80052	0.00578
2030.87186	0.00564
2028.94321	0.00541
2027.01456	0.00527
2025.08590	0.00519
2023.15725	0.00522
2021.22860	0.00546
2019.29994	0.00567
2017.37129	0.00573
2015.44264	0.00576
2013.51398	0.00576
2011.58533	0.00571
2009.65668	0.00568
2007.72802	0.00556
2005.79937	0.00541
2003.87072	0.00564
2001.94206	0.00635
2000.01341	0.00701
1998.08476	0.00717
1996.15610	0.00701
1994.22745	0.00676
1992.29880	0.00652
1990.37014	0.00640
1988.44149	0.00640
1986.51284	0.00654
1984.58418	0.00684
1982.65553	0.00704
1980.72688	0.00690
1978.79822	0.00650
1976.86957	0.00616
1974.94092	0.00610
1973.01226	0.00610
1971.08361	0.00597
1969.15496	0.00600
1967.22631	0.00632
1965.29765	0.00673
1963.36900	0.00706
1961.44035	0.00725
1959.51169	0.00718
1957.58304	0.00685
1955.65439	0.00662
1953.72573	0.00676
1951.79708	0.00713
1949.86843	0.00745
1947.93977	0.00780
1946.01112	0.00832
1944.08247	0.00886
1942.15381	0.00907
1940.22516	0.00895
1938.29651	0.00885
1936.36785	0.00893
1934.43920	0.00907
1932.51055	0.00905
1930.58189	0.00887
1928.65324	0.00878
1926.72459	0.00890
1924.79593	0.00917
1922.86728	0.00941
1920.93863	0.00953
1919.00997	0.00956
1917.08132	0.00955
1915.15267	0.00958
1913.22401	0.00965
1911.29536	0.00970
1909.36671	0.00973
1907.43805	0.00979
1905.50940	0.00981
1903.58075	0.00983
1901.65209	0.00989
1899.72344	0.00993
1897.79479	0.00997
1895.86614	0.01011
1893.93748	0.01039
1892.00883	0.01061
1890.08018	0.01058
1888.15152	0.01040
1886.22287	0.01023
1884.29422	0.01018
1882.36556	0.01021
1880.43691	0.01019
1878.50826	0.01019
1876.57960	0.01029
1874.65095	0.01040
1872.72230	0.01039
1870.79364	0.01040
1868.86499	0.01054
1866.93634	0.01062
1865.00768	0.01055
1863.07903	0.01050
1861.15038	0.01050
1859.22172	0.01049
1857.29307	0.01044
1855.36442	0.01044
1853.43576	0.01058
1851.50711	0.01074
1849.57846	0.01077
1847.64980	0.01074
1845.72115	0.01072
1843.79250	0.01077
1841.86384	0.01089
1839.93519	0.01089
1838.00654	0.01080
1836.07788	0.01071
1834.14923	0.01070
1832.22058	0.01077
1830.29192	0.01085
1828.36327	0.01092
1826.43462	0.01097
1824.50597	0.01101
1822.57731	0.01104
1820.64866	0.01101
1818.72001	0.01093
1816.79135	0.01086
1814.86270	0.01085
1812.93405	0.01089
1811.00539	0.01089
1809.07674	0.01089
1807.14809	0.01092
1805.21943	0.01097
1803.29078	0.01103
1801.36213	0.01102
1799.43347	0.01099
1797.50482	0.01103
1795.57617	0.01109
1793.64751	0.01110
1791.71886	0.01109
1789.79021	0.01106
1787.86155	0.01099
1785.93290	0.01093
1784.00425	0.01092
1782.07559	0.01094
1780.14694	0.01095
1778.21829	0.01093
1776.28963	0.01092
1774.36098	0.01095
1772.43233	0.01099
1770.50367	0.01096
1768.57502	0.01080
1766.64637	0.01069
1764.71771	0.01068
1762.78906	0.01069
1760.86041	0.01073
1758.93176	0.01081
1757.00310	0.01092
1755.07445	0.01109
1753.14580	0.01122
1751.21714	0.01129
1749.28849	0.01139
1747.35984	0.01146
1745.43118	0.01155
1743.50253	0.01176
1741.57388	0.01207
1739.64522	0.01238
1737.71657	0.01270
1735.78792	0.01299
1733.85926	0.01327
1731.93061	0.01360
1730.00196	0.01385
1728.07330	0.01414
1726.14465	0.01447
1724.21600	0.01478
1722.28734	0.01513
1720.35869	0.01555
1718.43004	0.01601
1716.50138	0.01658
1714.57273	0.01725
1712.64408	0.01797
1710.71542	0.01877
1708.78677	0.01966
1706.85812	0.02066
1704.92946	0.02180
1703.00081	0.02309
1701.07216	0.02450
1699.14350	0.02616
1697.21485	0.02779
1695.28620	0.02939
1693.35754	0.03119
1691.42889	0.03299
1689.50024	0.03486
1687.57159	0.03687
1685.64293	0.03893
1683.71428	0.04112
1681.78563	0.04340
1679.85697	0.04572
1677.92832	0.04827
1675.99967	0.05105
1674.07101	0.05404
1672.14236	0.05711
1670.21371	0.06019
1668.28505	0.06332
1666.35640	0.06637
1664.42775	0.06929
1662.49909	0.07216
1660.57044	0.07494
1658.64179	0.07750
1656.71313	0.07985
1654.78448	0.08192
1652.85583	0.08380
1650.92717	0.08559
1648.99852	0.08706
1647.06987	0.08835
1645.14121	0.08969
1643.21256	0.09096
1641.28391	0.09212
1639.35525	0.09326
1637.42660	0.09433
1635.49795	0.09529
1633.56929	0.09619
1631.64064	0.09678
1629.71199	0.09694
1627.78333	0.09663
1625.85468	0.09587
1623.92603	0.09462
1621.99738	0.09295
1620.06872	0.09093
1618.14007	0.08858
1616.21142	0.08602
1614.28276	0.08333
1612.35411	0.08044
1610.42546	0.07746
1608.49680	0.07449
1606.56815	0.07159
1604.63950	0.06881
1602.71084	0.06618
1600.78219	0.06372
1598.85354	0.06144
1596.92488	0.05937
1594.99623	0.05759
1593.06758	0.05610
1591.13892	0.05485
1589.21027	0.05382
1587.28162	0.05298
1585.35296	0.05235
1583.42431	0.05202
1581.49566	0.05205
1579.56700	0.05237
1577.63835	0.05291
1575.70970	0.05379
1573.78104	0.05498
1571.85239	0.05628
1569.92374	0.05779
1567.99508	0.05961
1566.06643	0.06157
1564.13778	0.06366
1562.20912	0.06590
1560.28047	0.06811
1558.35182	0.07031
1556.42316	0.07236
1554.49451	0.07408
1552.56586	0.07567
1550.63721	0.07719
1548.70855	0.07859
1546.77990	0.07979
1544.85125	0.08079
1542.92259	0.08161
1540.99394	0.08223
1539.06529	0.08267
1537.13663	0.08294
1535.20798	0.08295
1533.27933	0.08285
1531.35067	0.08272
1529.42202	0.08242
1527.49337	0.08198
1525.56471	0.08148
1523.63606	0.08094
1521.70741	0.08026
1519.77875	0.07957
1517.85010	0.07875
1515.92145	0.07775
1513.99279	0.07655
1512.06414	0.07513
1510.13549	0.07355
1508.20683	0.07178
1506.27818	0.06985
1504.34953	0.06790
1502.42087	0.06585
1500.49222	0.06378
1498.56357	0.06180
1496.63491	0.05985
1494.70626	0.05791
1492.77761	0.05600
1490.84895	0.05414
1488.92030	0.05246
1486.99165	0.05107
1485.06299	0.05002
1483.13434	0.04926
1481.20569	0.04882
1479.27704	0.04874
1477.34838	0.04899
1475.41973	0.04956
1473.49108	0.05039
1471.56242	0.05150
1469.63377	0.05278
1467.70512	0.05407
1465.77646	0.05535
1463.84781	0.05672
1461.91916	0.05816
1459.99050	0.05964
1458.06185	0.06119
1456.13320	0.06283
1454.20454	0.06425
1452.27589	0.06520
1450.34724	0.06580
1448.41858	0.06610
1446.48993	0.06614
1444.56128	0.06593
1442.63262	0.06555
1440.70397	0.06507
1438.77532	0.06446
1436.84666	0.06362
1434.91801	0.06261
1432.98936	0.06145
1431.06070	0.06029
1429.13205	0.05927
1427.20340	0.05845
1425.27474	0.05782
1423.34609	0.05744
1421.41744	0.05723
1419.48878	0.05709
1417.56013	0.05708
1415.63148	0.05711
1413.70283	0.05715
1411.77417	0.05727
1409.84552	0.05750
1407.91687	0.05777
1405.98821	0.05795
1404.05956	0.05801
1402.13091	0.05797
1400.20225	0.05778
1398.27360	0.05749
1396.34495	0.05712
1394.41629	0.05673
1392.48764	0.05641
1390.55899	0.05613
1388.63033	0.05590
1386.70168	0.05571
1384.77303	0.05557
1382.84437	0.05543
1380.91572	0.05528
1378.98707	0.05511
1377.05841	0.05486
1375.12976	0.05452
1373.20111	0.05414
1371.27245	0.05375
1369.34380	0.05322
1367.41515	0.05249
1365.48649	0.05167
1363.55784	0.05094
1361.62919	0.05041
1359.70053	0.05007
1357.77188	0.04987
1355.84323	0.04985
1353.91457	0.05005
1351.98592	0.05049
1350.05727	0.05109
1348.12861	0.05184
1346.19996	0.05268
1344.27131	0.05358
1342.34266	0.05453
1340.41400	0.05541
1338.48535	0.05608
1336.55670	0.05649
1334.62804	0.05665
1332.69939	0.05655
1330.77074	0.05619
1328.84208	0.05564
1326.91343	0.05500
1324.98478	0.05439
1323.05612	0.05386
1321.12747	0.05344
1319.19882	0.05316
1317.27016	0.05302
1315.34151	0.05291
1313.41286	0.05271
1311.48420	0.05241
1309.55555	0.05209
1307.62690	0.05181
1305.69824	0.05159
1303.76959	0.05141
1301.84094	0.05128
1299.91228	0.05118
1297.98363	0.05106
1296.05498	0.05097
1294.12632	0.05110
1292.19767	0.05147
1290.26902	0.05197
1288.34036	0.05253
1286.41171	0.05313
1284.48306	0.05376
1282.55440	0.05433
1280.62575	0.05476
1278.69710	0.05499
1276.76845	0.05508
1274.83979	0.05510
1272.91114	0.05517
1270.98249	0.05532
1269.05383	0.05550
1267.12518	0.05578
1265.19653	0.05619
1263.26787	0.05669
1261.33922	0.05726
1259.41057	0.05790
1257.48191	0.05861
1255.55326	0.05942
1253.62461	0.06033
1251.69595	0.06139
1249.76730	0.06255
1247.83865	0.06373
1245.90999	0.06484
1243.98134	0.06596
1242.05269	0.06715
1240.12403	0.06825
1238.19538	0.06911
1236.26673	0.06972
1234.33807	0.07011
1232.40942	0.07019
1230.48077	0.06996
1228.55211	0.06948
1226.62346	0.06876
1224.69481	0.06778
1222.76615	0.06659
1220.83750	0.06531
1218.90885	0.06412
1216.98019	0.06317
1215.05154	0.06252
1213.12289	0.06213
1211.19423	0.06201
1209.26558	0.06218
1207.33693	0.06259
1205.40828	0.06308
1203.47962	0.06343
1201.55097	0.06349
1199.62232	0.06315
1197.69366	0.06254
1195.76501	0.06166
1193.83636	0.06071
1191.90770	0.05981
1189.97905	0.05895
1188.05040	0.05809
1186.12174	0.05734
1184.19309	0.05673
1182.26444	0.05623
1180.33578	0.05585
1178.40713	0.05564
1176.47848	0.05555
1174.54982	0.05552
1172.62117	0.05556
1170.69252	0.05565
1168.76386	0.05580
1166.83521	0.05606
1164.90656	0.05639
1162.97790	0.05664
1161.04925	0.05674
1159.12060	0.05670
1157.19194	0.05652
1155.26329	0.05618
1153.33464	0.05568
1151.40598	0.05511
1149.47733	0.05452
1147.54868	0.05388
1145.62002	0.05324
1143.69137	0.05263
1141.76272	0.05206
1139.83406	0.05161
1137.90541	0.05133
1135.97676	0.05118
1134.04811	0.05109
1132.11945	0.05094
1130.19080	0.05077
1128.26215	0.05066
1126.33349	0.05054
1124.40484	0.05044
1122.47619	0.05045
1120.54753	0.05052
1118.61888	0.05057
1116.69023	0.05059
1114.76157	0.05060
1112.83292	0.05069
1110.90427	0.05091
1108.97561	0.05120
1107.04696	0.05142
1105.11831	0.05153
1103.18965	0.05165
1101.26100	0.05194
1099.33235	0.05228
1097.40369	0.05264
1095.47504	0.05309
1093.54639	0.05358
1091.61773	0.05416
1089.68908	0.05501
1087.76043	0.05608
1085.83177	0.05720
1083.90312	0.05827
1081.97447	0.05919
1080.04581	0.05976
1078.11716	0.05996
1076.18851	0.05994
1074.25985	0.05980
1072.33120	0.05959
1070.40255	0.05937
1068.47390	0.05923
1066.54524	0.05923
1064.61659	0.05936
1062.68794	0.05952
1060.75928	0.05953
1058.83063	0.05932
1056.90198	0.05904
1054.97332	0.05880
1053.04467	0.05845
1051.11602	0.05793
1049.18736	0.05736
1047.25871	0.05691
1045.33006	0.05662
1043.40140	0.05643
1041.47275	0.05634
1039.54410	0.05649
1037.61544	0.05691
1035.68679	0.05751
1033.75814	0.05810
1031.82948	0.05858
1029.90083	0.05877
1027.97218	0.05850
1026.04352	0.05787
1024.11487	0.05709
1022.18622	0.05634
1020.25756	0.05574
1018.32891	0.05523
1016.40026	0.05478
1014.47160	0.05440
1012.54295	0.05401
1010.61430	0.05348
1008.68564	0.05299
1006.75699	0.05268
1004.82834	0.05229
1002.89968	0.05166
1000.97103	0.05107
999.04238	0.05060
997.11373	0.05002
995.18507	0.04939
993.25642	0.04890
991.32777	0.04854
989.39911	0.04817
987.47046	0.04774
985.54181	0.04734
983.61315	0.04713
981.68450	0.04718
979.75585	0.04740
977.82719	0.04757
975.89854	0.04762
973.96989	0.04765
972.04123	0.04773
970.11258	0.04771
968.18393	0.04745
966.25527	0.04712
964.32662	0.04693
962.39797	0.04683
960.46931	0.04666
958.54066	0.04637
956.61201	0.04615
954.68335	0.04610
952.75470	0.04617
950.82605	0.04626
948.89739	0.04635
946.96874	0.04653
945.04009	0.04678
943.11143	0.04704
941.18278	0.04727
939.25413	0.04747
937.32547	0.04755
935.39682	0.04754
933.46817	0.04750
931.53952	0.04740
929.61086	0.04727
927.68221	0.04719
925.75356	0.04716
923.82490	0.04707
921.89625	0.04692
919.96760	0.04678
918.03894	0.04664
916.11029	0.04642
914.18164	0.04597
912.25298	0.04537
910.32433	0.04493
908.39568	0.04472
906.46702	0.04457
904.53837	0.04440
902.60972	0.04418
900.68106	0.04388
898.75241	0.04359
896.82376	0.04339
894.89510	0.04335
892.96645	0.04330
891.03780	0.04310
889.10914	0.04297
887.18049	0.04302
885.25184	0.04310
883.32318	0.04319
881.39453	0.04341
879.46588	0.04371
877.53722	0.04399
875.60857	0.04427
873.67992	0.04451
871.75126	0.04460
869.82261	0.04448
867.89396	0.04431
865.96530	0.04421
864.03665	0.04412
862.10800	0.04402
860.17935	0.04396
858.25069	0.04389
856.32204	0.04385
854.39339	0.04388
852.46473	0.04392
850.53608	0.04381
848.60743	0.04347
846.67877	0.04303
844.75012	0.04265
842.82147	0.04236
840.89281	0.04207
838.96416	0.04181
837.03551	0.04169
835.10685	0.04165
833.17820	0.04158
831.24955	0.04162
829.32089	0.04177
827.39224	0.04179
825.46359	0.04163
823.53493	0.04157
821.60628	0.04179
819.67763	0.04224
817.74897	0.04261
815.82032	0.04270
813.89167	0.04279
811.96301	0.04312
810.03436	0.04351
808.10571	0.04377
806.17705	0.04382
804.24840	0.04378
802.31975	0.04388
800.39109	0.04415
798.46244	0.04448
796.53379	0.04483
794.60513	0.04507
792.67648	0.04524
790.74783	0.04557
788.81918	0.04601
786.89052	0.04639
784.96187	0.04679
783.03322	0.04716
781.10456	0.04732
779.17591	0.04730
777.24726	0.04737
775.31860	0.04761
773.38995	0.04787
771.46130	0.04806
769.53264	0.04838
767.60399	0.04898
765.67534	0.04965
763.74668	0.05005
761.81803	0.05021
759.88938	0.05051
757.96072	0.05107
756.03207	0.05155
754.10342	0.05181
752.17476	0.05207
750.24611	0.05230
748.31746	0.05257
746.38880	0.05299
744.46015	0.05340
742.53150	0.05375
740.60284	0.05428
738.67419	0.05483
736.74554	0.05534
734.81688	0.05606
732.88823	0.05685
730.95958	0.05747
729.03092	0.05809
727.10227	0.05889
725.17362	0.05970
723.24497	0.06023
721.31631	0.06071
719.38766	0.06114
717.45901	0.06165
715.53035	0.06227
713.60170	0.06279
711.67305	0.06317
709.74439	0.06367
707.81574	0.06432
705.88709	0.06492
703.95843	0.06540
702.02978	0.06579
700.10113	0.06617
698.17247	0.06656
696.24382	0.06698
694.31517	0.06743
692.38651	0.06788
690.45786	0.06830
688.52921	0.06871
686.60055	0.06912
684.67190	0.06956
682.74325	0.07006
680.81459	0.07052
678.88594	0.07096
676.95729	0.07145
675.02863	0.07199
673.09998	0.07253
671.17133	0.07305
669.24267	0.07359
667.31402	0.07409
665.38537	0.07460
663.45671	0.07514
661.52806	0.07565
659.59941	0.07612
657.67075	0.07651
655.74210	0.07687
653.81345	0.07729
651.88480	0.07774
649.95614	0.07814
648.02749	0.07851
646.09884	0.07889
644.17018	0.07925
642.24153	0.07964
640.31288	0.07998
638.38422	0.08023
636.45557	0.08044
634.52692	0.08072
632.59826	0.08112
630.66961	0.08096
628.74096	0.07909
626.81230	0.08067
624.88365	0.08339
622.95500	0.08625
621.02634	0.08878
619.09769	0.09004
617.16904	0.08955
615.24038	0.08625
613.31173	0.08027
611.38308	0.07698
609.45442	0.08117
607.52577	0.08685
605.59712	0.08764
603.66846	0.08626
601.73981	0.08622
599.81116	0.08731
597.88250	0.08849
595.95385	0.08927
594.02520	0.08931
592.09654	0.08882
590.16789	0.08860
588.23924	0.08901
586.31059	0.08958
584.38193	0.08992
582.45328	0.09007
580.52463	0.09026
578.59597	0.09059
576.66732	0.09100
574.73867	0.09172
572.81001	0.09287
570.88136	0.09387
568.95271	0.09417
567.02405	0.09418
565.09540	0.09464
563.16675	0.09565
561.23809	0.09671
559.30944	0.09728
557.38079	0.09758
555.45213	0.09806
553.52348	0.09834
551.59483	0.09813
549.66617	0.09778
547.73752	0.09769
545.80887	0.09807
543.88021	0.09881
541.95156	0.09961
540.02291	0.10038
538.09425	0.10108
536.16560	0.10154
534.23695	0.10191
532.30829	0.10241
530.37964	0.10282
528.45099	0.10302
526.52233	0.10324
524.59368	0.10350
522.66503	0.10354
520.73637	0.10343
518.80772	0.10362
516.87907	0.10405
514.95042	0.10419
513.02176	0.10393
511.09311	0.10359
509.16446	0.10343
507.23580	0.10337
505.30715	0.10316
503.37850	0.10281
501.44984	0.10247
499.52119	0.10211
497.59254	0.10172
495.66388	0.10138
493.73523	0.10103
491.80658	0.10063
489.87792	0.10021
487.94927	0.09976
486.02062	0.09929
484.09196	0.09895
482.16331	0.09882
480.23466	0.09881
478.30600	0.09862
476.37735	0.09822
474.44870	0.09809
472.52004	0.09829
470.59139	0.09823
468.66274	0.09775
466.73408	0.09740
464.80543	0.09736
462.87678	0.09728
460.94812	0.09695
459.01947	0.09645
457.09082	0.09604
455.16216	0.09588
453.23351	0.09573
451.30486	0.09529
449.37620	0.09459
447.44755	0.09393
445.51890	0.09348
443.59025	0.09319
441.66159	0.09298
439.73294	0.09272
437.80429	0.09249
435.87563	0.09251
433.94698	0.09266
432.01833	0.09258
430.08967	0.09228
428.16102	0.09201
426.23237	0.09180
424.30371	0.09145
422.37506	0.09112
420.44641	0.09105
418.51775	0.09116
416.58910	0.09110
414.66045	0.09071
412.73179	0.09022
410.80314	0.08991
408.87449	0.08983
406.94583	0.08983
405.01718	0.09001
403.08853	0.09036
401.15987	0.09043
399.23122	0.09013
