3996.16951	0.01661
3994.24086	0.01672
3992.31221	0.01680
3990.38355	0.01680
3988.45490	0.01683
3986.52625	0.01696
3984.59759	0.01703
3982.66894	0.01691
3980.74029	0.01672
3978.81163	0.01666
3976.88298	0.01668
3974.95433	0.01661
3973.02567	0.01653
3971.09702	0.01656
3969.16837	0.01659
3967.23972	0.01662
3965.31106	0.01678
3963.38241	0.01694
3961.45376	0.01695
3959.52510	0.01681
3957.59645	0.01661
3955.66780	0.01650
3953.73914	0.01658
3951.81049	0.01666
3949.88184	0.01658
3947.95318	0.01643
3946.02453	0.01641
3944.09588	0.01650
3942.16722	0.01649
3940.23857	0.01638
3938.30992	0.01632
3936.38126	0.01627
3934.45261	0.01619
3932.52396	0.01619
3930.59530	0.01636
3928.66665	0.01656
3926.73800	0.01653
3924.80934	0.01633
3922.88069	0.01622
3920.95204	0.01619
3919.02338	0.01615
3917.09473	0.01618
3915.16608	0.01632
3913.23742	0.01645
3911.30877	0.01646
3909.38012	0.01641
3907.45146	0.01640
3905.52281	0.01639
3903.59416	0.01636
3901.66550	0.01636
3899.73685	0.01634
3897.80820	0.01625
3895.87955	0.01617
3893.95089	0.01610
3892.02224	0.01596
3890.09359	0.01579
3888.16493	0.01575
3886.23628	0.01582
3884.30763	0.01585
3882.37897	0.01581
3880.45032	0.01579
3878.52167	0.01576
3876.59301	0.01576
3874.66436	0.01586
3872.73571	0.01593
3870.80705	0.01591
3868.87840	0.01591
3866.94975	0.01596
3865.02109	0.01605
3863.09244	0.01611
3861.16379	0.01607
3859.23513	0.01596
3857.30648	0.01589
3855.37783	0.01589
3853.44917	0.01593
3851.52052	0.01589
3849.59187	0.01578
3847.66321	0.01574
3845.73456	0.01581
3843.80591	0.01583
3841.87725	0.01571
3839.94860	0.01565
3838.01995	0.01572
3836.09129	0.01575
3834.16264	0.01572
3832.23399	0.01575
3830.30534	0.01574
3828.37668	0.01559
3826.44803	0.01544
3824.51938	0.01545
3822.59072	0.01557
3820.66207	0.01561
3818.73342	0.01553
3816.80476	0.01547
3814.87611	0.01552
3812.94746	0.01562
3811.01880	0.01571
3809.09015	0.01566
3807.16150	0.01544
3805.23284	0.01520
3803.30419	0.01519
3801.37554	0.01534
3799.44688	0.01541
3797.51823	0.01531
3795.58958	0.01513
3793.66092	0.01509
3791.73227	0.01524
3789.80362	0.01531
3787.87496	0.01514
3785.94631	0.01488
3784.01766	0.01479
3782.08900	0.01496
3780.16035	0.01511
3778.23170	0.01501
3776.30304	0.01487
3774.37439	0.01484
3772.44574	0.01489
3770.51708	0.01494
3768.58843	0.01489
3766.65978	0.01477
3764.73112	0.01479
3762.80247	0.01495
3760.87382	0.01503
3758.94517	0.01500
3757.01651	0.01490
3755.08786	0.01475
3753.15921	0.01469
3751.23055	0.01485
3749.30190	0.01505
3747.37325	0.01515
3745.44459	0.01517
3743.51594	0.01506
3741.58729	0.01490
3739.65863	0.01491
3737.72998	0.01504
3735.80133	0.01505
3733.87267	0.01486
3731.94402	0.01464
3730.01537	0.01452
3728.08671	0.01456
3726.15806	0.01462
3724.22941	0.01461
3722.30075	0.01458
3720.37210	0.01456
3718.44345	0.01450
3716.51479	0.01442
3714.58614	0.01442
3712.65749	0.01444
3710.72883	0.01437
3708.80018	0.01422
3706.87153	0.01407
3704.94287	0.01407
3703.01422	0.01426
3701.08557	0.01445
3699.15691	0.01445
3697.22826	0.01443
3695.29961	0.01446
3693.37095	0.01451
3691.44230	0.01446
3689.51365	0.01437
3687.58500	0.01436
3685.65634	0.01438
3683.72769	0.01434
3681.79904	0.01433
3679.87038	0.01457
3677.94173	0.01498
3676.01308	0.01516
3674.08442	0.01501
3672.15577	0.01487
3670.22712	0.01492
3668.29846	0.01505
3666.36981	0.01523
3664.44116	0.01548
3662.51250	0.01567
3660.58385	0.01582
3658.65520	0.01603
3656.72654	0.01624
3654.79789	0.01636
3652.86924	0.01647
3650.94058	0.01663
3649.01193	0.01683
3647.08328	0.01706
3645.15462	0.01730
3643.22597	0.01748
3641.29732	0.01763
3639.36866	0.01786
3637.44001	0.01810
3635.51136	0.01829
3633.58270	0.01851
3631.65405	0.01887
3629.72540	0.01925
3627.79674	0.01944
3625.86809	0.01948
3623.93944	0.01953
3622.01079	0.01962
3620.08213	0.01984
3618.15348	0.02023
3616.22483	0.02066
3614.29617	0.02108
3612.36752	0.02132
3610.43887	0.02144
3608.51021	0.02154
3606.58156	0.02172
3604.65291	0.02205
3602.72425	0.02246
3600.79560	0.02274
3598.86695	0.02294
3596.93829	0.02329
3595.00964	0.02375
3593.08099	0.02414
3591.15233	0.02443
3589.22368	0.02466
3587.29503	0.02489
3585.36637	0.02523
3583.43772	0.02571
3581.50907	0.02619
3579.58041	0.02660
3577.65176	0.02700
3575.72311	0.02741
3573.79445	0.02778
3571.86580	0.02811
3569.93715	0.02851
3568.00849	0.02898
3566.07984	0.02934
3564.15119	0.02954
3562.22253	0.02986
3560.29388	0.03040
3558.36523	0.03092
3556.43657	0.03126
3554.50792	0.03149
3552.57927	0.03172
3550.65062	0.03203
3548.72196	0.03246
3546.79331	0.03306
3544.86466	0.03374
3542.93600	0.03430
3541.00735	0.03470
3539.07870	0.03509
3537.15004	0.03549
3535.22139	0.03584
3533.29274	0.03620
3531.36408	0.03658
3529.43543	0.03697
3527.50678	0.03737
3525.57812	0.03783
3523.64947	0.03829
3521.72082	0.03871
3519.79216	0.03905
3517.86351	0.03935
3515.93486	0.03969
3514.00620	0.04010
3512.07755	0.04054
3510.14890	0.04098
3508.22024	0.04135
3506.29159	0.04165
3504.36294	0.04198
3502.43428	0.04238
3500.50563	0.04275
3498.57698	0.04302
3496.64832	0.04318
3494.71967	0.04329
3492.79102	0.04355
3490.86236	0.04408
3488.93371	0.04465
3487.00506	0.04505
3485.07641	0.04530
3483.14775	0.04550
3481.21910	0.04578
3479.29045	0.04616
3477.36179	0.04653
3475.43314	0.04685
3473.50449	0.04719
3471.57583	0.04754
3469.64718	0.04789
3467.71853	0.04817
3465.78987	0.04843
3463.86122	0.04877
3461.93257	0.04913
3460.00391	0.04942
3458.07526	0.04967
3456.14661	0.04997
3454.21795	0.05041
3452.28930	0.05085
3450.36065	0.05106
3448.43199	0.05118
3446.50334	0.05147
3444.57469	0.05192
3442.64603	0.05234
3440.71738	0.05260
3438.78873	0.05267
3436.86007	0.05279
3434.93142	0.05319
3433.00277	0.05376
3431.07411	0.05421
3429.14546	0.05449
3427.21681	0.05471
3425.28815	0.05491
3423.35950	0.05516
3421.43085	0.05552
3419.50219	0.05593
3417.57354	0.05631
3415.64489	0.05657
3413.71624	0.05677
3411.78758	0.05705
3409.85893	0.05734
3407.93028	0.05756
3406.00162	0.05774
3404.07297	0.05788
3402.14432	0.05802
3400.21566	0.05827
3398.28701	0.05864
3396.35836	0.05902
3394.42970	0.05939
3392.50105	0.05971
3390.57240	0.05997
3388.64374	0.06025
3386.71509	0.06062
3384.78644	0.06108
3382.85778	0.06147
3380.92913	0.06168
3379.00048	0.06185
3377.07182	0.06212
3375.14317	0.06252
3373.21452	0.06307
3371.28586	0.06373
3369.35721	0.06432
3367.42856	0.06477
3365.49990	0.06526
3363.57125	0.06583
3361.64260	0.06637
3359.71394	0.06699
3357.78529	0.06775
3355.85664	0.06844
3353.92798	0.06905
3351.99933	0.06973
3350.07068	0.07041
3348.14202	0.07102
3346.21337	0.07168
3344.28472	0.07240
3342.35607	0.07310
3340.42741	0.07376
3338.49876	0.07440
3336.57011	0.07498
3334.64145	0.07549
3332.71280	0.07599
3330.78415	0.07656
3328.85549	0.07714
3326.92684	0.07762
3324.99819	0.07797
3323.06953	0.07829
3321.14088	0.07863
3319.21223	0.07901
3317.28357	0.07940
3315.35492	0.07970
3313.42627	0.07993
3311.49761	0.08014
3309.56896	0.08035
3307.64031	0.08048
3305.71165	0.08061
3303.78300	0.08085
3301.85435	0.08114
3299.92569	0.08127
3297.99704	0.08123
3296.06839	0.08126
3294.13973	0.08135
3292.21108	0.08137
3290.28243	0.08136
3288.35377	0.08132
3286.42512	0.08116
3284.49647	0.08100
3282.56781	0.08095
3280.63916	0.08094
3278.71051	0.08086
3276.78186	0.08068
3274.85320	0.08047
3272.92455	0.08022
3270.99590	0.07987
3269.06724	0.07950
3267.13859	0.07924
3265.20994	0.07904
3263.28128	0.07885
3261.35263	0.07857
3259.42398	0.07818
3257.49532	0.07779
3255.56667	0.07751
3253.63802	0.07736
3251.70936	0.07727
3249.78071	0.07707
3247.85206	0.07667
3245.92340	0.07621
3243.99475	0.07592
3242.06610	0.07580
3240.13744	0.07560
3238.20879	0.07529
3236.28014	0.07504
3234.35148	0.07484
3232.42283	0.07453
3230.49418	0.07420
3228.56552	0.07400
3226.63687	0.07385
3224.70822	0.07361
3222.77956	0.07325
3220.85091	0.07286
3218.92226	0.07253
3216.99360	0.07238
3215.06495	0.07242
3213.13630	0.07242
3211.20764	0.07227
3209.27899	0.07205
3207.35034	0.07178
3205.42169	0.07139
3203.49303	0.07088
3201.56438	0.07042
3199.63573	0.07013
3197.70707	0.06999
3195.77842	0.06985
3193.84977	0.06957
3191.92111	0.06911
3189.99246	0.06862
3188.06381	0.06823
3186.13515	0.06784
3184.20650	0.06734
3182.27785	0.06683
3180.34919	0.06642
3178.42054	0.06608
3176.49189	0.06568
3174.56323	0.06517
3172.63458	0.06465
3170.70593	0.06422
3168.77727	0.06380
3166.84862	0.06331
3164.91997	0.06280
3162.99131	0.06232
3161.06266	0.06178
3159.13401	0.06121
3157.20535	0.06071
3155.27670	0.06029
3153.34805	0.05985
3151.41939	0.05936
3149.49074	0.05892
3147.56209	0.05848
3145.63343	0.05801
3143.70478	0.05766
3141.77613	0.05748
3139.84748	0.05723
3137.91882	0.05684
3135.99017	0.05644
3134.06152	0.05613
3132.13286	0.05585
3130.20421	0.05554
3128.27556	0.05521
3126.34690	0.05484
3124.41825	0.05453
3122.48960	0.05443
3120.56094	0.05444
3118.63229	0.05436
3116.70364	0.05422
3114.77498	0.05417
3112.84633	0.05424
3110.91768	0.05430
3108.98902	0.05429
3107.06037	0.05426
3105.13172	0.05422
3103.20306	0.05413
3101.27441	0.05417
3099.34576	0.05439
3097.41710	0.05469
3095.48845	0.05500
3093.55980	0.05532
3091.63114	0.05559
3089.70249	0.05581
3087.77384	0.05607
3085.84518	0.05637
3083.91653	0.05664
3081.98788	0.05682
3080.05922	0.05688
3078.13057	0.05681
3076.20192	0.05666
3074.27326	0.05658
3072.34461	0.05668
3070.41596	0.05678
3068.48731	0.05671
3066.55865	0.05657
3064.63000	0.05645
3062.70135	0.05623
3060.77269	0.05594
3058.84404	0.05571
3056.91539	0.05551
3054.98673	0.05515
3053.05808	0.05465
3051.12943	0.05420
3049.20077	0.05382
3047.27212	0.05340
3045.34347	0.05295
3043.41481	0.05253
3041.48616	0.05211
3039.55751	0.05169
3037.62885	0.05133
3035.70020	0.05106
3033.77155	0.05072
3031.84289	0.05025
3029.91424	0.04974
3027.98559	0.04930
3026.05693	0.04889
3024.12828	0.04849
3022.19963	0.04818
3020.27097	0.04798
3018.34232	0.04782
3016.41367	0.04765
3014.48501	0.04751
3012.55636	0.04741
3010.62771	0.04730
3008.69905	0.04711
3006.77040	0.04695
3004.84175	0.04687
3002.91309	0.04684
3000.98444	0.04684
2999.05579	0.04692
2997.12714	0.04704
2995.19848	0.04717
2993.26983	0.04741
2991.34118	0.04776
2989.41252	0.04807
2987.48387	0.04828
2985.55522	0.04852
2983.62656	0.04888
2981.69791	0.04927
2979.76926	0.04961
2977.84060	0.04994
2975.91195	0.05026
2973.98330	0.05058
2972.05464	0.05090
2970.12599	0.05121
2968.19734	0.05154
2966.26868	0.05193
2964.34003	0.05240
2962.41138	0.05289
2960.48272	0.05321
2958.55407	0.05338
2956.62542	0.05358
2954.69676	0.05375
2952.76811	0.05381
2950.83946	0.05384
2948.91080	0.05393
2946.98215	0.05412
2945.05350	0.05446
2943.12484	0.05496
2941.19619	0.05554
2939.26754	0.05613
2937.33888	0.05677
2935.41023	0.05742
2933.48158	0.05810
2931.55293	0.05878
2929.62427	0.05935
2927.69562	0.05966
2925.76697	0.05973
2923.83831	0.05962
2921.90966	0.05940
2919.98101	0.05901
2918.05235	0.05829
2916.12370	0.05719
2914.19505	0.05584
2912.26639	0.05447
2910.33774	0.05330
2908.40909	0.05246
2906.48043	0.05178
2904.55178	0.05101
2902.62313	0.05025
2900.69447	0.04972
2898.76582	0.04937
2896.83717	0.04902
2894.90851	0.04866
2892.97986	0.04832
2891.05121	0.04804
2889.12255	0.04791
2887.19390	0.04792
2885.26525	0.04793
2883.33659	0.04792
2881.40794	0.04791
2879.47929	0.04789
2877.55063	0.04783
2875.62198	0.04782
2873.69333	0.04782
2871.76467	0.04765
2869.83602	0.04735
2867.90737	0.04703
2865.97871	0.04672
2864.05006	0.04655
2862.12141	0.04661
2860.19276	0.04680
2858.26410	0.04696
2856.33545	0.04710
2854.40680	0.04726
2852.47814	0.04731
2850.54949	0.04698
2848.62084	0.04624
2846.69218	0.04522
2844.76353	0.04411
2842.83488	0.04314
2840.90622	0.04246
2838.97757	0.04193
2837.04892	0.04143
2835.12026	0.04094
2833.19161	0.04052
2831.26296	0.04016
2829.33430	0.03989
2827.40565	0.03978
2825.47700	0.03968
2823.54834	0.03945
2821.61969	0.03921
2819.69104	0.03901
2817.76238	0.03881
2815.83373	0.03862
2813.90508	0.03850
2811.97642	0.03841
2810.04777	0.03833
2808.11912	0.03822
2806.19046	0.03807
2804.26181	0.03793
2802.33316	0.03783
2800.40450	0.03770
2798.47585	0.03748
2796.54720	0.03726
2794.61855	0.03708
2792.68989	0.03695
2790.76124	0.03689
2788.83259	0.03689
2786.90393	0.03682
2784.97528	0.03663
2783.04663	0.03644
2781.11797	0.03634
2779.18932	0.03630
2777.26067	0.03620
2775.33201	0.03599
2773.40336	0.03574
2771.47471	0.03554
2769.54605	0.03539
2767.61740	0.03530
2765.68875	0.03524
2763.76009	0.03516
2761.83144	0.03500
2759.90279	0.03484
2757.97413	0.03482
2756.04548	0.03489
2754.11683	0.03483
2752.18817	0.03463
2750.25952	0.03443
2748.33087	0.03428
2746.40221	0.03415
2744.47356	0.03408
2742.54491	0.03403
2740.61625	0.03393
2738.68760	0.03377
2736.75895	0.03360
2734.83029	0.03348
2732.90164	0.03339
2730.97299	0.03333
2729.04433	0.03330
2727.11568	0.03324
2725.18703	0.03312
2723.25838	0.03297
2721.32972	0.03282
2719.40107	0.03269
2717.47242	0.03260
2715.54376	0.03252
2713.61511	0.03244
2711.68646	0.03238
2709.75780	0.03235
2707.82915	0.03228
2705.90050	0.03215
2703.97184	0.03201
2702.04319	0.03195
2700.11454	0.03197
2698.18588	0.03194
2696.25723	0.03183
2694.32858	0.03172
2692.39992	0.03170
2690.47127	0.03172
2688.54262	0.03170
2686.61396	0.03163
2684.68531	0.03157
2682.75666	0.03152
2680.82800	0.03145
2678.89935	0.03139
2676.97070	0.03137
2675.04204	0.03138
2673.11339	0.03139
2671.18474	0.03138
2669.25608	0.03136
2667.32743	0.03137
2665.39878	0.03134
2663.47012	0.03128
2661.54147	0.03131
2659.61282	0.03137
2657.68417	0.03129
2655.75551	0.03109
2653.82686	0.03084
2651.89821	0.03066
2649.96955	0.03054
2648.04090	0.03043
2646.11225	0.03036
2644.18359	0.03037
2642.25494	0.03033
2640.32629	0.03019
2638.39763	0.03000
2636.46898	0.02980
2634.54033	0.02965
2632.61167	0.02954
2630.68302	0.02941
2628.75437	0.02926
2626.82571	0.02920
2624.89706	0.02914
2622.96841	0.02895
2621.03975	0.02871
2619.11110	0.02851
2617.18245	0.02827
2615.25379	0.02807
2613.32514	0.02804
2611.39649	0.02808
2609.46783	0.02804
2607.53918	0.02793
2605.61053	0.02780
2603.68187	0.02771
2601.75322	0.02769
2599.82457	0.02761
2597.89591	0.02743
2595.96726	0.02725
2594.03861	0.02711
2592.10995	0.02701
2590.18130	0.02689
2588.25265	0.02672
2586.32400	0.02660
2584.39534	0.02659
2582.46669	0.02662
2580.53804	0.02655
2578.60938	0.02638
2576.68073	0.02623
2574.75208	0.02613
2572.82342	0.02599
2570.89477	0.02585
2568.96612	0.02588
2567.03746	0.02599
2565.10881	0.02593
2563.18016	0.02574
2561.25150	0.02561
2559.32285	0.02553
2557.39420	0.02545
2555.46554	0.02536
2553.53689	0.02528
2551.60824	0.02515
2549.67958	0.02502
2547.75093	0.02508
2545.82228	0.02523
2543.89362	0.02528
2541.96497	0.02520
2540.03632	0.02499
2538.10766	0.02474
2536.17901	0.02460
2534.25036	0.02460
2532.32170	0.02459
2530.39305	0.02450
2528.46440	0.02440
2526.53574	0.02438
2524.60709	0.02440
2522.67844	0.02439
2520.74978	0.02434
2518.82113	0.02422
2516.89248	0.02415
2514.96383	0.02412
2513.03517	0.02404
2511.10652	0.02393
2509.17787	0.02386
2507.24921	0.02382
2505.32056	0.02381
2503.39191	0.02383
2501.46325	0.02384
2499.53460	0.02387
2497.60595	0.02393
2495.67729	0.02396
2493.74864	0.02386
2491.81999	0.02363
2489.89133	0.02336
2487.96268	0.02313
2486.03403	0.02304
2484.10537	0.02313
2482.17672	0.02324
2480.24807	0.02326
2478.31941	0.02319
2476.39076	0.02305
2474.46211	0.02290
2472.53345	0.02285
2470.60480	0.02299
2468.67615	0.02318
2466.74749	0.02327
2464.81884	0.02325
2462.89019	0.02313
2460.96153	0.02290
2459.03288	0.02278
2457.10423	0.02286
2455.17557	0.02295
2453.24692	0.02295
2451.31827	0.02285
2449.38962	0.02261
2447.46096	0.02239
2445.53231	0.02234
2443.60366	0.02237
2441.67500	0.02239
2439.74635	0.02235
2437.81770	0.02223
2435.88904	0.02220
2433.96039	0.02232
2432.03174	0.02237
2430.10308	0.02228
2428.17443	0.02221
2426.24578	0.02219
2424.31712	0.02222
2422.38847	0.02232
2420.45982	0.02235
2418.53116	0.02227
2416.60251	0.02220
2414.67386	0.02219
2412.74520	0.02217
2410.81655	0.02209
2408.88790	0.02209
2406.95924	0.02218
2405.03059	0.02230
2403.10194	0.02242
2401.17328	0.02250
2399.24463	0.02245
2397.31598	0.02235
2395.38732	0.02228
2393.45867	0.02229
2391.53002	0.02228
2389.60136	0.02221
2387.67271	0.02215
2385.74406	0.02216
2383.81540	0.02222
2381.88675	0.02229
2379.95810	0.02237
2378.02945	0.02250
2376.10079	0.02249
2374.17214	0.02248
2372.24349	0.02256
2370.31483	0.02304
2368.38618	0.02219
2366.45753	0.02166
2364.52887	0.02175
2362.60022	0.02158
2360.67157	0.02237
2358.74291	0.02324
2356.81426	0.02252
2354.88561	0.02237
2352.95695	0.02305
2351.02830	0.02319
2349.09965	0.02329
2347.17099	0.02324
2345.24234	0.02320
2343.31369	0.02293
2341.38503	0.02247
2339.45638	0.02334
2337.52773	0.02224
2335.59907	0.02230
2333.67042	0.02269
2331.74177	0.02264
2329.81311	0.02252
2327.88446	0.02269
2325.95581	0.02316
2324.02715	0.02349
2322.09850	0.02340
2320.16985	0.02305
2318.24119	0.02274
2316.31254	0.02253
2314.38389	0.02238
2312.45524	0.02222
2310.52658	0.02208
2308.59793	0.02195
2306.66928	0.02174
2304.74062	0.02153
2302.81197	0.02136
2300.88332	0.02138
2298.95466	0.02133
2297.02601	0.02109
2295.09736	0.02091
2293.16870	0.02086
2291.24005	0.02073
2289.31140	0.02052
2287.38274	0.02035
2285.45409	0.02017
2283.52544	0.02000
2281.59678	0.01990
2279.66813	0.01982
2277.73948	0.01965
2275.81082	0.01940
2273.88217	0.01925
2271.95352	0.01930
2270.02486	0.01939
2268.09621	0.01931
2266.16756	0.01907
2264.23890	0.01878
2262.31025	0.01850
2260.38160	0.01842
2258.45294	0.01857
2256.52429	0.01863
2254.59564	0.01836
2252.66698	0.01786
2250.73833	0.01755
2248.80968	0.01755
2246.88102	0.01732
2244.95237	0.01718
2243.02372	0.01716
2241.09507	0.01705
2239.16641	0.01695
2237.23776	0.01707
2235.30911	0.01722
2233.38045	0.01711
2231.45180	0.01685
2229.52315	0.01671
2227.59449	0.01668
2225.66584	0.01654
2223.73719	0.01620
2221.80853	0.01579
2219.87988	0.01558
2217.95123	0.01565
2216.02257	0.01593
2214.09392	0.01608
2212.16527	0.01587
2210.23661	0.01559
2208.30796	0.01540
2206.37931	0.01511
2204.45065	0.01475
2202.52200	0.01457
2200.59335	0.01472
2198.66469	0.01495
2196.73604	0.01496
2194.80739	0.01477
2192.87873	0.01463
2190.95008	0.01464
2189.02143	0.01455
2187.09277	0.01433
2185.16412	0.01410
2183.23547	0.01392
2181.30681	0.01413
2179.37816	0.01456
2177.44951	0.01448
2175.52085	0.01388
2173.59220	0.01329
2171.66355	0.01295
2169.73490	0.01280
2167.80624	0.01279
2165.87759	0.01299
2163.94894	0.01296
2162.02028	0.01188
2160.09163	0.01031
2158.16298	0.00979
2156.23432	0.01067
2154.30567	0.01196
2152.37702	0.01275
2150.44836	0.01301
2148.51971	0.01319
2146.59106	0.01334
2144.66240	0.01343
2142.73375	0.01373
2140.80510	0.01410
2138.87644	0.01424
2136.94779	0.01417
2135.01914	0.01397
2133.09048	0.01403
2131.16183	0.01464
2129.23318	0.01555
2127.30452	0.01632
2125.37587	0.01663
2123.44722	0.01647
2121.51856	0.01629
2119.58991	0.01639
2117.66126	0.01664
2115.73260	0.01684
2113.80395	0.01685
2111.87530	0.01669
2109.94664	0.01657
2108.01799	0.01657
2106.08934	0.01664
2104.16069	0.01678
2102.23203	0.01688
2100.30338	0.01680
2098.37473	0.01664
2096.44607	0.01647
2094.51742	0.01632
2092.58877	0.01616
2090.66011	0.01614
2088.73146	0.01637
2086.80281	0.01669
2084.87415	0.01692
2082.94550	0.01701
2081.01685	0.01697
2079.08819	0.01694
2077.15954	0.01691
2075.23089	0.01666
2073.30223	0.01625
2071.37358	0.01590
2069.44493	0.01558
2067.51627	0.01534
2065.58762	0.01545
2063.65897	0.01568
2061.73031	0.01540
2059.80166	0.01472
2057.87301	0.01423
2055.94435	0.01401
2054.01570	0.01393
2052.08705	0.01402
2050.15839	0.01420
2048.22974	0.01427
2046.30109	0.01414
2044.37243	0.01399
2042.44378	0.01365
2040.51513	0.01289
2038.58647	0.01209
2036.65782	0.01171
2034.72917	0.01161
2032.80052	0.01151
2030.87186	0.01135
2028.94321	0.01120
2027.01456	0.01130
2025.08590	0.01182
2023.15725	0.01234
2021.22860	0.01239
2019.29994	0.01207
2017.37129	0.01141
2015.44264	0.01092
2013.51398	0.01142
2011.58533	0.01210
2009.65668	0.01190
2007.72802	0.01153
2005.79937	0.01175
2003.87072	0.01240
2001.94206	0.01325
2000.01341	0.01403
1998.08476	0.01413
1996.15610	0.01348
1994.22745	0.01265
1992.29880	0.01200
1990.37014	0.01173
1988.44149	0.01197
1986.51284	0.01247
1984.58418	0.01276
1982.65553	0.01278
1980.72688	0.01285
1978.79822	0.01293
1976.86957	0.01278
1974.94092	0.01269
1973.01226	0.01274
1971.08361	0.01260
1969.15496	0.01231
1967.22631	0.01195
1965.29765	0.01173
1963.36900	0.01188
1961.44035	0.01202
1959.51169	0.01209
1957.58304	0.01240
1955.65439	0.01275
1953.72573	0.01286
1951.79708	0.01284
1949.86843	0.01294
1947.93977	0.01326
1946.01112	0.01355
1944.08247	0.01363
1942.15381	0.01391
1940.22516	0.01460
1938.29651	0.01512
1936.36785	0.01497
1934.43920	0.01459
1932.51055	0.01461
1930.58189	0.01492
1928.65324	0.01514
1926.72459	0.01511
1924.79593	0.01490
1922.86728	0.01478
1920.93863	0.01494
1919.00997	0.01522
1917.08132	0.01529
1915.15267	0.01514
1913.22401	0.01502
1911.29536	0.01515
1909.36671	0.01543
1907.43805	0.01564
1905.50940	0.01573
1903.58075	0.01580
1901.65209	0.01582
1899.72344	0.01571
1897.79479	0.01556
1895.86614	0.01559
1893.93748	0.01576
1892.00883	0.01579
1890.08018	0.01567
1888.15152	0.01557
1886.22287	0.01561
1884.29422	0.01567
1882.36556	0.01559
1880.43691	0.01542
1878.50826	0.01525
1876.57960	0.01520
1874.65095	0.01540
1872.72230	0.01566
1870.79364	0.01573
1868.86499	0.01563
1866.93634	0.01553
1865.00768	0.01549
1863.07903	0.01553
1861.15038	0.01555
1859.22172	0.01543
1857.29307	0.01529
1855.36442	0.01531
1853.43576	0.01543
1851.50711	0.01554
1849.57846	0.01555
1847.64980	0.01544
1845.72115	0.01535
1843.79250	0.01535
1841.86384	0.01536
1839.93519	0.01543
1838.00654	0.01553
1836.07788	0.01557
1834.14923	0.01558
1832.22058	0.01560
1830.29192	0.01558
1828.36327	0.01549
1826.43462	0.01548
1824.50597	0.01557
1822.57731	0.01563
1820.64866	0.01557
1818.72001	0.01542
1816.79135	0.01523
1814.86270	0.01512
1812.93405	0.01510
1811.00539	0.01514
1809.07674	0.01519
1807.14809	0.01521
1805.21943	0.01521
1803.29078	0.01527
1801.36213	0.01534
1799.43347	0.01543
1797.50482	0.01558
1795.57617	0.01572
1793.64751	0.01571
1791.71886	0.01559
1789.79021	0.01553
1787.86155	0.01554
1785.93290	0.01548
1784.00425	0.01538
1782.07559	0.01534
1780.14694	0.01538
1778.21829	0.01542
1776.28963	0.01541
1774.36098	0.01539
1772.43233	0.01538
1770.50367	0.01535
1768.57502	0.01532
1766.64637	0.01531
1764.71771	0.01538
1762.78906	0.01553
1760.86041	0.01575
1758.93176	0.01597
1757.00310	0.01624
1755.07445	0.01655
1753.14580	0.01686
1751.21714	0.01722
1749.28849	0.01770
1747.35984	0.01819
1745.43118	0.01866
1743.50253	0.01920
1741.57388	0.01983
1739.64522	0.02054
1737.71657	0.02131
1735.78792	0.02212
1733.85926	0.02291
1731.93061	0.02355
1730.00196	0.02411
1728.07330	0.02471
1726.14465	0.02542
1724.21600	0.02626
1722.28734	0.02717
1720.35869	0.02817
1718.43004	0.02927
1716.50138	0.03040
1714.57273	0.03147
1712.64408	0.03253
1710.71542	0.03363
1708.78677	0.03483
1706.85812	0.03622
1704.92946	0.03787
1703.00081	0.03986
1701.07216	0.04223
1699.14350	0.04487
1697.21485	0.04766
1695.28620	0.05058
1693.35754	0.05352
1691.42889	0.05651
1689.50024	0.05974
1687.57159	0.06329
1685.64293	0.06719
1683.71428	0.07138
1681.78563	0.07572
1679.85697	0.08031
1677.92832	0.08530
1675.99967	0.09072
1674.07101	0.09651
1672.14236	0.10252
1670.21371	0.10869
1668.28505	0.11490
1666.35640	0.12097
1664.42775	0.12698
1662.49909	0.13294
1660.57044	0.13865
1658.64179	0.14391
1656.71313	0.14855
1654.78448	0.15264
1652.85583	0.15630
1650.92717	0.15937
1648.99852	0.16194
1647.06987	0.16433
1645.14121	0.16661
1643.21256	0.16872
1641.28391	0.17075
1639.35525	0.17277
1637.42660	0.17480
1635.49795	0.17677
1633.56929	0.17841
1631.64064	0.17945
1629.71199	0.17972
1627.78333	0.17910
1625.85468	0.17744
1623.92603	0.17468
1621.99738	0.17087
1620.06872	0.16631
1618.14007	0.16129
1616.21142	0.15582
1614.28276	0.14999
1612.35411	0.14399
1610.42546	0.13793
1608.49680	0.13185
1606.56815	0.12587
1604.63950	0.12013
1602.71084	0.11470
1600.78219	0.10965
1598.85354	0.10501
1596.92488	0.10084
1594.99623	0.09716
1593.06758	0.09397
1591.13892	0.09128
1589.21027	0.08913
1587.28162	0.08751
1585.35296	0.08645
1583.42431	0.08600
1581.49566	0.08615
1579.56700	0.08692
1577.63835	0.08836
1575.70970	0.09047
1573.78104	0.09309
1571.85239	0.09617
1569.92374	0.09979
1567.99508	0.10389
1566.06643	0.10827
1564.13778	0.11279
1562.20912	0.11739
1560.28047	0.12208
1558.35182	0.12664
1556.42316	0.13065
1554.49451	0.13411
1552.56586	0.13713
1550.63721	0.13972
1548.70855	0.14185
1546.77990	0.14355
1544.85125	0.14483
1542.92259	0.14569
1540.99394	0.14609
1539.06529	0.14598
1537.13663	0.14531
1535.20798	0.14426
1533.27933	0.14299
1531.35067	0.14153
1529.42202	0.13987
1527.49337	0.13804
1525.56471	0.13606
1523.63606	0.13399
1521.70741	0.13181
1519.77875	0.12948
1517.85010	0.12698
1515.92145	0.12422
1513.99279	0.12107
1512.06414	0.11756
1510.13549	0.11393
1508.20683	0.11027
1506.27818	0.10645
1504.34953	0.10248
1502.42087	0.09863
1500.49222	0.09502
1498.56357	0.09160
1496.63491	0.08828
1494.70626	0.08504
1492.77761	0.08205
1490.84895	0.07946
1488.92030	0.07722
1486.99165	0.07539
1485.06299	0.07415
1483.13434	0.07356
1481.20569	0.07357
1479.27704	0.07411
1477.34838	0.07521
1475.41973	0.07687
1473.49108	0.07906
1471.56242	0.08161
1469.63377	0.08436
1467.70512	0.08719
1465.77646	0.09005
1463.84781	0.09287
1461.91916	0.09567
1459.99050	0.09856
1458.06185	0.10153
1456.13320	0.10424
1454.20454	0.10630
1452.27589	0.10760
1450.34724	0.10817
1448.41858	0.10805
1446.48993	0.10743
1444.56128	0.10645
1442.63262	0.10515
1440.70397	0.10363
1438.77532	0.10194
1436.84666	0.10001
1434.91801	0.09780
1432.98936	0.09556
1431.06070	0.09362
1429.13205	0.09210
1427.20340	0.09098
1425.27474	0.09022
1423.34609	0.08976
1421.41744	0.08946
1419.48878	0.08926
1417.56013	0.08916
1415.63148	0.08922
1413.70283	0.08945
1411.77417	0.08980
1409.84552	0.09020
1407.91687	0.09058
1405.98821	0.09075
1404.05956	0.09060
1402.13091	0.09014
1400.20225	0.08942
1398.27360	0.08851
1396.34495	0.08759
1394.41629	0.08682
1392.48764	0.08621
1390.55899	0.08577
1388.63033	0.08552
1386.70168	0.08540
1384.77303	0.08534
1382.84437	0.08532
1380.91572	0.08532
1378.98707	0.08525
1377.05841	0.08502
1375.12976	0.08454
1373.20111	0.08382
1371.27245	0.08294
1369.34380	0.08192
1367.41515	0.08078
1365.48649	0.07956
1363.55784	0.07835
1361.62919	0.07735
1359.70053	0.07673
1357.77188	0.07655
1355.84323	0.07686
1353.91457	0.07759
1351.98592	0.07861
1350.05727	0.07991
1348.12861	0.08155
1346.19996	0.08342
1344.27131	0.08528
1342.34266	0.08697
1340.41400	0.08842
1338.48535	0.08952
1336.55670	0.09011
1334.62804	0.09005
1332.69939	0.08938
1330.77074	0.08823
1328.84208	0.08681
1326.91343	0.08538
1324.98478	0.08417
1323.05612	0.08327
1321.12747	0.08261
1319.19882	0.08207
1317.27016	0.08159
1315.34151	0.08120
1313.41286	0.08082
1311.48420	0.08033
1309.55555	0.07981
1307.62690	0.07947
1305.69824	0.07934
1303.76959	0.07932
1301.84094	0.07930
1299.91228	0.07927
1297.98363	0.07929
1296.05498	0.07955
1294.12632	0.08024
1292.19767	0.08132
1290.26902	0.08261
1288.34036	0.08394
1286.41171	0.08521
1284.48306	0.08633
1282.55440	0.08727
1280.62575	0.08796
1278.69710	0.08840
1276.76845	0.08858
1274.83979	0.08863
1272.91114	0.08871
1270.98249	0.08895
1269.05383	0.08939
1267.12518	0.09005
1265.19653	0.09093
1263.26787	0.09197
1261.33922	0.09315
1259.41057	0.09447
1257.48191	0.09593
1255.55326	0.09751
1253.62461	0.09933
1251.69595	0.10143
1249.76730	0.10374
1247.83865	0.10612
1245.90999	0.10852
1243.98134	0.11090
1242.05269	0.11313
1240.12403	0.11502
1238.19538	0.11643
1236.26673	0.11721
1234.33807	0.11728
1232.40942	0.11669
1230.48077	0.11552
1228.55211	0.11382
1226.62346	0.11157
1224.69481	0.10889
1222.76615	0.10606
1220.83750	0.10340
1218.90885	0.10110
1216.98019	0.09930
1215.05154	0.09809
1213.12289	0.09755
1211.19423	0.09766
1209.26558	0.09825
1207.33693	0.09913
1205.40828	0.10005
1203.47962	0.10073
1201.55097	0.10082
1199.62232	0.10004
1197.69366	0.09867
1195.76501	0.09693
1193.83636	0.09503
1191.90770	0.09318
1189.97905	0.09149
1188.05040	0.08995
1186.12174	0.08859
1184.19309	0.08748
1182.26444	0.08664
1180.33578	0.08605
1178.40713	0.08563
1176.47848	0.08531
1174.54982	0.08507
1172.62117	0.08491
1170.69252	0.08479
1168.76386	0.08473
1166.83521	0.08475
1164.90656	0.08487
1162.97790	0.08504
1161.04925	0.08502
1159.12060	0.08455
1157.19194	0.08371
1155.26329	0.08270
1153.33464	0.08154
1151.40598	0.08022
1149.47733	0.07887
1147.54868	0.07755
1145.62002	0.07631
1143.69137	0.07519
1141.76272	0.07429
1139.83406	0.07353
1137.90541	0.07287
1135.97676	0.07234
1134.04811	0.07189
1132.11945	0.07154
1130.19080	0.07140
1128.26215	0.07142
1126.33349	0.07138
1124.40484	0.07126
1122.47619	0.07120
1120.54753	0.07122
1118.61888	0.07130
1116.69023	0.07136
1114.76157	0.07132
1112.83292	0.07127
1110.90427	0.07139
1108.97561	0.07167
1107.04696	0.07201
1105.11831	0.07241
1103.18965	0.07291
1101.26100	0.07356
1099.33235	0.07427
1097.40369	0.07490
1095.47504	0.07556
1093.54639	0.07641
1091.61773	0.07758
1089.68908	0.07911
1087.76043	0.08098
1085.83177	0.08304
1083.90312	0.08499
1081.97447	0.08644
1080.04581	0.08714
1078.11716	0.08713
1076.18851	0.08674
1074.25985	0.08620
1072.33120	0.08549
1070.40255	0.08475
1068.47390	0.08428
1066.54524	0.08416
1064.61659	0.08423
1062.68794	0.08429
1060.75928	0.08419
1058.83063	0.08376
1056.90198	0.08307
1054.97332	0.08236
1053.04467	0.08180
1051.11602	0.08136
1049.18736	0.08094
1047.25871	0.08055
1045.33006	0.08032
1043.40140	0.08031
1041.47275	0.08051
1039.54410	0.08098
1037.61544	0.08190
1035.68679	0.08322
1033.75814	0.08455
1031.82948	0.08536
1029.90083	0.08537
1027.97218	0.08459
1026.04352	0.08330
1024.11487	0.08182
1022.18622	0.08046
1020.25756	0.07935
1018.32891	0.07857
1016.40026	0.07803
1014.47160	0.07745
1012.54295	0.07663
1010.61430	0.07565
1008.68564	0.07462
1006.75699	0.07354
1004.82834	0.07245
1002.89968	0.07141
1000.97103	0.07048
999.04238	0.06968
997.11373	0.06899
995.18507	0.06834
993.25642	0.06765
991.32777	0.06698
989.39911	0.06644
987.47046	0.06600
985.54181	0.06559
983.61315	0.06536
981.68450	0.06538
979.75585	0.06559
977.82719	0.06598
975.89854	0.06646
973.96989	0.06679
972.04123	0.06684
970.11258	0.06676
968.18393	0.06670
966.25527	0.06650
964.32662	0.06607
962.39797	0.06560
960.46931	0.06526
958.54066	0.06503
956.61201	0.06480
954.68335	0.06461
952.75470	0.06456
950.82605	0.06465
948.89739	0.06478
946.96874	0.06493
945.04009	0.06519
943.11143	0.06557
941.18278	0.06592
939.25413	0.06615
937.32547	0.06632
935.39682	0.06645
933.46817	0.06647
931.53952	0.06627
929.61086	0.06585
927.68221	0.06548
925.75356	0.06541
923.82490	0.06548
921.89625	0.06543
919.96760	0.06516
918.03894	0.06459
916.11029	0.06394
914.18164	0.06345
912.25298	0.06292
910.32433	0.06229
908.39568	0.06190
906.46702	0.06184
904.53837	0.06180
902.60972	0.06160
900.68106	0.06136
898.75241	0.06124
896.82376	0.06121
894.89510	0.06101
892.96645	0.06053
891.03780	0.06004
889.10914	0.05990
887.18049	0.06019
885.25184	0.06064
883.32318	0.06112
881.39453	0.06157
879.46588	0.06191
877.53722	0.06223
875.60857	0.06265
873.67992	0.06303
871.75126	0.06322
869.82261	0.06323
867.89396	0.06309
865.96530	0.06286
864.03665	0.06268
862.10800	0.06258
860.17935	0.06244
858.25069	0.06230
856.32204	0.06237
854.39339	0.06266
852.46473	0.06295
850.53608	0.06295
848.60743	0.06257
846.67877	0.06213
844.75012	0.06196
842.82147	0.06187
840.89281	0.06163
838.96416	0.06134
837.03551	0.06117
835.10685	0.06117
833.17820	0.06126
831.24955	0.06132
829.32089	0.06146
827.39224	0.06179
825.46359	0.06224
823.53493	0.06266
821.60628	0.06305
819.67763	0.06363
817.74897	0.06432
815.82032	0.06488
813.89167	0.06544
811.96301	0.06606
810.03436	0.06659
808.10571	0.06689
806.17705	0.06705
804.24840	0.06729
802.31975	0.06781
800.39109	0.06860
798.46244	0.06948
796.53379	0.07009
794.60513	0.07029
792.67648	0.07048
790.74783	0.07099
788.81918	0.07180
786.89052	0.07270
784.96187	0.07351
783.03322	0.07415
781.10456	0.07475
779.17591	0.07547
777.24726	0.07614
775.31860	0.07654
773.38995	0.07677
771.46130	0.07694
769.53264	0.07724
767.60399	0.07790
765.67534	0.07875
763.74668	0.07963
761.81803	0.08059
759.88938	0.08169
757.96072	0.08288
756.03207	0.08385
754.10342	0.08436
752.17476	0.08477
750.24611	0.08551
748.31746	0.08639
746.38880	0.08712
744.46015	0.08768
742.53150	0.08829
740.60284	0.08910
738.67419	0.09000
736.74554	0.09101
734.81688	0.09204
732.88823	0.09309
730.95958	0.09463
729.03092	0.09648
727.10227	0.09786
725.17362	0.09871
723.24497	0.09933
721.31631	0.10054
719.38766	0.10179
717.45901	0.10295
715.53035	0.10399
713.60170	0.10478
711.67305	0.10557
709.74439	0.10659
707.81574	0.10777
705.88709	0.10894
703.95843	0.11009
702.02978	0.11125
700.10113	0.11239
698.17247	0.11329
696.24382	0.11394
694.31517	0.11442
692.38651	0.11491
690.45786	0.11559
688.52921	0.11626
686.60055	0.11719
684.67190	0.11824
682.74325	0.11923
680.81459	0.12013
678.88594	0.12075
676.95729	0.12167
675.02863	0.12283
673.09998	0.12400
671.17133	0.12495
669.24267	0.12597
667.31402	0.12696
665.38537	0.12772
663.45671	0.12832
661.52806	0.12914
659.59941	0.13011
657.67075	0.13090
655.74210	0.13184
653.81345	0.13301
651.88480	0.13435
649.95614	0.13533
648.02749	0.13532
646.09884	0.13486
644.17018	0.13536
642.24153	0.13665
640.31288	0.13791
638.38422	0.13914
636.45557	0.14013
634.52692	0.14058
632.59826	0.14051
630.66961	0.13968
628.74096	0.13720
626.81230	0.14074
624.88365	0.14598
622.95500	0.14944
621.02634	0.14993
619.09769	0.14785
617.16904	0.14209
615.24038	0.13460
613.31173	0.13394
611.38308	0.14170
609.45442	0.14659
607.52577	0.14658
605.59712	0.14892
603.66846	0.15210
601.73981	0.15266
599.81116	0.15160
597.88250	0.15057
595.95385	0.15016
594.02520	0.15048
592.09654	0.15140
590.16789	0.15257
588.23924	0.15358
586.31059	0.15451
584.38193	0.15566
582.45328	0.15671
580.52463	0.15715
578.59597	0.15706
576.66732	0.15676
574.73867	0.15660
572.81001	0.15739
570.88136	0.15958
568.95271	0.16196
567.02405	0.16336
565.09540	0.16417
563.16675	0.16488
561.23809	0.16571
559.30944	0.16702
557.38079	0.16806
555.45213	0.16808
553.52348	0.16809
551.59483	0.16874
549.66617	0.16900
547.73752	0.16849
545.80887	0.16792
543.88021	0.16750
541.95156	0.16728
540.02291	0.16757
538.09425	0.16839
536.16560	0.16966
534.23695	0.17107
532.30829	0.17217
530.37964	0.17328
528.45099	0.17478
526.52233	0.17586
524.59368	0.17607
522.66503	0.17607
520.73637	0.17594
518.80772	0.17533
516.87907	0.17448
514.95042	0.17361
513.02176	0.17306
511.09311	0.17324
509.16446	0.17363
507.23580	0.17391
505.30715	0.17428
503.37850	0.17391
501.44984	0.17251
499.52119	0.17173
497.59254	0.17234
495.66388	0.17290
493.73523	0.17246
491.80658	0.17169
489.87792	0.17133
487.94927	0.17126
486.02062	0.17117
484.09196	0.17102
482.16331	0.17096
480.23466	0.17097
478.30600	0.17072
476.37735	0.17019
474.44870	0.16987
472.52004	0.17007
470.59139	0.17077
468.66274	0.17154
466.73408	0.17186
464.80543	0.17156
462.87678	0.17090
460.94812	0.17033
459.01947	0.16991
457.09082	0.16950
455.16216	0.16905
453.23351	0.16833
451.30486	0.16723
449.37620	0.16606
447.44755	0.16531
445.51890	0.16493
443.59025	0.16434
441.66159	0.16341
439.73294	0.16267
437.80429	0.16240
435.87563	0.16230
433.94698	0.16204
432.01833	0.16158
430.08967	0.16106
428.16102	0.16065
426.23237	0.16019
424.30371	0.15963
422.37506	0.15936
420.44641	0.15932
418.51775	0.15883
416.58910	0.15799
414.66045	0.15748
412.73179	0.15742
410.80314	0.15741
408.87449	0.15741
406.94583	0.15768
405.01718	0.15786
403.08853	0.15761
401.15987	0.15730
399.23122	0.15709
