3996.16951	0.01631
3994.24086	0.01616
3992.31221	0.01624
3990.38355	0.01645
3988.45490	0.01659
3986.52625	0.01661
3984.59759	0.01659
3982.66894	0.01655
3980.74029	0.01647
3978.81163	0.01631
3976.88298	0.01612
3974.95433	0.01604
3973.02567	0.01609
3971.09702	0.01612
3969.16837	0.01613
3967.23972	0.01619
3965.31106	0.01624
3963.38241	0.01627
3961.45376	0.01634
3959.52510	0.01631
3957.59645	0.01609
3955.66780	0.01594
3953.73914	0.01608
3951.81049	0.01631
3949.88184	0.01640
3947.95318	0.01630
3946.02453	0.01616
3944.09588	0.01611
3942.16722	0.01620
3940.23857	0.01626
3938.30992	0.01619
3936.38126	0.01610
3934.45261	0.01611
3932.52396	0.01622
3930.59530	0.01627
3928.66665	0.01616
3926.73800	0.01595
3924.80934	0.01582
3922.88069	0.01582
3920.95204	0.01588
3919.02338	0.01594
3917.09473	0.01598
3915.16608	0.01602
3913.23742	0.01607
3911.30877	0.01612
3909.38012	0.01598
3907.45146	0.01572
3905.52281	0.01560
3903.59416	0.01572
3901.66550	0.01587
3899.73685	0.01584
3897.80820	0.01565
3895.87955	0.01553
3893.95089	0.01557
3892.02224	0.01572
3890.09359	0.01592
3888.16493	0.01609
3886.23628	0.01606
3884.30763	0.01584
3882.37897	0.01561
3880.45032	0.01548
3878.52167	0.01547
3876.59301	0.01549
3874.66436	0.01548
3872.73571	0.01552
3870.80705	0.01561
3868.87840	0.01575
3866.94975	0.01585
3865.02109	0.01582
3863.09244	0.01567
3861.16379	0.01551
3859.23513	0.01542
3857.30648	0.01548
3855.37783	0.01563
3853.44917	0.01570
3851.52052	0.01564
3849.59187	0.01555
3847.66321	0.01550
3845.73456	0.01553
3843.80591	0.01559
3841.87725	0.01557
3839.94860	0.01543
3838.01995	0.01522
3836.09129	0.01510
3834.16264	0.01515
3832.23399	0.01526
3830.30534	0.01530
3828.37668	0.01533
3826.44803	0.01532
3824.51938	0.01527
3822.59072	0.01522
3820.66207	0.01522
3818.73342	0.01522
3816.80476	0.01522
3814.87611	0.01518
3812.94746	0.01512
3811.01880	0.01509
3809.09015	0.01509
3807.16150	0.01508
3805.23284	0.01495
3803.30419	0.01479
3801.37554	0.01478
3799.44688	0.01489
3797.51823	0.01500
3795.58958	0.01509
3793.66092	0.01512
3791.73227	0.01509
3789.80362	0.01504
3787.87496	0.01496
3785.94631	0.01489
3784.01766	0.01488
3782.08900	0.01493
3780.16035	0.01494
3778.23170	0.01486
3776.30304	0.01483
3774.37439	0.01485
3772.44574	0.01480
3770.51708	0.01470
3768.58843	0.01468
3766.65978	0.01480
3764.73112	0.01492
3762.80247	0.01488
3760.87382	0.01473
3758.94517	0.01465
3757.01651	0.01465
3755.08786	0.01469
3753.15921	0.01477
3751.23055	0.01483
3749.30190	0.01477
3747.37325	0.01460
3745.44459	0.01436
3743.51594	0.01426
3741.58729	0.01438
3739.65863	0.01452
3737.72998	0.01454
3735.80133	0.01451
3733.87267	0.01455
3731.94402	0.01462
3730.01537	0.01456
3728.08671	0.01441
3726.15806	0.01435
3724.22941	0.01430
3722.30075	0.01423
3720.37210	0.01426
3718.44345	0.01432
3716.51479	0.01435
3714.58614	0.01437
3712.65749	0.01441
3710.72883	0.01441
3708.80018	0.01443
3706.87153	0.01451
3704.94287	0.01452
3703.01422	0.01441
3701.08557	0.01426
3699.15691	0.01403
3697.22826	0.01382
3695.29961	0.01389
3693.37095	0.01421
3691.44230	0.01451
3689.51365	0.01471
3687.58500	0.01472
3685.65634	0.01457
3683.72769	0.01439
3681.79904	0.01428
3679.87038	0.01432
3677.94173	0.01446
3676.01308	0.01452
3674.08442	0.01448
3672.15577	0.01449
3670.22712	0.01458
3668.29846	0.01459
3666.36981	0.01449
3664.44116	0.01451
3662.51250	0.01475
3660.58385	0.01500
3658.65520	0.01513
3656.72654	0.01522
3654.79789	0.01535
3652.86924	0.01546
3650.94058	0.01551
3649.01193	0.01556
3647.08328	0.01560
3645.15462	0.01566
3643.22597	0.01582
3641.29732	0.01610
3639.36866	0.01638
3637.44001	0.01658
3635.51136	0.01667
3633.58270	0.01670
3631.65405	0.01677
3629.72540	0.01694
3627.79674	0.01717
3625.86809	0.01741
3623.93944	0.01766
3622.01079	0.01791
3620.08213	0.01813
3618.15348	0.01833
3616.22483	0.01850
3614.29617	0.01866
3612.36752	0.01886
3610.43887	0.01905
3608.51021	0.01919
3606.58156	0.01933
3604.65291	0.01953
3602.72425	0.01980
3600.79560	0.02006
3598.86695	0.02022
3596.93829	0.02024
3595.00964	0.02024
3593.08099	0.02042
3591.15233	0.02079
3589.22368	0.02117
3587.29503	0.02145
3585.36637	0.02163
3583.43772	0.02178
3581.50907	0.02198
3579.58041	0.02229
3577.65176	0.02270
3575.72311	0.02306
3573.79445	0.02337
3571.86580	0.02365
3569.93715	0.02382
3568.00849	0.02398
3566.07984	0.02441
3564.15119	0.02496
3562.22253	0.02526
3560.29388	0.02538
3558.36523	0.02561
3556.43657	0.02597
3554.50792	0.02632
3552.57927	0.02658
3550.65062	0.02675
3548.72196	0.02692
3546.79331	0.02718
3544.86466	0.02756
3542.93600	0.02803
3541.00735	0.02842
3539.07870	0.02871
3537.15004	0.02901
3535.22139	0.02926
3533.29274	0.02938
3531.36408	0.02951
3529.43543	0.02977
3527.50678	0.03014
3525.57812	0.03054
3523.64947	0.03089
3521.72082	0.03109
3519.79216	0.03122
3517.86351	0.03147
3515.93486	0.03184
3514.00620	0.03221
3512.07755	0.03249
3510.14890	0.03277
3508.22024	0.03310
3506.29159	0.03341
3504.36294	0.03361
3502.43428	0.03377
3500.50563	0.03399
3498.57698	0.03425
3496.64832	0.03456
3494.71967	0.03498
3492.79102	0.03538
3490.86236	0.03561
3488.93371	0.03572
3487.00506	0.03592
3485.07641	0.03622
3483.14775	0.03655
3481.21910	0.03679
3479.29045	0.03689
3477.36179	0.03699
3475.43314	0.03723
3473.50449	0.03761
3471.57583	0.03798
3469.64718	0.03831
3467.71853	0.03859
3465.78987	0.03882
3463.86122	0.03902
3461.93257	0.03923
3460.00391	0.03945
3458.07526	0.03969
3456.14661	0.03995
3454.21795	0.04026
3452.28930	0.04058
3450.36065	0.04084
3448.43199	0.04109
3446.50334	0.04147
3444.57469	0.04180
3442.64603	0.04198
3440.71738	0.04220
3438.78873	0.04256
3436.86007	0.04288
3434.93142	0.04308
3433.00277	0.04329
3431.07411	0.04354
3429.14546	0.04376
3427.21681	0.04402
3425.28815	0.04440
3423.35950	0.04474
3421.43085	0.04496
3419.50219	0.04513
3417.57354	0.04529
3415.64489	0.04549
3413.71624	0.04574
3411.78758	0.04605
3409.85893	0.04646
3407.93028	0.04686
3406.00162	0.04710
3404.07297	0.04722
3402.14432	0.04737
3400.21566	0.04762
3398.28701	0.04788
3396.35836	0.04812
3394.42970	0.04840
3392.50105	0.04867
3390.57240	0.04890
3388.64374	0.04928
3386.71509	0.04980
3384.78644	0.05026
3382.85778	0.05059
3380.92913	0.05089
3379.00048	0.05123
3377.07182	0.05163
3375.14317	0.05200
3373.21452	0.05235
3371.28586	0.05271
3369.35721	0.05309
3367.42856	0.05353
3365.49990	0.05404
3363.57125	0.05467
3361.64260	0.05530
3359.71394	0.05581
3357.78529	0.05625
3355.85664	0.05676
3353.92798	0.05731
3351.99933	0.05790
3350.07068	0.05862
3348.14202	0.05939
3346.21337	0.06009
3344.28472	0.06068
3342.35607	0.06121
3340.42741	0.06165
3338.49876	0.06208
3336.57011	0.06252
3334.64145	0.06285
3332.71280	0.06318
3330.78415	0.06373
3328.85549	0.06440
3326.92684	0.06492
3324.99819	0.06529
3323.06953	0.06558
3321.14088	0.06581
3319.21223	0.06595
3317.28357	0.06608
3315.35492	0.06627
3313.42627	0.06652
3311.49761	0.06680
3309.56896	0.06706
3307.64031	0.06721
3305.71165	0.06726
3303.78300	0.06729
3301.85435	0.06731
3299.92569	0.06737
3297.99704	0.06747
3296.06839	0.06758
3294.13973	0.06764
3292.21108	0.06764
3290.28243	0.06757
3288.35377	0.06757
3286.42512	0.06768
3284.49647	0.06778
3282.56781	0.06770
3280.63916	0.06744
3278.71051	0.06722
3276.78186	0.06709
3274.85320	0.06693
3272.92455	0.06676
3270.99590	0.06667
3269.06724	0.06658
3267.13859	0.06635
3265.20994	0.06602
3263.28128	0.06571
3261.35263	0.06541
3259.42398	0.06509
3257.49532	0.06475
3255.56667	0.06442
3253.63802	0.06412
3251.70936	0.06383
3249.78071	0.06361
3247.85206	0.06349
3245.92340	0.06338
3243.99475	0.06320
3242.06610	0.06301
3240.13744	0.06275
3238.20879	0.06240
3236.28014	0.06212
3234.35148	0.06198
3232.42283	0.06186
3230.49418	0.06166
3228.56552	0.06145
3226.63687	0.06131
3224.70822	0.06120
3222.77956	0.06102
3220.85091	0.06081
3218.92226	0.06067
3216.99360	0.06057
3215.06495	0.06041
3213.13630	0.06023
3211.20764	0.06006
3209.27899	0.05985
3207.35034	0.05963
3205.42169	0.05951
3203.49303	0.05941
3201.56438	0.05923
3199.63573	0.05893
3197.70707	0.05857
3195.77842	0.05825
3193.84977	0.05801
3191.92111	0.05781
3189.99246	0.05757
3188.06381	0.05730
3186.13515	0.05701
3184.20650	0.05667
3182.27785	0.05629
3180.34919	0.05588
3178.42054	0.05547
3176.49189	0.05514
3174.56323	0.05489
3172.63458	0.05464
3170.70593	0.05433
3168.77727	0.05400
3166.84862	0.05367
3164.91997	0.05328
3162.99131	0.05277
3161.06266	0.05228
3159.13401	0.05198
3157.20535	0.05176
3155.27670	0.05143
3153.34805	0.05103
3151.41939	0.05067
3149.49074	0.05033
3147.56209	0.04996
3145.63343	0.04963
3143.70478	0.04937
3141.77613	0.04909
3139.84748	0.04874
3137.91882	0.04839
3135.99017	0.04818
3134.06152	0.04804
3132.13286	0.04785
3130.20421	0.04759
3128.27556	0.04731
3126.34690	0.04709
3124.41825	0.04697
3122.48960	0.04689
3120.56094	0.04688
3118.63229	0.04695
3116.70364	0.04700
3114.77498	0.04693
3112.84633	0.04682
3110.91768	0.04681
3108.98902	0.04690
3107.06037	0.04700
3105.13172	0.04711
3103.20306	0.04717
3101.27441	0.04721
3099.34576	0.04736
3097.41710	0.04764
3095.48845	0.04791
3093.55980	0.04813
3091.63114	0.04834
3089.70249	0.04850
3087.77384	0.04857
3085.84518	0.04866
3083.91653	0.04885
3081.98788	0.04904
3080.05922	0.04918
3078.13057	0.04927
3076.20192	0.04930
3074.27326	0.04929
3072.34461	0.04921
3070.41596	0.04913
3068.48731	0.04910
3066.55865	0.04903
3064.63000	0.04886
3062.70135	0.04871
3060.77269	0.04865
3058.84404	0.04857
3056.91539	0.04839
3054.98673	0.04816
3053.05808	0.04791
3051.12943	0.04767
3049.20077	0.04741
3047.27212	0.04705
3045.34347	0.04661
3043.41481	0.04623
3041.48616	0.04590
3039.55751	0.04562
3037.62885	0.04541
3035.70020	0.04525
3033.77155	0.04503
3031.84289	0.04469
3029.91424	0.04431
3027.98559	0.04393
3026.05693	0.04361
3024.12828	0.04336
3022.19963	0.04311
3020.27097	0.04288
3018.34232	0.04273
3016.41367	0.04264
3014.48501	0.04256
3012.55636	0.04248
3010.62771	0.04237
3008.69905	0.04229
3006.77040	0.04231
3004.84175	0.04240
3002.91309	0.04248
3000.98444	0.04250
2999.05579	0.04251
2997.12714	0.04259
2995.19848	0.04271
2993.26983	0.04284
2991.34118	0.04296
2989.41252	0.04314
2987.48387	0.04344
2985.55522	0.04380
2983.62656	0.04412
2981.69791	0.04437
2979.76926	0.04464
2977.84060	0.04497
2975.91195	0.04533
2973.98330	0.04571
2972.05464	0.04607
2970.12599	0.04642
2968.19734	0.04686
2966.26868	0.04741
2964.34003	0.04798
2962.41138	0.04854
2960.48272	0.04906
2958.55407	0.04955
2956.62542	0.04995
2954.69676	0.05014
2952.76811	0.05013
2950.83946	0.05009
2948.91080	0.05019
2946.98215	0.05046
2945.05350	0.05087
2943.12484	0.05145
2941.19619	0.05217
2939.26754	0.05304
2937.33888	0.05411
2935.41023	0.05522
2933.48158	0.05617
2931.55293	0.05703
2929.62427	0.05790
2927.69562	0.05876
2925.76697	0.05954
2923.83831	0.06010
2921.90966	0.06025
2919.98101	0.06001
2918.05235	0.05943
2916.12370	0.05840
2914.19505	0.05683
2912.26639	0.05490
2910.33774	0.05310
2908.40909	0.05178
2906.48043	0.05083
2904.55178	0.05001
2902.62313	0.04931
2900.69447	0.04870
2898.76582	0.04816
2896.83717	0.04771
2894.90851	0.04734
2892.97986	0.04697
2891.05121	0.04653
2889.12255	0.04613
2887.19390	0.04587
2885.26525	0.04572
2883.33659	0.04559
2881.40794	0.04548
2879.47929	0.04551
2877.55063	0.04564
2875.62198	0.04577
2873.69333	0.04582
2871.76467	0.04575
2869.83602	0.04559
2867.90737	0.04541
2865.97871	0.04523
2864.05006	0.04515
2862.12141	0.04536
2860.19276	0.04591
2858.26410	0.04659
2856.33545	0.04725
2854.40680	0.04786
2852.47814	0.04828
2850.54949	0.04821
2848.62084	0.04737
2846.69218	0.04586
2844.76353	0.04413
2842.83488	0.04258
2840.90622	0.04137
2838.97757	0.04051
2837.04892	0.03985
2835.12026	0.03931
2833.19161	0.03885
2831.26296	0.03854
2829.33430	0.03832
2827.40565	0.03805
2825.47700	0.03768
2823.54834	0.03735
2821.61969	0.03716
2819.69104	0.03708
2817.76238	0.03700
2815.83373	0.03684
2813.90508	0.03660
2811.97642	0.03638
2810.04777	0.03624
2808.11912	0.03611
2806.19046	0.03592
2804.26181	0.03573
2802.33316	0.03557
2800.40450	0.03544
2798.47585	0.03532
2796.54720	0.03521
2794.61855	0.03505
2792.68989	0.03485
2790.76124	0.03470
2788.83259	0.03462
2786.90393	0.03455
2784.97528	0.03439
2783.04663	0.03418
2781.11797	0.03401
2779.18932	0.03385
2777.26067	0.03366
2775.33201	0.03348
2773.40336	0.03335
2771.47471	0.03325
2769.54605	0.03314
2767.61740	0.03302
2765.68875	0.03294
2763.76009	0.03285
2761.83144	0.03273
2759.90279	0.03262
2757.97413	0.03254
2756.04548	0.03248
2754.11683	0.03238
2752.18817	0.03225
2750.25952	0.03220
2748.33087	0.03216
2746.40221	0.03206
2744.47356	0.03195
2742.54491	0.03186
2740.61625	0.03174
2738.68760	0.03161
2736.75895	0.03152
2734.83029	0.03147
2732.90164	0.03140
2730.97299	0.03126
2729.04433	0.03107
2727.11568	0.03092
2725.18703	0.03084
2723.25838	0.03075
2721.32972	0.03062
2719.40107	0.03055
2717.47242	0.03049
2715.54376	0.03040
2713.61511	0.03033
2711.68646	0.03029
2709.75780	0.03027
2707.82915	0.03024
2705.90050	0.03012
2703.97184	0.02994
2702.04319	0.02980
2700.11454	0.02975
2698.18588	0.02974
2696.25723	0.02971
2694.32858	0.02966
2692.39992	0.02960
2690.47127	0.02954
2688.54262	0.02953
2686.61396	0.02958
2684.68531	0.02961
2682.75666	0.02954
2680.82800	0.02944
2678.89935	0.02937
2676.97070	0.02935
2675.04204	0.02934
2673.11339	0.02928
2671.18474	0.02921
2669.25608	0.02916
2667.32743	0.02912
2665.39878	0.02907
2663.47012	0.02904
2661.54147	0.02901
2659.61282	0.02892
2657.68417	0.02880
2655.75551	0.02869
2653.82686	0.02858
2651.89821	0.02845
2649.96955	0.02829
2648.04090	0.02816
2646.11225	0.02803
2644.18359	0.02790
2642.25494	0.02781
2640.32629	0.02775
2638.39763	0.02759
2636.46898	0.02731
2634.54033	0.02702
2632.61167	0.02683
2630.68302	0.02666
2628.75437	0.02653
2626.82571	0.02648
2624.89706	0.02640
2622.96841	0.02622
2621.03975	0.02604
2619.11110	0.02584
2617.18245	0.02555
2615.25379	0.02528
2613.32514	0.02510
2611.39649	0.02497
2609.46783	0.02492
2607.53918	0.02495
2605.61053	0.02493
2603.68187	0.02477
2601.75322	0.02448
2599.82457	0.02424
2597.89591	0.02421
2595.96726	0.02417
2594.03861	0.02398
2592.10995	0.02378
2590.18130	0.02368
2588.25265	0.02365
2586.32400	0.02360
2584.39534	0.02344
2582.46669	0.02328
2580.53804	0.02328
2578.60938	0.02338
2576.68073	0.02341
2574.75208	0.02325
2572.82342	0.02288
2570.89477	0.02253
2568.96612	0.02238
2567.03746	0.02243
2565.10881	0.02265
2563.18016	0.02281
2561.25150	0.02261
2559.32285	0.02222
2557.39420	0.02195
2555.46554	0.02192
2553.53689	0.02200
2551.60824	0.02210
2549.67958	0.02212
2547.75093	0.02205
2545.82228	0.02190
2543.89362	0.02172
2541.96497	0.02158
2540.03632	0.02158
2538.10766	0.02161
2536.17901	0.02154
2534.25036	0.02136
2532.32170	0.02128
2530.39305	0.02136
2528.46440	0.02139
2526.53574	0.02127
2524.60709	0.02114
2522.67844	0.02107
2520.74978	0.02096
2518.82113	0.02077
2516.89248	0.02063
2514.96383	0.02058
2513.03517	0.02056
2511.10652	0.02064
2509.17787	0.02085
2507.24921	0.02099
2505.32056	0.02093
2503.39191	0.02086
2501.46325	0.02083
2499.53460	0.02076
2497.60595	0.02069
2495.67729	0.02065
2493.74864	0.02061
2491.81999	0.02053
2489.89133	0.02032
2487.96268	0.02008
2486.03403	0.02004
2484.10537	0.02014
2482.17672	0.02019
2480.24807	0.02008
2478.31941	0.01993
2476.39076	0.01991
2474.46211	0.01995
2472.53345	0.02001
2470.60480	0.02008
2468.67615	0.02011
2466.74749	0.02006
2464.81884	0.01999
2462.89019	0.02000
2460.96153	0.02005
2459.03288	0.02003
2457.10423	0.01996
2455.17557	0.01985
2453.24692	0.01973
2451.31827	0.01968
2449.38962	0.01973
2447.46096	0.01975
2445.53231	0.01972
2443.60366	0.01965
2441.67500	0.01955
2439.74635	0.01950
2437.81770	0.01954
2435.88904	0.01963
2433.96039	0.01966
2432.03174	0.01961
2430.10308	0.01950
2428.17443	0.01942
2426.24578	0.01941
2424.31712	0.01941
2422.38847	0.01935
2420.45982	0.01928
2418.53116	0.01930
2416.60251	0.01938
2414.67386	0.01939
2412.74520	0.01932
2410.81655	0.01928
2408.88790	0.01931
2406.95924	0.01935
2405.03059	0.01939
2403.10194	0.01944
2401.17328	0.01949
2399.24463	0.01949
2397.31598	0.01947
2395.38732	0.01945
2393.45867	0.01956
2391.53002	0.01977
2389.60136	0.01995
2387.67271	0.01999
2385.74406	0.01994
2383.81540	0.01987
2381.88675	0.01988
2379.95810	0.01994
2378.02945	0.02003
2376.10079	0.02014
2374.17214	0.02021
2372.24349	0.02018
2370.31483	0.02002
2368.38618	0.02015
2366.45753	0.02026
2364.52887	0.02036
2362.60022	0.02030
2360.67157	0.02047
2358.74291	0.02024
2356.81426	0.02041
2354.88561	0.02042
2352.95695	0.02053
2351.02830	0.02073
2349.09965	0.02075
2347.17099	0.02076
2345.24234	0.02084
2343.31369	0.02083
2341.38503	0.02066
2339.45638	0.02055
2337.52773	0.02051
2335.59907	0.02048
2333.67042	0.02038
2331.74177	0.02028
2329.81311	0.02028
2327.88446	0.02044
2325.95581	0.02068
2324.02715	0.02083
2322.09850	0.02071
2320.16985	0.02044
2318.24119	0.02014
2316.31254	0.01990
2314.38389	0.01970
2312.45524	0.01946
2310.52658	0.01918
2308.59793	0.01892
2306.66928	0.01866
2304.74062	0.01838
2302.81197	0.01815
2300.88332	0.01804
2298.95466	0.01800
2297.02601	0.01788
2295.09736	0.01764
2293.16870	0.01742
2291.24005	0.01726
2289.31140	0.01710
2287.38274	0.01691
2285.45409	0.01675
2283.52544	0.01657
2281.59678	0.01635
2279.66813	0.01620
2277.73948	0.01610
2275.81082	0.01583
2273.88217	0.01550
2271.95352	0.01529
2270.02486	0.01511
2268.09621	0.01483
2266.16756	0.01450
2264.23890	0.01419
2262.31025	0.01391
2260.38160	0.01376
2258.45294	0.01371
2256.52429	0.01360
2254.59564	0.01346
2252.66698	0.01342
2250.73833	0.01340
2248.80968	0.01341
2246.88102	0.01326
2244.95237	0.01322
2243.02372	0.01320
2241.09507	0.01307
2239.16641	0.01286
2237.23776	0.01251
2235.30911	0.01209
2233.38045	0.01178
2231.45180	0.01159
2229.52315	0.01161
2227.59449	0.01185
2225.66584	0.01199
2223.73719	0.01185
2221.80853	0.01155
2219.87988	0.01117
2217.95123	0.01075
2216.02257	0.01044
2214.09392	0.01039
2212.16527	0.01056
2210.23661	0.01071
2208.30796	0.01069
2206.37931	0.01048
2204.45065	0.01018
2202.52200	0.00987
2200.59335	0.00958
2198.66469	0.00945
2196.73604	0.00961
2194.80739	0.00983
2192.87873	0.00988
2190.95008	0.00967
2189.02143	0.00919
2187.09277	0.00873
2185.16412	0.00849
2183.23547	0.00840
2181.30681	0.00852
2179.37816	0.00877
2177.44951	0.00866
2175.52085	0.00836
2173.59220	0.00839
2171.66355	0.00855
2169.73490	0.00848
2167.80624	0.00811
2165.87759	0.00736
2163.94894	0.00651
2162.02028	0.00582
2160.09163	0.00519
2158.16298	0.00498
2156.23432	0.00556
2154.30567	0.00646
2152.37702	0.00723
2150.44836	0.00786
2148.51971	0.00825
2146.59106	0.00832
2144.66240	0.00833
2142.73375	0.00841
2140.80510	0.00849
2138.87644	0.00868
2136.94779	0.00902
2135.01914	0.00937
2133.09048	0.00979
2131.16183	0.01042
2129.23318	0.01100
2127.30452	0.01131
2125.37587	0.01145
2123.44722	0.01165
2121.51856	0.01191
2119.58991	0.01207
2117.66126	0.01218
2115.73260	0.01224
2113.80395	0.01204
2111.87530	0.01173
2109.94664	0.01167
2108.01799	0.01184
2106.08934	0.01195
2104.16069	0.01190
2102.23203	0.01180
2100.30338	0.01173
2098.37473	0.01166
2096.44607	0.01160
2094.51742	0.01160
2092.58877	0.01167
2090.66011	0.01173
2088.73146	0.01162
2086.80281	0.01140
2084.87415	0.01126
2082.94550	0.01120
2081.01685	0.01113
2079.08819	0.01124
2077.15954	0.01143
2075.23089	0.01136
2073.30223	0.01103
2071.37358	0.01067
2069.44493	0.01047
2067.51627	0.01042
2065.58762	0.01033
2063.65897	0.01008
2061.73031	0.00970
2059.80166	0.00935
2057.87301	0.00922
2055.94435	0.00924
2054.01570	0.00922
2052.08705	0.00903
2050.15839	0.00861
2048.22974	0.00799
2046.30109	0.00734
2044.37243	0.00688
2042.44378	0.00678
2040.51513	0.00678
2038.58647	0.00649
2036.65782	0.00605
2034.72917	0.00589
2032.80052	0.00600
2030.87186	0.00602
2028.94321	0.00580
2027.01456	0.00560
2025.08590	0.00566
2023.15725	0.00595
2021.22860	0.00612
2019.29994	0.00606
2017.37129	0.00610
2015.44264	0.00634
2013.51398	0.00651
2011.58533	0.00653
2009.65668	0.00641
2007.72802	0.00625
2005.79937	0.00619
2003.87072	0.00636
2001.94206	0.00685
2000.01341	0.00727
1998.08476	0.00722
1996.15610	0.00703
1994.22745	0.00710
1992.29880	0.00728
1990.37014	0.00747
1988.44149	0.00770
1986.51284	0.00783
1984.58418	0.00781
1982.65553	0.00767
1980.72688	0.00729
1978.79822	0.00672
1976.86957	0.00633
1974.94092	0.00621
1973.01226	0.00628
1971.08361	0.00647
1969.15496	0.00669
1967.22631	0.00684
1965.29765	0.00687
1963.36900	0.00700
1961.44035	0.00730
1959.51169	0.00755
1957.58304	0.00764
1955.65439	0.00778
1953.72573	0.00813
1951.79708	0.00850
1949.86843	0.00869
1947.93977	0.00876
1946.01112	0.00896
1944.08247	0.00939
1942.15381	0.00979
1940.22516	0.00998
1938.29651	0.01000
1936.36785	0.01004
1934.43920	0.01016
1932.51055	0.01022
1930.58189	0.01019
1928.65324	0.01018
1926.72459	0.01020
1924.79593	0.01023
1922.86728	0.01029
1920.93863	0.01035
1919.00997	0.01044
1917.08132	0.01053
1915.15267	0.01054
1913.22401	0.01064
1911.29536	0.01098
1909.36671	0.01137
1907.43805	0.01155
1905.50940	0.01152
1903.58075	0.01147
1901.65209	0.01139
1899.72344	0.01126
1897.79479	0.01124
1895.86614	0.01143
1893.93748	0.01164
1892.00883	0.01175
1890.08018	0.01175
1888.15152	0.01169
1886.22287	0.01164
1884.29422	0.01170
1882.36556	0.01184
1880.43691	0.01192
1878.50826	0.01188
1876.57960	0.01184
1874.65095	0.01187
1872.72230	0.01193
1870.79364	0.01202
1868.86499	0.01215
1866.93634	0.01219
1865.00768	0.01212
1863.07903	0.01207
1861.15038	0.01212
1859.22172	0.01220
1857.29307	0.01217
1855.36442	0.01207
1853.43576	0.01205
1851.50711	0.01214
1849.57846	0.01220
1847.64980	0.01222
1845.72115	0.01227
1843.79250	0.01237
1841.86384	0.01248
1839.93519	0.01251
1838.00654	0.01246
1836.07788	0.01241
1834.14923	0.01241
1832.22058	0.01243
1830.29192	0.01248
1828.36327	0.01257
1826.43462	0.01268
1824.50597	0.01276
1822.57731	0.01275
1820.64866	0.01265
1818.72001	0.01260
1816.79135	0.01268
1814.86270	0.01280
1812.93405	0.01288
1811.00539	0.01293
1809.07674	0.01295
1807.14809	0.01294
1805.21943	0.01301
1803.29078	0.01312
1801.36213	0.01317
1799.43347	0.01314
1797.50482	0.01318
1795.57617	0.01328
1793.64751	0.01338
1791.71886	0.01343
1789.79021	0.01344
1787.86155	0.01343
1785.93290	0.01341
1784.00425	0.01338
1782.07559	0.01334
1780.14694	0.01330
1778.21829	0.01332
1776.28963	0.01344
1774.36098	0.01360
1772.43233	0.01370
1770.50367	0.01371
1768.57502	0.01374
1766.64637	0.01383
1764.71771	0.01394
1762.78906	0.01409
1760.86041	0.01431
1758.93176	0.01455
1757.00310	0.01478
1755.07445	0.01508
1753.14580	0.01549
1751.21714	0.01598
1749.28849	0.01653
1747.35984	0.01711
1745.43118	0.01770
1743.50253	0.01836
1741.57388	0.01912
1739.64522	0.01989
1737.71657	0.02059
1735.78792	0.02127
1733.85926	0.02202
1731.93061	0.02278
1730.00196	0.02349
1728.07330	0.02425
1726.14465	0.02509
1724.21600	0.02596
1722.28734	0.02691
1720.35869	0.02801
1718.43004	0.02925
1716.50138	0.03060
1714.57273	0.03198
1712.64408	0.03337
1710.71542	0.03474
1708.78677	0.03603
1706.85812	0.03727
1704.92946	0.03861
1703.00081	0.04016
1701.07216	0.04199
1699.14350	0.04411
1697.21485	0.04645
1695.28620	0.04897
1693.35754	0.05168
1691.42889	0.05451
1689.50024	0.05747
1687.57159	0.06062
1685.64293	0.06407
1683.71428	0.06781
1681.78563	0.07175
1679.85697	0.07591
1677.92832	0.08051
1675.99967	0.08556
1674.07101	0.09082
1672.14236	0.09614
1670.21371	0.10157
1668.28505	0.10713
1666.35640	0.11264
1664.42775	0.11797
1662.49909	0.12310
1660.57044	0.12793
1658.64179	0.13226
1656.71313	0.13602
1654.78448	0.13930
1652.85583	0.14221
1650.92717	0.14467
1648.99852	0.14664
1647.06987	0.14843
1645.14121	0.15014
1643.21256	0.15167
1641.28391	0.15301
1639.35525	0.15430
1637.42660	0.15559
1635.49795	0.15681
1633.56929	0.15777
1631.64064	0.15816
1629.71199	0.15776
1627.78333	0.15646
1625.85468	0.15420
1623.92603	0.15096
1621.99738	0.14686
1620.06872	0.14217
1618.14007	0.13712
1616.21142	0.13176
1614.28276	0.12615
1612.35411	0.12042
1610.42546	0.11475
1608.49680	0.10922
1606.56815	0.10391
1604.63950	0.09887
1602.71084	0.09415
1600.78219	0.08983
1598.85354	0.08590
1596.92488	0.08240
1594.99623	0.07935
1593.06758	0.07678
1591.13892	0.07464
1589.21027	0.07291
1587.28162	0.07159
1585.35296	0.07073
1583.42431	0.07040
1581.49566	0.07061
1579.56700	0.07135
1577.63835	0.07261
1575.70970	0.07441
1573.78104	0.07667
1571.85239	0.07927
1569.92374	0.08228
1567.99508	0.08567
1566.06643	0.08932
1564.13778	0.09308
1562.20912	0.09688
1560.28047	0.10075
1558.35182	0.10461
1556.42316	0.10817
1554.49451	0.11129
1552.56586	0.11406
1550.63721	0.11652
1548.70855	0.11863
1546.77990	0.12031
1544.85125	0.12152
1542.92259	0.12230
1540.99394	0.12273
1539.06529	0.12283
1537.13663	0.12252
1535.20798	0.12183
1533.27933	0.12090
1531.35067	0.11982
1529.42202	0.11852
1527.49337	0.11696
1525.56471	0.11524
1523.63606	0.11345
1521.70741	0.11160
1519.77875	0.10962
1517.85010	0.10742
1515.92145	0.10486
1513.99279	0.10197
1512.06414	0.09884
1510.13549	0.09551
1508.20683	0.09205
1506.27818	0.08851
1504.34953	0.08494
1502.42087	0.08145
1500.49222	0.07816
1498.56357	0.07511
1496.63491	0.07224
1494.70626	0.06949
1492.77761	0.06694
1490.84895	0.06470
1488.92030	0.06282
1486.99165	0.06142
1485.06299	0.06058
1483.13434	0.06027
1481.20569	0.06044
1479.27704	0.06105
1477.34838	0.06217
1475.41973	0.06385
1473.49108	0.06610
1471.56242	0.06875
1469.63377	0.07153
1467.70512	0.07427
1465.77646	0.07687
1463.84781	0.07928
1461.91916	0.08154
1459.99050	0.08380
1458.06185	0.08616
1456.13320	0.08838
1454.20454	0.09001
1452.27589	0.09092
1450.34724	0.09130
1448.41858	0.09127
1446.48993	0.09084
1444.56128	0.09002
1442.63262	0.08892
1440.70397	0.08763
1438.77532	0.08616
1436.84666	0.08450
1434.91801	0.08271
1432.98936	0.08090
1431.06070	0.07924
1429.13205	0.07784
1427.20340	0.07674
1425.27474	0.07596
1423.34609	0.07549
1421.41744	0.07527
1419.48878	0.07525
1417.56013	0.07540
1415.63148	0.07570
1413.70283	0.07609
1411.77417	0.07646
1409.84552	0.07671
1407.91687	0.07677
1405.98821	0.07661
1404.05956	0.07618
1402.13091	0.07543
1400.20225	0.07448
1398.27360	0.07346
1396.34495	0.07244
1394.41629	0.07155
1392.48764	0.07088
1390.55899	0.07047
1388.63033	0.07028
1386.70168	0.07018
1384.77303	0.07010
1382.84437	0.07003
1380.91572	0.06994
1378.98707	0.06981
1377.05841	0.06955
1375.12976	0.06907
1373.20111	0.06846
1371.27245	0.06780
1369.34380	0.06704
1367.41515	0.06608
1365.48649	0.06507
1363.55784	0.06422
1361.62919	0.06364
1359.70053	0.06336
1357.77188	0.06338
1355.84323	0.06373
1353.91457	0.06446
1351.98592	0.06551
1350.05727	0.06681
1348.12861	0.06826
1346.19996	0.06977
1344.27131	0.07126
1342.34266	0.07263
1340.41400	0.07373
1338.48535	0.07442
1336.55670	0.07471
1334.62804	0.07462
1332.69939	0.07413
1330.77074	0.07331
1328.84208	0.07226
1326.91343	0.07115
1324.98478	0.07009
1323.05612	0.06920
1321.12747	0.06856
1319.19882	0.06814
1317.27016	0.06782
1315.34151	0.06757
1313.41286	0.06743
1311.48420	0.06733
1309.55555	0.06717
1307.62690	0.06699
1305.69824	0.06685
1303.76959	0.06685
1301.84094	0.06696
1299.91228	0.06712
1297.98363	0.06731
1296.05498	0.06760
1294.12632	0.06810
1292.19767	0.06885
1290.26902	0.06981
1288.34036	0.07090
1286.41171	0.07196
1284.48306	0.07291
1282.55440	0.07369
1280.62575	0.07432
1278.69710	0.07476
1276.76845	0.07499
1274.83979	0.07511
1272.91114	0.07533
1270.98249	0.07567
1269.05383	0.07606
1267.12518	0.07660
1265.19653	0.07731
1263.26787	0.07817
1261.33922	0.07913
1259.41057	0.08023
1257.48191	0.08146
1255.55326	0.08280
1253.62461	0.08432
1251.69595	0.08608
1249.76730	0.08795
1247.83865	0.08981
1245.90999	0.09161
1243.98134	0.09341
1242.05269	0.09516
1240.12403	0.09668
1238.19538	0.09777
1236.26673	0.09836
1234.33807	0.09848
1232.40942	0.09814
1230.48077	0.09734
1228.55211	0.09610
1226.62346	0.09448
1224.69481	0.09258
1222.76615	0.09051
1220.83750	0.08849
1218.90885	0.08670
1216.98019	0.08533
1215.05154	0.08445
1213.12289	0.08409
1211.19423	0.08421
1209.26558	0.08468
1207.33693	0.08529
1205.40828	0.08584
1203.47962	0.08615
1201.55097	0.08600
1199.62232	0.08526
1197.69366	0.08413
1195.76501	0.08280
1193.83636	0.08145
1191.90770	0.08018
1189.97905	0.07903
1188.05040	0.07799
1186.12174	0.07712
1184.19309	0.07647
1182.26444	0.07596
1180.33578	0.07557
1178.40713	0.07534
1176.47848	0.07529
1174.54982	0.07542
1172.62117	0.07563
1170.69252	0.07583
1168.76386	0.07611
1166.83521	0.07647
1164.90656	0.07679
1162.97790	0.07702
1161.04925	0.07713
1159.12060	0.07699
1157.19194	0.07659
1155.26329	0.07597
1153.33464	0.07520
1151.40598	0.07444
1149.47733	0.07368
1147.54868	0.07289
1145.62002	0.07218
1143.69137	0.07157
1141.76272	0.07099
1139.83406	0.07053
1137.90541	0.07033
1135.97676	0.07027
1134.04811	0.07021
1132.11945	0.07013
1130.19080	0.07017
1128.26215	0.07030
1126.33349	0.07040
1124.40484	0.07043
1122.47619	0.07052
1120.54753	0.07073
1118.61888	0.07101
1116.69023	0.07123
1114.76157	0.07138
1112.83292	0.07151
1110.90427	0.07188
1108.97561	0.07256
1107.04696	0.07331
1105.11831	0.07389
1103.18965	0.07445
1101.26100	0.07513
1099.33235	0.07589
1097.40369	0.07667
1095.47504	0.07754
1093.54639	0.07855
1091.61773	0.07978
1089.68908	0.08131
1087.76043	0.08307
1085.83177	0.08487
1083.90312	0.08654
1081.97447	0.08788
1080.04581	0.08864
1078.11716	0.08872
1076.18851	0.08833
1074.25985	0.08779
1072.33120	0.08732
1070.40255	0.08693
1068.47390	0.08654
1066.54524	0.08626
1064.61659	0.08620
1062.68794	0.08608
1060.75928	0.08570
1058.83063	0.08514
1056.90198	0.08451
1054.97332	0.08385
1053.04467	0.08315
1051.11602	0.08248
1049.18736	0.08193
1047.25871	0.08149
1045.33006	0.08112
1043.40140	0.08085
1041.47275	0.08076
1039.54410	0.08093
1037.61544	0.08144
1035.68679	0.08217
1033.75814	0.08284
1031.82948	0.08319
1029.90083	0.08301
1027.97218	0.08231
1026.04352	0.08125
1024.11487	0.08002
1022.18622	0.07884
1020.25756	0.07790
1018.32891	0.07717
1016.40026	0.07653
1014.47160	0.07589
1012.54295	0.07520
1010.61430	0.07444
1008.68564	0.07365
1006.75699	0.07285
1004.82834	0.07204
1002.89968	0.07118
1000.97103	0.07029
999.04238	0.06944
997.11373	0.06859
995.18507	0.06776
993.25642	0.06693
991.32777	0.06612
989.39911	0.06538
987.47046	0.06482
985.54181	0.06433
983.61315	0.06382
981.68450	0.06352
979.75585	0.06362
977.82719	0.06390
975.89854	0.06415
973.96989	0.06437
972.04123	0.06445
970.11258	0.06426
968.18393	0.06392
966.25527	0.06372
964.32662	0.06375
962.39797	0.06381
960.46931	0.06374
958.54066	0.06358
956.61201	0.06352
954.68335	0.06365
952.75470	0.06385
950.82605	0.06399
948.89739	0.06417
946.96874	0.06443
945.04009	0.06475
943.11143	0.06510
941.18278	0.06541
939.25413	0.06559
937.32547	0.06558
935.39682	0.06535
933.46817	0.06502
931.53952	0.06461
929.61086	0.06406
927.68221	0.06349
925.75356	0.06310
923.82490	0.06286
921.89625	0.06254
919.96760	0.06200
918.03894	0.06135
916.11029	0.06071
914.18164	0.05997
912.25298	0.05914
910.32433	0.05853
908.39568	0.05825
906.46702	0.05802
904.53837	0.05764
902.60972	0.05709
900.68106	0.05652
898.75241	0.05616
896.82376	0.05602
894.89510	0.05590
892.96645	0.05562
891.03780	0.05532
889.10914	0.05527
887.18049	0.05542
885.25184	0.05573
883.32318	0.05634
881.39453	0.05699
879.46588	0.05731
877.53722	0.05743
875.60857	0.05765
873.67992	0.05788
871.75126	0.05787
869.82261	0.05762
867.89396	0.05731
865.96530	0.05695
864.03665	0.05653
862.10800	0.05624
860.17935	0.05613
858.25069	0.05604
856.32204	0.05592
854.39339	0.05577
852.46473	0.05555
850.53608	0.05519
848.60743	0.05465
846.67877	0.05399
844.75012	0.05338
842.82147	0.05295
840.89281	0.05260
838.96416	0.05224
837.03551	0.05205
835.10685	0.05202
833.17820	0.05198
831.24955	0.05198
829.32089	0.05206
827.39224	0.05211
825.46359	0.05207
823.53493	0.05217
821.60628	0.05266
819.67763	0.05335
817.74897	0.05375
815.82032	0.05387
813.89167	0.05410
811.96301	0.05449
810.03436	0.05481
808.10571	0.05504
806.17705	0.05530
804.24840	0.05565
802.31975	0.05613
800.39109	0.05654
798.46244	0.05675
796.53379	0.05694
794.60513	0.05727
792.67648	0.05779
790.74783	0.05843
788.81918	0.05897
786.89052	0.05936
784.96187	0.05986
783.03322	0.06040
781.10456	0.06083
779.17591	0.06116
777.24726	0.06147
775.31860	0.06178
773.38995	0.06207
771.46130	0.06229
769.53264	0.06259
767.60399	0.06319
765.67534	0.06390
763.74668	0.06445
761.81803	0.06488
759.88938	0.06537
757.96072	0.06601
756.03207	0.06675
754.10342	0.06748
752.17476	0.06812
750.24611	0.06872
748.31746	0.06940
746.38880	0.07020
744.46015	0.07087
742.53150	0.07136
740.60284	0.07205
738.67419	0.07291
736.74554	0.07360
734.81688	0.07436
732.88823	0.07548
730.95958	0.07656
729.03092	0.07759
727.10227	0.07886
725.17362	0.08016
723.24497	0.08087
721.31631	0.08187
719.38766	0.08266
717.45901	0.08324
715.53035	0.08383
713.60170	0.08442
711.67305	0.08505
709.74439	0.08582
707.81574	0.08668
705.88709	0.08742
703.95843	0.08808
702.02978	0.08875
700.10113	0.08940
698.17247	0.09001
696.24382	0.09062
694.31517	0.09129
692.38651	0.09196
690.45786	0.09256
688.52921	0.09319
686.60055	0.09375
684.67190	0.09411
682.74325	0.09456
680.81459	0.09529
678.88594	0.09613
676.95729	0.09686
675.02863	0.09745
673.09998	0.09798
671.17133	0.09851
669.24267	0.09924
667.31402	0.10019
665.38537	0.10119
663.45671	0.10202
661.52806	0.10272
659.59941	0.10333
657.67075	0.10382
655.74210	0.10422
653.81345	0.10462
651.88480	0.10514
649.95614	0.10588
648.02749	0.10674
646.09884	0.10736
644.17018	0.10766
642.24153	0.10792
640.31288	0.10837
638.38422	0.10889
636.45557	0.10930
634.52692	0.10966
632.59826	0.10999
630.66961	0.10992
628.74096	0.10908
626.81230	0.10979
624.88365	0.11101
622.95500	0.11203
621.02634	0.11211
619.09769	0.11081
617.16904	0.11083
615.24038	0.11322
613.31173	0.11559
611.38308	0.11759
609.45442	0.11936
607.52577	0.11889
605.59712	0.11688
603.66846	0.11539
601.73981	0.11491
599.81116	0.11565
597.88250	0.11755
595.95385	0.11941
594.02520	0.12023
592.09654	0.12034
590.16789	0.12070
588.23924	0.12153
586.31059	0.12239
584.38193	0.12313
582.45328	0.12363
580.52463	0.12384
578.59597	0.12415
576.66732	0.12483
574.73867	0.12591
572.81001	0.12703
570.88136	0.12766
568.95271	0.12803
567.02405	0.12878
565.09540	0.13001
563.16675	0.13151
561.23809	0.13282
559.30944	0.13363
557.38079	0.13430
555.45213	0.13474
553.52348	0.13456
551.59483	0.13457
549.66617	0.13540
547.73752	0.13637
545.80887	0.13713
543.88021	0.13779
541.95156	0.13811
540.02291	0.13825
538.09425	0.13887
536.16560	0.13996
534.23695	0.14097
532.30829	0.14198
530.37964	0.14315
528.45099	0.14399
526.52233	0.14405
524.59368	0.14379
522.66503	0.14391
520.73637	0.14416
518.80772	0.14401
516.87907	0.14357
514.95042	0.14325
513.02176	0.14325
511.09311	0.14321
509.16446	0.14284
507.23580	0.14236
505.30715	0.14174
503.37850	0.14088
501.44984	0.13990
499.52119	0.13883
497.59254	0.13772
495.66388	0.13690
493.73523	0.13637
491.80658	0.13569
489.87792	0.13483
487.94927	0.13413
486.02062	0.13376
484.09196	0.13355
482.16331	0.13320
480.23466	0.13281
478.30600	0.13257
476.37735	0.13260
474.44870	0.13283
472.52004	0.13281
470.59139	0.13245
468.66274	0.13213
466.73408	0.13183
464.80543	0.13130
462.87678	0.13062
460.94812	0.12977
459.01947	0.12867
457.09082	0.12765
455.16216	0.12697
453.23351	0.12650
451.30486	0.12590
449.37620	0.12487
447.44755	0.12349
445.51890	0.12236
443.59025	0.12175
441.66159	0.12123
439.73294	0.12065
437.80429	0.12027
435.87563	0.12029
433.94698	0.12051
432.01833	0.12056
430.08967	0.12036
428.16102	0.12000
426.23237	0.11950
424.30371	0.11891
422.37506	0.11840
420.44641	0.11811
418.51775	0.11803
416.58910	0.11788
414.66045	0.11734
412.73179	0.11659
410.80314	0.11603
408.87449	0.11566
406.94583	0.11542
405.01718	0.11556
403.08853	0.11602
401.15987	0.11624
399.23122	0.11599
