3996.16951	0.00967
3994.24086	0.00984
3992.31221	0.00995
3990.38355	0.01001
3988.45490	0.01009
3986.52625	0.01016
3984.59759	0.01007
3982.66894	0.00989
3980.74029	0.00981
3978.81163	0.00989
3976.88298	0.01002
3974.95433	0.01003
3973.02567	0.00995
3971.09702	0.00989
3969.16837	0.00982
3967.23972	0.00971
3965.31106	0.00968
3963.38241	0.00977
3961.45376	0.00988
3959.52510	0.00990
3957.59645	0.00981
3955.66780	0.00978
3953.73914	0.00991
3951.81049	0.01003
3949.88184	0.00996
3947.95318	0.00980
3946.02453	0.00978
3944.09588	0.00988
3942.16722	0.00992
3940.23857	0.00986
3938.30992	0.00975
3936.38126	0.00965
3934.45261	0.00950
3932.52396	0.00946
3930.59530	0.00969
3928.66665	0.00995
3926.73800	0.00995
3924.80934	0.00971
3922.88069	0.00950
3920.95204	0.00942
3919.02338	0.00945
3917.09473	0.00959
3915.16608	0.00979
3913.23742	0.00988
3911.30877	0.00986
3909.38012	0.00985
3907.45146	0.00989
3905.52281	0.00990
3903.59416	0.00983
3901.66550	0.00966
3899.73685	0.00951
3897.80820	0.00958
3895.87955	0.00982
3893.95089	0.00997
3892.02224	0.00979
3890.09359	0.00954
3888.16493	0.00943
3886.23628	0.00944
3884.30763	0.00961
3882.37897	0.00959
3880.45032	0.00937
3878.52167	0.00926
3876.59301	0.00920
3874.66436	0.00922
3872.73571	0.00931
3870.80705	0.00921
3868.87840	0.00923
3866.94975	0.00940
3865.02109	0.00946
3863.09244	0.00956
3861.16379	0.00960
3859.23513	0.00957
3857.30648	0.00953
3855.37783	0.00930
3853.44917	0.00918
3851.52052	0.00937
3849.59187	0.00943
3847.66321	0.00944
3845.73456	0.00951
3843.80591	0.00956
3841.87725	0.00961
3839.94860	0.00962
3838.01995	0.00959
3836.09129	0.00964
3834.16264	0.00956
3832.23399	0.00942
3830.30534	0.00939
3828.37668	0.00929
3826.44803	0.00916
3824.51938	0.00916
3822.59072	0.00907
3820.66207	0.00905
3818.73342	0.00907
3816.80476	0.00888
3814.87611	0.00906
3812.94746	0.00946
3811.01880	0.00958
3809.09015	0.00944
3807.16150	0.00915
3805.23284	0.00914
3803.30419	0.00912
3801.37554	0.00898
3799.44688	0.00908
3797.51823	0.00904
3795.58958	0.00888
3793.66092	0.00885
3791.73227	0.00896
3789.80362	0.00907
3787.87496	0.00904
3785.94631	0.00891
3784.01766	0.00892
3782.08900	0.00910
3780.16035	0.00920
3778.23170	0.00915
3776.30304	0.00908
3774.37439	0.00905
3772.44574	0.00900
3770.51708	0.00887
3768.58843	0.00880
3766.65978	0.00874
3764.73112	0.00874
3762.80247	0.00887
3760.87382	0.00892
3758.94517	0.00895
3757.01651	0.00898
3755.08786	0.00894
3753.15921	0.00879
3751.23055	0.00886
3749.30190	0.00924
3747.37325	0.00958
3745.44459	0.00932
3743.51594	0.00910
3741.58729	0.00910
3739.65863	0.00901
3737.72998	0.00900
3735.80133	0.00897
3733.87267	0.00887
3731.94402	0.00871
3730.01537	0.00878
3728.08671	0.00889
3726.15806	0.00887
3724.22941	0.00886
3722.30075	0.00885
3720.37210	0.00882
3718.44345	0.00875
3716.51479	0.00877
3714.58614	0.00889
3712.65749	0.00883
3710.72883	0.00873
3708.80018	0.00871
3706.87153	0.00868
3704.94287	0.00861
3703.01422	0.00858
3701.08557	0.00875
3699.15691	0.00897
3697.22826	0.00892
3695.29961	0.00879
3693.37095	0.00875
3691.44230	0.00869
3689.51365	0.00849
3687.58500	0.00847
3685.65634	0.00869
3683.72769	0.00876
3681.79904	0.00874
3679.87038	0.00887
3677.94173	0.00912
3676.01308	0.00914
3674.08442	0.00917
3672.15577	0.00904
3670.22712	0.00884
3668.29846	0.00897
3666.36981	0.00911
3664.44116	0.00917
3662.51250	0.00916
3660.58385	0.00915
3658.65520	0.00925
3656.72654	0.00942
3654.79789	0.00967
3652.86924	0.00979
3650.94058	0.00969
3649.01193	0.00961
3647.08328	0.00963
3645.15462	0.00965
3643.22597	0.00964
3641.29732	0.00964
3639.36866	0.00971
3637.44001	0.00986
3635.51136	0.01002
3633.58270	0.01025
3631.65405	0.01052
3629.72540	0.01058
3627.79674	0.01065
3625.86809	0.01075
3623.93944	0.01074
3622.01079	0.01063
3620.08213	0.01054
3618.15348	0.01079
3616.22483	0.01114
3614.29617	0.01123
3612.36752	0.01131
3610.43887	0.01149
3608.51021	0.01167
3606.58156	0.01181
3604.65291	0.01184
3602.72425	0.01187
3600.79560	0.01196
3598.86695	0.01209
3596.93829	0.01226
3595.00964	0.01253
3593.08099	0.01281
3591.15233	0.01292
3589.22368	0.01289
3587.29503	0.01294
3585.36637	0.01304
3583.43772	0.01314
3581.50907	0.01333
3579.58041	0.01355
3577.65176	0.01375
3575.72311	0.01399
3573.79445	0.01422
3571.86580	0.01433
3569.93715	0.01430
3568.00849	0.01428
3566.07984	0.01449
3564.15119	0.01476
3562.22253	0.01496
3560.29388	0.01515
3558.36523	0.01535
3556.43657	0.01547
3554.50792	0.01557
3552.57927	0.01574
3550.65062	0.01607
3548.72196	0.01636
3546.79331	0.01653
3544.86466	0.01676
3542.93600	0.01697
3541.00735	0.01701
3539.07870	0.01702
3537.15004	0.01718
3535.22139	0.01739
3533.29274	0.01752
3531.36408	0.01768
3529.43543	0.01791
3527.50678	0.01813
3525.57812	0.01836
3523.64947	0.01860
3521.72082	0.01886
3519.79216	0.01905
3517.86351	0.01914
3515.93486	0.01923
3514.00620	0.01943
3512.07755	0.01965
3510.14890	0.01978
3508.22024	0.01981
3506.29159	0.01988
3504.36294	0.02011
3502.43428	0.02036
3500.50563	0.02045
3498.57698	0.02053
3496.64832	0.02069
3494.71967	0.02082
3492.79102	0.02092
3490.86236	0.02109
3488.93371	0.02127
3487.00506	0.02137
3485.07641	0.02141
3483.14775	0.02142
3481.21910	0.02147
3479.29045	0.02163
3477.36179	0.02188
3475.43314	0.02209
3473.50449	0.02219
3471.57583	0.02232
3469.64718	0.02251
3467.71853	0.02267
3465.78987	0.02281
3463.86122	0.02295
3461.93257	0.02305
3460.00391	0.02317
3458.07526	0.02332
3456.14661	0.02352
3454.21795	0.02369
3452.28930	0.02377
3450.36065	0.02378
3448.43199	0.02381
3446.50334	0.02399
3444.57469	0.02431
3442.64603	0.02461
3440.71738	0.02476
3438.78873	0.02475
3436.86007	0.02471
3434.93142	0.02480
3433.00277	0.02498
3431.07411	0.02512
3429.14546	0.02526
3427.21681	0.02543
3425.28815	0.02557
3423.35950	0.02574
3421.43085	0.02596
3419.50219	0.02616
3417.57354	0.02627
3415.64489	0.02629
3413.71624	0.02633
3411.78758	0.02641
3409.85893	0.02651
3407.93028	0.02666
3406.00162	0.02689
3404.07297	0.02707
3402.14432	0.02715
3400.21566	0.02731
3398.28701	0.02758
3396.35836	0.02778
3394.42970	0.02787
3392.50105	0.02796
3390.57240	0.02809
3388.64374	0.02820
3386.71509	0.02825
3384.78644	0.02830
3382.85778	0.02847
3380.92913	0.02867
3379.00048	0.02875
3377.07182	0.02879
3375.14317	0.02894
3373.21452	0.02920
3371.28586	0.02947
3369.35721	0.02967
3367.42856	0.02984
3365.49990	0.03008
3363.57125	0.03037
3361.64260	0.03062
3359.71394	0.03086
3357.78529	0.03099
3355.85664	0.03102
3353.92798	0.03120
3351.99933	0.03153
3350.07068	0.03172
3348.14202	0.03184
3346.21337	0.03206
3344.28472	0.03233
3342.35607	0.03257
3340.42741	0.03284
3338.49876	0.03318
3336.57011	0.03351
3334.64145	0.03369
3332.71280	0.03376
3330.78415	0.03389
3328.85549	0.03405
3326.92684	0.03416
3324.99819	0.03420
3323.06953	0.03422
3321.14088	0.03435
3319.21223	0.03462
3317.28357	0.03485
3315.35492	0.03492
3313.42627	0.03495
3311.49761	0.03509
3309.56896	0.03526
3307.64031	0.03540
3305.71165	0.03553
3303.78300	0.03567
3301.85435	0.03578
3299.92569	0.03584
3297.99704	0.03590
3296.06839	0.03592
3294.13973	0.03586
3292.21108	0.03582
3290.28243	0.03586
3288.35377	0.03588
3286.42512	0.03584
3284.49647	0.03585
3282.56781	0.03592
3280.63916	0.03591
3278.71051	0.03580
3276.78186	0.03571
3274.85320	0.03565
3272.92455	0.03554
3270.99590	0.03531
3269.06724	0.03508
3267.13859	0.03500
3265.20994	0.03506
3263.28128	0.03511
3261.35263	0.03510
3259.42398	0.03509
3257.49532	0.03499
3255.56667	0.03482
3253.63802	0.03473
3251.70936	0.03478
3249.78071	0.03482
3247.85206	0.03470
3245.92340	0.03447
3243.99475	0.03426
3242.06610	0.03413
3240.13744	0.03405
3238.20879	0.03402
3236.28014	0.03394
3234.35148	0.03373
3232.42283	0.03348
3230.49418	0.03338
3228.56552	0.03343
3226.63687	0.03349
3224.70822	0.03341
3222.77956	0.03324
3220.85091	0.03308
3218.92226	0.03302
3216.99360	0.03302
3215.06495	0.03296
3213.13630	0.03285
3211.20764	0.03275
3209.27899	0.03268
3207.35034	0.03265
3205.42169	0.03264
3203.49303	0.03251
3201.56438	0.03227
3199.63573	0.03209
3197.70707	0.03204
3195.77842	0.03202
3193.84977	0.03195
3191.92111	0.03185
3189.99246	0.03175
3188.06381	0.03160
3186.13515	0.03141
3184.20650	0.03131
3182.27785	0.03124
3180.34919	0.03110
3178.42054	0.03090
3176.49189	0.03071
3174.56323	0.03050
3172.63458	0.03031
3170.70593	0.03020
3168.77727	0.03009
3166.84862	0.02990
3164.91997	0.02969
3162.99131	0.02947
3161.06266	0.02925
3159.13401	0.02907
3157.20535	0.02898
3155.27670	0.02891
3153.34805	0.02884
3151.41939	0.02872
3149.49074	0.02857
3147.56209	0.02839
3145.63343	0.02813
3143.70478	0.02786
3141.77613	0.02774
3139.84748	0.02773
3137.91882	0.02773
3135.99017	0.02766
3134.06152	0.02753
3132.13286	0.02741
3130.20421	0.02730
3128.27556	0.02722
3126.34690	0.02715
3124.41825	0.02705
3122.48960	0.02696
3120.56094	0.02691
3118.63229	0.02682
3116.70364	0.02668
3114.77498	0.02663
3112.84633	0.02668
3110.91768	0.02674
3108.98902	0.02673
3107.06037	0.02666
3105.13172	0.02661
3103.20306	0.02666
3101.27441	0.02675
3099.34576	0.02679
3097.41710	0.02681
3095.48845	0.02691
3093.55980	0.02711
3091.63114	0.02731
3089.70249	0.02738
3087.77384	0.02739
3085.84518	0.02740
3083.91653	0.02747
3081.98788	0.02754
3080.05922	0.02759
3078.13057	0.02760
3076.20192	0.02754
3074.27326	0.02746
3072.34461	0.02740
3070.41596	0.02734
3068.48731	0.02733
3066.55865	0.02739
3064.63000	0.02740
3062.70135	0.02728
3060.77269	0.02720
3058.84404	0.02725
3056.91539	0.02718
3054.98673	0.02691
3053.05808	0.02663
3051.12943	0.02651
3049.20077	0.02649
3047.27212	0.02646
3045.34347	0.02635
3043.41481	0.02616
3041.48616	0.02596
3039.55751	0.02583
3037.62885	0.02576
3035.70020	0.02571
3033.77155	0.02561
3031.84289	0.02541
3029.91424	0.02519
3027.98559	0.02503
3026.05693	0.02484
3024.12828	0.02460
3022.19963	0.02446
3020.27097	0.02449
3018.34232	0.02450
3016.41367	0.02441
3014.48501	0.02428
3012.55636	0.02421
3010.62771	0.02424
3008.69905	0.02427
3006.77040	0.02426
3004.84175	0.02423
3002.91309	0.02418
3000.98444	0.02411
2999.05579	0.02406
2997.12714	0.02405
2995.19848	0.02401
2993.26983	0.02401
2991.34118	0.02417
2989.41252	0.02439
2987.48387	0.02446
2985.55522	0.02448
2983.62656	0.02465
2981.69791	0.02486
2979.76926	0.02498
2977.84060	0.02511
2975.91195	0.02532
2973.98330	0.02548
2972.05464	0.02558
2970.12599	0.02567
2968.19734	0.02577
2966.26868	0.02589
2964.34003	0.02603
2962.41138	0.02614
2960.48272	0.02620
2958.55407	0.02624
2956.62542	0.02630
2954.69676	0.02635
2952.76811	0.02637
2950.83946	0.02637
2948.91080	0.02639
2946.98215	0.02651
2945.05350	0.02670
2943.12484	0.02684
2941.19619	0.02692
2939.26754	0.02703
2937.33888	0.02718
2935.41023	0.02734
2933.48158	0.02750
2931.55293	0.02771
2929.62427	0.02797
2927.69562	0.02814
2925.76697	0.02820
2923.83831	0.02823
2921.90966	0.02823
2919.98101	0.02816
2918.05235	0.02802
2916.12370	0.02772
2914.19505	0.02722
2912.26639	0.02667
2910.33774	0.02625
2908.40909	0.02600
2906.48043	0.02578
2904.55178	0.02539
2902.62313	0.02497
2900.69447	0.02474
2898.76582	0.02467
2896.83717	0.02461
2894.90851	0.02451
2892.97986	0.02440
2891.05121	0.02426
2889.12255	0.02413
2887.19390	0.02404
2885.26525	0.02397
2883.33659	0.02396
2881.40794	0.02401
2879.47929	0.02401
2877.55063	0.02395
2875.62198	0.02398
2873.69333	0.02411
2871.76467	0.02413
2869.83602	0.02400
2867.90737	0.02376
2865.97871	0.02350
2864.05006	0.02338
2862.12141	0.02342
2860.19276	0.02348
2858.26410	0.02348
2856.33545	0.02348
2854.40680	0.02354
2852.47814	0.02362
2850.54949	0.02352
2848.62084	0.02322
2846.69218	0.02286
2844.76353	0.02254
2842.83488	0.02222
2840.90622	0.02193
2838.97757	0.02173
2837.04892	0.02150
2835.12026	0.02123
2833.19161	0.02098
2831.26296	0.02081
2829.33430	0.02077
2827.40565	0.02083
2825.47700	0.02086
2823.54834	0.02077
2821.61969	0.02065
2819.69104	0.02055
2817.76238	0.02046
2815.83373	0.02042
2813.90508	0.02045
2811.97642	0.02047
2810.04777	0.02043
2808.11912	0.02033
2806.19046	0.02024
2804.26181	0.02016
2802.33316	0.02007
2800.40450	0.01996
2798.47585	0.01984
2796.54720	0.01977
2794.61855	0.01971
2792.68989	0.01965
2790.76124	0.01963
2788.83259	0.01964
2786.90393	0.01958
2784.97528	0.01945
2783.04663	0.01938
2781.11797	0.01940
2779.18932	0.01943
2777.26067	0.01940
2775.33201	0.01928
2773.40336	0.01914
2771.47471	0.01905
2769.54605	0.01895
2767.61740	0.01887
2765.68875	0.01887
2763.76009	0.01891
2761.83144	0.01884
2759.90279	0.01870
2757.97413	0.01866
2756.04548	0.01872
2754.11683	0.01872
2752.18817	0.01861
2750.25952	0.01850
2748.33087	0.01846
2746.40221	0.01845
2744.47356	0.01843
2742.54491	0.01843
2740.61625	0.01840
2738.68760	0.01828
2736.75895	0.01818
2734.83029	0.01815
2732.90164	0.01813
2730.97299	0.01811
2729.04433	0.01808
2727.11568	0.01802
2725.18703	0.01798
2723.25838	0.01796
2721.32972	0.01793
2719.40107	0.01785
2717.47242	0.01774
2715.54376	0.01768
2713.61511	0.01764
2711.68646	0.01759
2709.75780	0.01759
2707.82915	0.01759
2705.90050	0.01752
2703.97184	0.01742
2702.04319	0.01736
2700.11454	0.01738
2698.18588	0.01738
2696.25723	0.01728
2694.32858	0.01719
2692.39992	0.01718
2690.47127	0.01725
2688.54262	0.01730
2686.61396	0.01723
2684.68531	0.01713
2682.75666	0.01706
2680.82800	0.01704
2678.89935	0.01704
2676.97070	0.01705
2675.04204	0.01702
2673.11339	0.01700
2671.18474	0.01702
2669.25608	0.01705
2667.32743	0.01705
2665.39878	0.01704
2663.47012	0.01705
2661.54147	0.01709
2659.61282	0.01710
2657.68417	0.01703
2655.75551	0.01692
2653.82686	0.01685
2651.89821	0.01681
2649.96955	0.01675
2648.04090	0.01663
2646.11225	0.01650
2644.18359	0.01646
2642.25494	0.01650
2640.32629	0.01651
2638.39763	0.01640
2636.46898	0.01624
2634.54033	0.01610
2632.61167	0.01602
2630.68302	0.01599
2628.75437	0.01594
2626.82571	0.01590
2624.89706	0.01586
2622.96841	0.01577
2621.03975	0.01568
2619.11110	0.01564
2617.18245	0.01555
2615.25379	0.01543
2613.32514	0.01537
2611.39649	0.01535
2609.46783	0.01529
2607.53918	0.01514
2605.61053	0.01497
2603.68187	0.01491
2601.75322	0.01497
2599.82457	0.01504
2597.89591	0.01501
2595.96726	0.01489
2594.03861	0.01469
2592.10995	0.01450
2590.18130	0.01438
2588.25265	0.01427
2586.32400	0.01416
2584.39534	0.01415
2582.46669	0.01429
2580.53804	0.01446
2578.60938	0.01451
2576.68073	0.01447
2574.75208	0.01438
2572.82342	0.01426
2570.89477	0.01415
2568.96612	0.01403
2567.03746	0.01398
2565.10881	0.01401
2563.18016	0.01407
2561.25150	0.01410
2559.32285	0.01408
2557.39420	0.01402
2555.46554	0.01400
2553.53689	0.01397
2551.60824	0.01387
2549.67958	0.01379
2547.75093	0.01384
2545.82228	0.01393
2543.89362	0.01389
2541.96497	0.01368
2540.03632	0.01339
2538.10766	0.01325
2536.17901	0.01332
2534.25036	0.01345
2532.32170	0.01350
2530.39305	0.01347
2528.46440	0.01338
2526.53574	0.01334
2524.60709	0.01343
2522.67844	0.01347
2520.74978	0.01337
2518.82113	0.01333
2516.89248	0.01345
2514.96383	0.01359
2513.03517	0.01355
2511.10652	0.01334
2509.17787	0.01313
2507.24921	0.01306
2505.32056	0.01316
2503.39191	0.01330
2501.46325	0.01343
2499.53460	0.01354
2497.60595	0.01355
2495.67729	0.01348
2493.74864	0.01332
2491.81999	0.01309
2489.89133	0.01293
2487.96268	0.01283
2486.03403	0.01276
2484.10537	0.01274
2482.17672	0.01278
2480.24807	0.01289
2478.31941	0.01298
2476.39076	0.01291
2474.46211	0.01273
2472.53345	0.01264
2470.60480	0.01273
2468.67615	0.01285
2466.74749	0.01290
2464.81884	0.01294
2462.89019	0.01293
2460.96153	0.01286
2459.03288	0.01286
2457.10423	0.01289
2455.17557	0.01284
2453.24692	0.01283
2451.31827	0.01288
2449.38962	0.01282
2447.46096	0.01281
2445.53231	0.01297
2443.60366	0.01302
2441.67500	0.01288
2439.74635	0.01279
2437.81770	0.01284
2435.88904	0.01295
2433.96039	0.01303
2432.03174	0.01291
2430.10308	0.01267
2428.17443	0.01257
2426.24578	0.01264
2424.31712	0.01273
2422.38847	0.01277
2420.45982	0.01274
2418.53116	0.01268
2416.60251	0.01264
2414.67386	0.01261
2412.74520	0.01263
2410.81655	0.01268
2408.88790	0.01268
2406.95924	0.01267
2405.03059	0.01268
2403.10194	0.01268
2401.17328	0.01274
2399.24463	0.01280
2397.31598	0.01282
2395.38732	0.01272
2393.45867	0.01261
2391.53002	0.01261
2389.60136	0.01265
2387.67271	0.01267
2385.74406	0.01269
2383.81540	0.01275
2381.88675	0.01280
2379.95810	0.01282
2378.02945	0.01289
2376.10079	0.01307
2374.17214	0.01324
2372.24349	0.01320
2370.31483	0.01272
2368.38618	0.01310
2366.45753	0.01310
2364.52887	0.01330
2362.60022	0.01314
2360.67157	0.01347
2358.74291	0.01282
2356.81426	0.01352
2354.88561	0.01353
2352.95695	0.01332
2351.02830	0.01356
2349.09965	0.01352
2347.17099	0.01363
2345.24234	0.01371
2343.31369	0.01370
2341.38503	0.01328
2339.45638	0.01284
2337.52773	0.01322
2335.59907	0.01370
2333.67042	0.01358
2331.74177	0.01340
2329.81311	0.01337
2327.88446	0.01351
2325.95581	0.01386
2324.02715	0.01411
2322.09850	0.01396
2320.16985	0.01362
2318.24119	0.01335
2316.31254	0.01317
2314.38389	0.01310
2312.45524	0.01310
2310.52658	0.01310
2308.59793	0.01304
2306.66928	0.01289
2304.74062	0.01273
2302.81197	0.01267
2300.88332	0.01261
2298.95466	0.01254
2297.02601	0.01242
2295.09736	0.01234
2293.16870	0.01235
2291.24005	0.01244
2289.31140	0.01251
2287.38274	0.01248
2285.45409	0.01232
2283.52544	0.01211
2281.59678	0.01193
2279.66813	0.01178
2277.73948	0.01165
2275.81082	0.01145
2273.88217	0.01125
2271.95352	0.01125
2270.02486	0.01134
2268.09621	0.01124
2266.16756	0.01104
2264.23890	0.01092
2262.31025	0.01086
2260.38160	0.01074
2258.45294	0.01058
2256.52429	0.01048
2254.59564	0.01038
2252.66698	0.01017
2250.73833	0.01011
2248.80968	0.01038
2246.88102	0.01057
2244.95237	0.01054
2243.02372	0.01031
2241.09507	0.01007
2239.16641	0.00988
2237.23776	0.00969
2235.30911	0.00960
2233.38045	0.00962
2231.45180	0.00951
2229.52315	0.00929
2227.59449	0.00930
2225.66584	0.00950
2223.73719	0.00940
2221.80853	0.00906
2219.87988	0.00899
2217.95123	0.00913
2216.02257	0.00924
2214.09392	0.00924
2212.16527	0.00918
2210.23661	0.00920
2208.30796	0.00927
2206.37931	0.00909
2204.45065	0.00876
2202.52200	0.00848
2200.59335	0.00831
2198.66469	0.00838
2196.73604	0.00854
2194.80739	0.00846
2192.87873	0.00817
2190.95008	0.00789
2189.02143	0.00775
2187.09277	0.00765
2185.16412	0.00750
2183.23547	0.00741
2181.30681	0.00759
2179.37816	0.00801
2177.44951	0.00831
2175.52085	0.00809
2173.59220	0.00770
2171.66355	0.00758
2169.73490	0.00729
2167.80624	0.00691
2165.87759	0.00735
2163.94894	0.00832
2162.02028	0.00824
2160.09163	0.00670
2158.16298	0.00542
2156.23432	0.00562
2154.30567	0.00636
2152.37702	0.00686
2150.44836	0.00720
2148.51971	0.00741
2146.59106	0.00758
2144.66240	0.00777
2142.73375	0.00781
2140.80510	0.00775
2138.87644	0.00789
2136.94779	0.00811
2135.01914	0.00823
2133.09048	0.00836
2131.16183	0.00858
2129.23318	0.00883
2127.30452	0.00913
2125.37587	0.00944
2123.44722	0.00956
2121.51856	0.00942
2119.58991	0.00945
2117.66126	0.00983
2115.73260	0.01003
2113.80395	0.00978
2111.87530	0.00938
2109.94664	0.00918
2108.01799	0.00924
2106.08934	0.00946
2104.16069	0.00964
2102.23203	0.00966
2100.30338	0.00959
2098.37473	0.00966
2096.44607	0.00957
2094.51742	0.00922
2092.58877	0.00893
2090.66011	0.00891
2088.73146	0.00902
2086.80281	0.00919
2084.87415	0.00942
2082.94550	0.00960
2081.01685	0.00958
2079.08819	0.00939
2077.15954	0.00922
2075.23089	0.00920
2073.30223	0.00938
2071.37358	0.00949
2069.44493	0.00923
2067.51627	0.00874
2065.58762	0.00853
2063.65897	0.00862
2061.73031	0.00858
2059.80166	0.00820
2057.87301	0.00776
2055.94435	0.00753
2054.01570	0.00750
2052.08705	0.00764
2050.15839	0.00804
2048.22974	0.00847
2046.30109	0.00873
2044.37243	0.00874
2042.44378	0.00835
2040.51513	0.00773
2038.58647	0.00717
2036.65782	0.00658
2034.72917	0.00617
2032.80052	0.00620
2030.87186	0.00624
2028.94321	0.00609
2027.01456	0.00612
2025.08590	0.00658
2023.15725	0.00735
2021.22860	0.00785
2019.29994	0.00752
2017.37129	0.00659
2015.44264	0.00615
2013.51398	0.00688
2011.58533	0.00784
2009.65668	0.00782
2007.72802	0.00700
2005.79937	0.00623
2003.87072	0.00596
2001.94206	0.00611
2000.01341	0.00656
1998.08476	0.00724
1996.15610	0.00779
1994.22745	0.00767
1992.29880	0.00695
1990.37014	0.00626
1988.44149	0.00625
1986.51284	0.00698
1984.58418	0.00767
1982.65553	0.00760
1980.72688	0.00745
1978.79822	0.00794
1976.86957	0.00850
1974.94092	0.00855
1973.01226	0.00811
1971.08361	0.00755
1969.15496	0.00729
1967.22631	0.00720
1965.29765	0.00697
1963.36900	0.00676
1961.44035	0.00666
1959.51169	0.00668
1957.58304	0.00691
1955.65439	0.00736
1953.72573	0.00787
1951.79708	0.00811
1949.86843	0.00801
1947.93977	0.00787
1946.01112	0.00797
1944.08247	0.00817
1942.15381	0.00839
1940.22516	0.00875
1938.29651	0.00897
1936.36785	0.00872
1934.43920	0.00833
1932.51055	0.00825
1930.58189	0.00844
1928.65324	0.00873
1926.72459	0.00896
1924.79593	0.00899
1922.86728	0.00881
1920.93863	0.00866
1919.00997	0.00867
1917.08132	0.00884
1915.15267	0.00895
1913.22401	0.00893
1911.29536	0.00904
1909.36671	0.00924
1907.43805	0.00937
1905.50940	0.00940
1903.58075	0.00936
1901.65209	0.00927
1899.72344	0.00914
1897.79479	0.00903
1895.86614	0.00904
1893.93748	0.00919
1892.00883	0.00927
1890.08018	0.00914
1888.15152	0.00905
1886.22287	0.00915
1884.29422	0.00927
1882.36556	0.00924
1880.43691	0.00910
1878.50826	0.00901
1876.57960	0.00902
1874.65095	0.00923
1872.72230	0.00955
1870.79364	0.00959
1868.86499	0.00931
1866.93634	0.00903
1865.00768	0.00885
1863.07903	0.00881
1861.15038	0.00889
1859.22172	0.00900
1857.29307	0.00910
1855.36442	0.00917
1853.43576	0.00919
1851.50711	0.00920
1849.57846	0.00922
1847.64980	0.00923
1845.72115	0.00916
1843.79250	0.00911
1841.86384	0.00917
1839.93519	0.00916
1838.00654	0.00913
1836.07788	0.00919
1834.14923	0.00925
1832.22058	0.00928
1830.29192	0.00931
1828.36327	0.00943
1826.43462	0.00944
1824.50597	0.00936
1822.57731	0.00939
1820.64866	0.00945
1818.72001	0.00935
1816.79135	0.00913
1814.86270	0.00903
1812.93405	0.00905
1811.00539	0.00908
1809.07674	0.00907
1807.14809	0.00900
1805.21943	0.00895
1803.29078	0.00898
1801.36213	0.00905
1799.43347	0.00918
1797.50482	0.00937
1795.57617	0.00955
1793.64751	0.00951
1791.71886	0.00936
1789.79021	0.00936
1787.86155	0.00943
1785.93290	0.00941
1784.00425	0.00937
1782.07559	0.00934
1780.14694	0.00927
1778.21829	0.00926
1776.28963	0.00930
1774.36098	0.00927
1772.43233	0.00922
1770.50367	0.00927
1768.57502	0.00916
1766.64637	0.00907
1764.71771	0.00910
1762.78906	0.00911
1760.86041	0.00923
1758.93176	0.00935
1757.00310	0.00934
1755.07445	0.00936
1753.14580	0.00931
1751.21714	0.00928
1749.28849	0.00942
1747.35984	0.00953
1745.43118	0.00959
1743.50253	0.00966
1741.57388	0.00973
1739.64522	0.00987
1737.71657	0.01021
1735.78792	0.01029
1733.85926	0.01023
1731.93061	0.01043
1730.00196	0.01047
1728.07330	0.01043
1726.14465	0.01051
1724.21600	0.01068
1722.28734	0.01102
1720.35869	0.01141
1718.43004	0.01165
1716.50138	0.01202
1714.57273	0.01248
1712.64408	0.01286
1710.71542	0.01337
1708.78677	0.01413
1706.85812	0.01511
1704.92946	0.01639
1703.00081	0.01784
1701.07216	0.01913
1699.14350	0.02073
1697.21485	0.02225
1695.28620	0.02363
1693.35754	0.02534
1691.42889	0.02682
1689.50024	0.02834
1687.57159	0.03011
1685.64293	0.03176
1683.71428	0.03362
1681.78563	0.03569
1679.85697	0.03760
1677.92832	0.03965
1675.99967	0.04180
1674.07101	0.04417
1672.14236	0.04661
1670.21371	0.04892
1668.28505	0.05132
1666.35640	0.05370
1664.42775	0.05586
1662.49909	0.05793
1660.57044	0.06000
1658.64179	0.06196
1656.71313	0.06383
1654.78448	0.06522
1652.85583	0.06631
1650.92717	0.06763
1648.99852	0.06850
1647.06987	0.06904
1645.14121	0.06983
1643.21256	0.07065
1641.28391	0.07131
1639.35525	0.07198
1637.42660	0.07246
1635.49795	0.07275
1633.56929	0.07308
1631.64064	0.07305
1629.71199	0.07255
1627.78333	0.07181
1625.85468	0.07084
1623.92603	0.06948
1621.99738	0.06795
1620.06872	0.06630
1618.14007	0.06429
1616.21142	0.06215
1614.28276	0.06016
1612.35411	0.05801
1610.42546	0.05586
1608.49680	0.05382
1606.56815	0.05189
1604.63950	0.05011
1602.71084	0.04848
1600.78219	0.04701
1598.85354	0.04568
1596.92488	0.04450
1594.99623	0.04351
1593.06758	0.04275
1591.13892	0.04222
1589.21027	0.04189
1587.28162	0.04172
1585.35296	0.04172
1583.42431	0.04194
1581.49566	0.04240
1579.56700	0.04312
1577.63835	0.04380
1575.70970	0.04459
1573.78104	0.04573
1571.85239	0.04674
1569.92374	0.04774
1567.99508	0.04903
1566.06643	0.05037
1564.13778	0.05183
1562.20912	0.05344
1560.28047	0.05487
1558.35182	0.05640
1556.42316	0.05786
1554.49451	0.05882
1552.56586	0.05971
1550.63721	0.06055
1548.70855	0.06129
1546.77990	0.06202
1544.85125	0.06270
1542.92259	0.06332
1540.99394	0.06360
1539.06529	0.06374
1537.13663	0.06381
1535.20798	0.06335
1533.27933	0.06265
1531.35067	0.06212
1529.42202	0.06157
1527.49337	0.06100
1525.56471	0.06055
1523.63606	0.06005
1521.70741	0.05932
1519.77875	0.05871
1517.85010	0.05800
1515.92145	0.05708
1513.99279	0.05608
1512.06414	0.05503
1510.13549	0.05415
1508.20683	0.05310
1506.27818	0.05186
1504.34953	0.05072
1502.42087	0.04943
1500.49222	0.04809
1498.56357	0.04687
1496.63491	0.04563
1494.70626	0.04451
1492.77761	0.04345
1490.84895	0.04234
1488.92030	0.04142
1486.99165	0.04069
1485.06299	0.04021
1483.13434	0.04002
1481.20569	0.04010
1479.27704	0.04042
1477.34838	0.04089
1475.41973	0.04150
1473.49108	0.04219
1471.56242	0.04309
1469.63377	0.04411
1467.70512	0.04502
1465.77646	0.04583
1463.84781	0.04674
1461.91916	0.04783
1459.99050	0.04899
1458.06185	0.05004
1456.13320	0.05112
1454.20454	0.05212
1452.27589	0.05264
1450.34724	0.05290
1448.41858	0.05300
1446.48993	0.05301
1444.56128	0.05288
1442.63262	0.05258
1440.70397	0.05220
1438.77532	0.05168
1436.84666	0.05099
1434.91801	0.05035
1432.98936	0.04962
1431.06070	0.04887
1429.13205	0.04833
1427.20340	0.04800
1425.27474	0.04784
1423.34609	0.04795
1421.41744	0.04808
1419.48878	0.04808
1417.56013	0.04823
1415.63148	0.04839
1413.70283	0.04853
1411.77417	0.04874
1409.84552	0.04901
1407.91687	0.04924
1405.98821	0.04933
1404.05956	0.04936
1402.13091	0.04937
1400.20225	0.04921
1398.27360	0.04893
1396.34495	0.04855
1394.41629	0.04810
1392.48764	0.04772
1390.55899	0.04731
1388.63033	0.04680
1386.70168	0.04629
1384.77303	0.04581
1382.84437	0.04528
1380.91572	0.04478
1378.98707	0.04428
1377.05841	0.04372
1375.12976	0.04308
1373.20111	0.04241
1371.27245	0.04175
1369.34380	0.04105
1367.41515	0.04033
1365.48649	0.03959
1363.55784	0.03880
1361.62919	0.03807
1359.70053	0.03759
1357.77188	0.03738
1355.84323	0.03743
1353.91457	0.03760
1351.98592	0.03778
1350.05727	0.03802
1348.12861	0.03841
1346.19996	0.03894
1344.27131	0.03951
1342.34266	0.04001
1340.41400	0.04033
1338.48535	0.04052
1336.55670	0.04061
1334.62804	0.04055
1332.69939	0.04035
1330.77074	0.03999
1328.84208	0.03951
1326.91343	0.03902
1324.98478	0.03863
1323.05612	0.03837
1321.12747	0.03820
1319.19882	0.03801
1317.27016	0.03781
1315.34151	0.03769
1313.41286	0.03755
1311.48420	0.03728
1309.55555	0.03694
1307.62690	0.03673
1305.69824	0.03665
1303.76959	0.03654
1301.84094	0.03626
1299.91228	0.03593
1297.98363	0.03570
1296.05498	0.03564
1294.12632	0.03575
1292.19767	0.03603
1290.26902	0.03639
1288.34036	0.03678
1286.41171	0.03717
1284.48306	0.03752
1282.55440	0.03782
1280.62575	0.03806
1278.69710	0.03819
1276.76845	0.03826
1274.83979	0.03828
1272.91114	0.03829
1270.98249	0.03836
1269.05383	0.03854
1267.12518	0.03880
1265.19653	0.03911
1263.26787	0.03946
1261.33922	0.03986
1259.41057	0.04031
1257.48191	0.04076
1255.55326	0.04119
1253.62461	0.04168
1251.69595	0.04231
1249.76730	0.04307
1247.83865	0.04381
1245.90999	0.04451
1243.98134	0.04520
1242.05269	0.04584
1240.12403	0.04632
1238.19538	0.04663
1236.26673	0.04680
1234.33807	0.04675
1232.40942	0.04651
1230.48077	0.04612
1228.55211	0.04556
1226.62346	0.04478
1224.69481	0.04379
1222.76615	0.04271
1220.83750	0.04169
1218.90885	0.04081
1216.98019	0.04009
1215.05154	0.03958
1213.12289	0.03934
1211.19423	0.03933
1209.26558	0.03948
1207.33693	0.03974
1205.40828	0.04002
1203.47962	0.04026
1201.55097	0.04030
1199.62232	0.03985
1197.69366	0.03928
1195.76501	0.03861
1193.83636	0.03793
1191.90770	0.03727
1189.97905	0.03664
1188.05040	0.03607
1186.12174	0.03558
1184.19309	0.03521
1182.26444	0.03495
1180.33578	0.03475
1178.40713	0.03464
1176.47848	0.03472
1174.54982	0.03486
1172.62117	0.03497
1170.69252	0.03509
1168.76386	0.03524
1166.83521	0.03544
1164.90656	0.03574
1162.97790	0.03611
1161.04925	0.03640
1159.12060	0.03650
1157.19194	0.03650
1155.26329	0.03655
1153.33464	0.03659
1151.40598	0.03652
1149.47733	0.03639
1147.54868	0.03623
1145.62002	0.03608
1143.69137	0.03603
1141.76272	0.03608
1139.83406	0.03619
1137.90541	0.03641
1135.97676	0.03678
1134.04811	0.03723
1132.11945	0.03776
1130.19080	0.03849
1128.26215	0.03935
1126.33349	0.04023
1124.40484	0.04120
1122.47619	0.04229
1120.54753	0.04343
1118.61888	0.04460
1116.69023	0.04583
1114.76157	0.04694
1112.83292	0.04787
1110.90427	0.04885
1108.97561	0.05000
1107.04696	0.05109
1105.11831	0.05205
1103.18965	0.05305
1101.26100	0.05415
1099.33235	0.05524
1097.40369	0.05622
1095.47504	0.05707
1093.54639	0.05790
1091.61773	0.05879
1089.68908	0.05976
1087.76043	0.06084
1085.83177	0.06194
1083.90312	0.06283
1081.97447	0.06352
1080.04581	0.06412
1078.11716	0.06470
1076.18851	0.06535
1074.25985	0.06612
1072.33120	0.06678
1070.40255	0.06723
1068.47390	0.06767
1066.54524	0.06827
1064.61659	0.06900
1062.68794	0.06980
1060.75928	0.07058
1058.83063	0.07120
1056.90198	0.07166
1054.97332	0.07218
1053.04467	0.07287
1051.11602	0.07366
1049.18736	0.07444
1047.25871	0.07527
1045.33006	0.07625
1043.40140	0.07728
1041.47275	0.07824
1039.54410	0.07920
1037.61544	0.08031
1035.68679	0.08160
1033.75814	0.08302
1031.82948	0.08440
1029.90083	0.08550
1027.97218	0.08621
1026.04352	0.08663
1024.11487	0.08687
1022.18622	0.08705
1020.25756	0.08725
1018.32891	0.08746
1016.40026	0.08762
1014.47160	0.08761
1012.54295	0.08730
1010.61430	0.08668
1008.68564	0.08586
1006.75699	0.08496
1004.82834	0.08404
1002.89968	0.08315
1000.97103	0.08220
999.04238	0.08113
997.11373	0.07994
995.18507	0.07866
993.25642	0.07732
991.32777	0.07601
989.39911	0.07470
987.47046	0.07333
985.54181	0.07200
983.61315	0.07077
981.68450	0.06959
979.75585	0.06842
977.82719	0.06734
975.89854	0.06643
973.96989	0.06562
972.04123	0.06474
970.11258	0.06378
968.18393	0.06299
966.25527	0.06249
964.32662	0.06212
962.39797	0.06180
960.46931	0.06158
958.54066	0.06136
956.61201	0.06094
954.68335	0.06034
952.75470	0.05972
950.82605	0.05904
948.89739	0.05829
946.96874	0.05752
945.04009	0.05677
943.11143	0.05615
941.18278	0.05566
939.25413	0.05509
937.32547	0.05438
935.39682	0.05368
933.46817	0.05317
931.53952	0.05277
929.61086	0.05233
927.68221	0.05184
925.75356	0.05137
923.82490	0.05091
921.89625	0.05045
919.96760	0.05005
918.03894	0.04965
916.11029	0.04917
914.18164	0.04862
912.25298	0.04803
910.32433	0.04760
908.39568	0.04745
906.46702	0.04739
904.53837	0.04728
902.60972	0.04712
900.68106	0.04696
898.75241	0.04685
896.82376	0.04689
894.89510	0.04690
892.96645	0.04656
891.03780	0.04604
889.10914	0.04590
887.18049	0.04621
885.25184	0.04666
883.32318	0.04730
881.39453	0.04808
879.46588	0.04873
877.53722	0.04934
875.60857	0.05006
873.67992	0.05060
871.75126	0.05080
869.82261	0.05089
867.89396	0.05089
865.96530	0.05057
864.03665	0.05000
862.10800	0.04948
860.17935	0.04904
858.25069	0.04859
856.32204	0.04830
854.39339	0.04824
852.46473	0.04815
850.53608	0.04792
848.60743	0.04756
846.67877	0.04714
844.75012	0.04683
842.82147	0.04664
840.89281	0.04645
838.96416	0.04614
837.03551	0.04575
835.10685	0.04550
833.17820	0.04537
831.24955	0.04514
829.32089	0.04482
827.39224	0.04466
825.46359	0.04477
823.53493	0.04503
821.60628	0.04525
819.67763	0.04539
817.74897	0.04534
815.82032	0.04505
813.89167	0.04494
811.96301	0.04521
810.03436	0.04544
808.10571	0.04544
806.17705	0.04542
804.24840	0.04546
802.31975	0.04565
800.39109	0.04600
798.46244	0.04632
796.53379	0.04640
794.60513	0.04629
792.67648	0.04616
790.74783	0.04614
788.81918	0.04643
786.89052	0.04704
784.96187	0.04757
783.03322	0.04780
781.10456	0.04793
779.17591	0.04817
777.24726	0.04842
775.31860	0.04849
773.38995	0.04849
771.46130	0.04857
769.53264	0.04859
767.60399	0.04851
765.67534	0.04864
763.74668	0.04911
761.81803	0.04968
759.88938	0.05032
757.96072	0.05113
756.03207	0.05180
754.10342	0.05185
752.17476	0.05155
750.24611	0.05146
748.31746	0.05158
746.38880	0.05183
744.46015	0.05222
742.53150	0.05266
740.60284	0.05305
738.67419	0.05336
736.74554	0.05363
734.81688	0.05404
732.88823	0.05466
730.95958	0.05544
729.03092	0.05616
727.10227	0.05649
725.17362	0.05659
723.24497	0.05673
721.31631	0.05734
719.38766	0.05795
717.45901	0.05841
715.53035	0.05867
713.60170	0.05884
711.67305	0.05907
709.74439	0.05945
707.81574	0.05994
705.88709	0.06041
703.95843	0.06097
702.02978	0.06156
700.10113	0.06196
698.17247	0.06218
696.24382	0.06238
694.31517	0.06263
692.38651	0.06277
690.45786	0.06276
688.52921	0.06287
686.60055	0.06327
684.67190	0.06387
682.74325	0.06439
680.81459	0.06461
678.88594	0.06468
676.95729	0.06478
675.02863	0.06511
673.09998	0.06548
671.17133	0.06586
669.24267	0.06638
667.31402	0.06676
665.38537	0.06677
663.45671	0.06673
661.52806	0.06688
659.59941	0.06704
657.67075	0.06720
655.74210	0.06748
653.81345	0.06796
651.88480	0.06862
649.95614	0.06915
648.02749	0.06864
646.09884	0.06763
644.17018	0.06751
642.24153	0.06814
640.31288	0.06877
638.38422	0.06941
636.45557	0.06998
634.52692	0.07012
632.59826	0.07006
630.66961	0.06898
628.74096	0.06458
626.81230	0.06957
624.88365	0.07835
622.95500	0.08663
621.02634	0.08883
619.09769	0.08476
617.16904	0.08067
615.24038	0.07741
613.31173	0.07640
611.38308	0.08258
609.45442	0.09127
607.52577	0.09472
605.59712	0.09697
603.66846	0.10084
601.73981	0.10225
599.81116	0.10053
597.88250	0.09828
595.95385	0.09631
594.02520	0.09480
592.09654	0.09433
590.16789	0.09463
588.23924	0.09504
586.31059	0.09584
584.38193	0.09762
582.45328	0.09993
580.52463	0.10180
578.59597	0.10309
576.66732	0.10424
574.73867	0.10542
572.81001	0.10698
570.88136	0.10962
568.95271	0.11312
567.02405	0.11662
565.09540	0.11994
563.16675	0.12303
561.23809	0.12558
559.30944	0.12722
557.38079	0.12748
555.45213	0.12649
553.52348	0.12511
551.59483	0.12367
549.66617	0.12213
547.73752	0.12094
545.80887	0.12011
543.88021	0.11891
541.95156	0.11742
540.02291	0.11632
538.09425	0.11580
536.16560	0.11597
534.23695	0.11670
532.30829	0.11734
530.37964	0.11745
528.45099	0.11732
526.52233	0.11685
524.59368	0.11573
522.66503	0.11465
520.73637	0.11387
518.80772	0.11257
516.87907	0.11085
514.95042	0.10950
513.02176	0.10880
511.09311	0.10873
509.16446	0.10867
507.23580	0.10803
505.30715	0.10683
503.37850	0.10500
501.44984	0.10301
499.52119	0.10215
497.59254	0.10266
495.66388	0.10319
493.73523	0.10266
491.80658	0.10129
489.87792	0.10010
487.94927	0.09982
486.02062	0.10000
484.09196	0.09990
482.16331	0.09951
480.23466	0.09900
478.30600	0.09814
476.37735	0.09695
474.44870	0.09617
472.52004	0.09641
470.59139	0.09725
468.66274	0.09791
466.73408	0.09813
464.80543	0.09790
462.87678	0.09726
460.94812	0.09632
459.01947	0.09536
457.09082	0.09485
455.16216	0.09450
453.23351	0.09373
451.30486	0.09300
449.37620	0.09258
447.44755	0.09230
445.51890	0.09202
443.59025	0.09145
441.66159	0.09065
439.73294	0.09009
437.80429	0.08981
435.87563	0.08945
433.94698	0.08885
432.01833	0.08818
430.08967	0.08773
428.16102	0.08746
426.23237	0.08715
424.30371	0.08668
422.37506	0.08607
420.44641	0.08529
418.51775	0.08457
416.58910	0.08409
414.66045	0.08351
412.73179	0.08300
410.80314	0.08281
408.87449	0.08282
406.94583	0.08263
405.01718	0.08188
403.08853	0.08062
401.15987	0.07942
399.23122	0.07876
