3997.45528	0.05993
3996.16951	0.05926
3994.88374	0.05854
3993.59798	0.05812
3992.31221	0.05824
3991.02644	0.05865
3989.74067	0.05900
3988.45490	0.05918
3987.16913	0.05927
3985.88336	0.05930
3984.59759	0.05927
3983.31183	0.05927
3982.02606	0.05937
3980.74029	0.05945
3979.45452	0.05933
3978.16875	0.05908
3976.88298	0.05903
3975.59721	0.05937
3974.31144	0.05986
3973.02567	0.06013
3971.73991	0.06000
3970.45414	0.05957
3969.16837	0.05911
3967.88260	0.05891
3966.59683	0.05907
3965.31106	0.05939
3964.02529	0.05962
3962.73952	0.05971
3961.45376	0.05976
3960.16799	0.05977
3958.88222	0.05968
3957.59645	0.05946
3956.31068	0.05909
3955.02491	0.05848
3953.73914	0.05769
3952.45337	0.05712
3951.16760	0.05706
3949.88184	0.05736
3948.59607	0.05757
3947.31030	0.05760
3946.02453	0.05778
3944.73876	0.05835
3943.45299	0.05904
3942.16722	0.05936
3940.88145	0.05920
3939.59569	0.05892
3938.30992	0.05887
3937.02415	0.05904
3935.73838	0.05906
3934.45261	0.05873
3933.16684	0.05816
3931.88107	0.05769
3930.59530	0.05750
3929.30953	0.05749
3928.02377	0.05745
3926.73800	0.05726
3925.45223	0.05694
3924.16646	0.05652
3922.88069	0.05603
3921.59492	0.05560
3920.30915	0.05543
3919.02338	0.05549
3917.73762	0.05549
3916.45185	0.05517
3915.16608	0.05463
3913.88031	0.05428
3912.59454	0.05447
3911.30877	0.05523
3910.02300	0.05617
3908.73723	0.05673
3907.45146	0.05664
3906.16570	0.05619
3904.87993	0.05597
3903.59416	0.05626
3902.30839	0.05680
3901.02262	0.05721
3899.73685	0.05743
3898.45108	0.05755
3897.16531	0.05757
3895.87955	0.05737
3894.59378	0.05687
3893.30801	0.05617
3892.02224	0.05548
3890.73647	0.05503
3889.45070	0.05495
3888.16493	0.05519
3886.87916	0.05559
3885.59339	0.05600
3884.30763	0.05633
3883.02186	0.05655
3881.73609	0.05661
3880.45032	0.05645
3879.16455	0.05608
3877.87878	0.05558
3876.59301	0.05510
3875.30724	0.05477
3874.02148	0.05470
3872.73571	0.05492
3871.44994	0.05545
3870.16417	0.05620
3868.87840	0.05696
3867.59263	0.05740
3866.30686	0.05737
3865.02109	0.05698
3863.73532	0.05648
3862.44956	0.05605
3861.16379	0.05570
3859.87802	0.05534
3858.59225	0.05485
3857.30648	0.05418
3856.02071	0.05348
3854.73494	0.05303
3853.44917	0.05301
3852.16341	0.05339
3850.87764	0.05387
3849.59187	0.05417
3848.30610	0.05421
3847.02033	0.05417
3845.73456	0.05418
3844.44879	0.05420
3843.16302	0.05412
3841.87725	0.05399
3840.59149	0.05395
3839.30572	0.05406
3838.01995	0.05417
3836.73418	0.05402
3835.44841	0.05351
3834.16264	0.05290
3832.87687	0.05259
3831.59110	0.05265
3830.30534	0.05279
3829.01957	0.05268
3827.73380	0.05236
3826.44803	0.05223
3825.16226	0.05267
3823.87649	0.05370
3822.59072	0.05489
3821.30495	0.05563
3820.01918	0.05561
3818.73342	0.05494
3817.44765	0.05402
3816.16188	0.05314
3814.87611	0.05247
3813.59034	0.05207
3812.30457	0.05198
3811.01880	0.05214
3809.73303	0.05242
3808.44726	0.05260
3807.16150	0.05257
3805.87573	0.05237
3804.58996	0.05221
3803.30419	0.05221
3802.01842	0.05235
3800.73265	0.05247
3799.44688	0.05248
3798.16111	0.05240
3796.87535	0.05226
3795.58958	0.05212
3794.30381	0.05204
3793.01804	0.05207
3791.73227	0.05209
3790.44650	0.05189
3789.16073	0.05148
3787.87496	0.05115
3786.58919	0.05115
3785.30343	0.05144
3784.01766	0.05173
3782.73189	0.05177
3781.44612	0.05154
3780.16035	0.05110
3778.87458	0.05060
3777.58881	0.05022
3776.30304	0.05015
3775.01728	0.05050
3773.73151	0.05118
3772.44574	0.05200
3771.15997	0.05273
3769.87420	0.05312
3768.58843	0.05304
3767.30266	0.05250
3766.01689	0.05166
3764.73112	0.05071
3763.44536	0.04981
3762.15959	0.04909
3760.87382	0.04861
3759.58805	0.04832
3758.30228	0.04809
3757.01651	0.04792
3755.73074	0.04791
3754.44497	0.04815
3753.15921	0.04856
3751.87344	0.04896
3750.58767	0.04934
3749.30190	0.04991
3748.01613	0.05085
3746.73036	0.05200
3745.44459	0.05293
3744.15882	0.05332
3742.87305	0.05319
3741.58729	0.05272
3740.30152	0.05213
3739.01575	0.05150
3737.72998	0.05083
3736.44421	0.05002
3735.15844	0.04906
3733.87267	0.04814
3732.58690	0.04759
3731.30114	0.04766
3730.01537	0.04824
3728.72960	0.04888
3727.44383	0.04911
3726.15806	0.04878
3724.87229	0.04820
3723.58652	0.04772
3722.30075	0.04750
3721.01498	0.04749
3719.72922	0.04761
3718.44345	0.04785
3717.15768	0.04814
3715.87191	0.04835
3714.58614	0.04832
3713.30037	0.04792
3712.01460	0.04723
3710.72883	0.04652
3709.44307	0.04608
3708.15730	0.04600
3706.87153	0.04620
3705.58576	0.04664
3704.29999	0.04725
3703.01422	0.04798
3701.72845	0.04878
3700.44268	0.04947
3699.15691	0.04980
3697.87115	0.04978
3696.58538	0.04968
3695.29961	0.04965
3694.01384	0.04953
3692.72807	0.04911
3691.44230	0.04823
3690.15653	0.04712
3688.87076	0.04634
3687.58500	0.04617
3686.29923	0.04628
3685.01346	0.04636
3683.72769	0.04643
3682.44192	0.04668
3681.15615	0.04715
3679.87038	0.04758
3678.58461	0.04767
3677.29884	0.04742
3676.01308	0.04699
3674.72731	0.04664
3673.44154	0.04668
3672.15577	0.04731
3670.87000	0.04847
3669.58423	0.04963
3668.29846	0.05018
3667.01269	0.04995
3665.72693	0.04934
3664.44116	0.04893
3663.15539	0.04899
3661.86962	0.04939
3660.58385	0.04982
3659.29808	0.05001
3658.01231	0.04988
3656.72654	0.04969
3655.44077	0.04983
3654.15501	0.05050
3652.86924	0.05148
3651.58347	0.05238
3650.29770	0.05291
3649.01193	0.05301
3647.72616	0.05280
3646.44039	0.05247
3645.15462	0.05216
3643.86886	0.05200
3642.58309	0.05202
3641.29732	0.05224
3640.01155	0.05259
3638.72578	0.05296
3637.44001	0.05331
3636.15424	0.05367
3634.86847	0.05399
3633.58270	0.05410
3632.29694	0.05402
3631.01117	0.05401
3629.72540	0.05435
3628.43963	0.05493
3627.15386	0.05544
3625.86809	0.05577
3624.58232	0.05606
3623.29655	0.05641
3622.01079	0.05679
3620.72502	0.05709
3619.43925	0.05725
3618.15348	0.05721
3616.86771	0.05699
3615.58194	0.05675
3614.29617	0.05676
3613.01040	0.05720
3611.72463	0.05805
3610.43887	0.05904
3609.15310	0.05994
3607.86733	0.06076
3606.58156	0.06169
3605.29579	0.06276
3604.01002	0.06376
3602.72425	0.06446
3601.43848	0.06488
3600.15272	0.06518
3598.86695	0.06551
3597.58118	0.06592
3596.29541	0.06643
3595.00964	0.06687
3593.72387	0.06707
3592.43810	0.06712
3591.15233	0.06734
3589.86656	0.06783
3588.58080	0.06845
3587.29503	0.06898
3586.00926	0.06928
3584.72349	0.06944
3583.43772	0.06978
3582.15195	0.07048
3580.86618	0.07145
3579.58041	0.07254
3578.29464	0.07361
3577.00888	0.07450
3575.72311	0.07505
3574.43734	0.07527
3573.15157	0.07544
3571.86580	0.07591
3570.58003	0.07664
3569.29426	0.07721
3568.00849	0.07737
3566.72273	0.07731
3565.43696	0.07745
3564.15119	0.07785
3562.86542	0.07825
3561.57965	0.07848
3560.29388	0.07871
3559.00811	0.07924
3557.72234	0.08008
3556.43657	0.08099
3555.15081	0.08164
3553.86504	0.08194
3552.57927	0.08208
3551.29350	0.08236
3550.00773	0.08295
3548.72196	0.08374
3547.43619	0.08461
3546.15042	0.08547
3544.86466	0.08628
3543.57889	0.08693
3542.29312	0.08735
3541.00735	0.08767
3539.72158	0.08811
3538.43581	0.08874
3537.15004	0.08942
3535.86427	0.09002
3534.57850	0.09054
3533.29274	0.09107
3532.00697	0.09165
3530.72120	0.09226
3529.43543	0.09291
3528.14966	0.09362
3526.86389	0.09434
3525.57812	0.09495
3524.29235	0.09539
3523.00659	0.09573
3521.72082	0.09614
3520.43505	0.09665
3519.14928	0.09721
3517.86351	0.09772
3516.57774	0.09818
3515.29197	0.09860
3514.00620	0.09895
3512.72043	0.09916
3511.43467	0.09918
3510.14890	0.09905
3508.86313	0.09893
3507.57736	0.09911
3506.29159	0.09975
3505.00582	0.10069
3503.72005	0.10157
3502.43428	0.10213
3501.14852	0.10240
3499.86275	0.10266
3498.57698	0.10304
3497.29121	0.10356
3496.00544	0.10422
3494.71967	0.10507
3493.43390	0.10607
3492.14813	0.10694
3490.86236	0.10742
3489.57660	0.10744
3488.29083	0.10724
3487.00506	0.10718
3485.71929	0.10756
3484.43352	0.10842
3483.14775	0.10952
3481.86198	0.11046
3480.57621	0.11094
3479.29045	0.11093
3478.00468	0.11065
3476.71891	0.11042
3475.43314	0.11044
3474.14737	0.11074
3472.86160	0.11116
3471.57583	0.11155
3470.29006	0.11181
3469.00429	0.11206
3467.71853	0.11256
3466.43276	0.11345
3465.14699	0.11453
3463.86122	0.11542
3462.57545	0.11589
3461.28968	0.11598
3460.00391	0.11592
3458.71814	0.11595
3457.43238	0.11618
3456.14661	0.11653
3454.86084	0.11680
3453.57507	0.11693
3452.28930	0.11707
3451.00353	0.11746
3449.71776	0.11818
3448.43199	0.11910
3447.14622	0.11994
3445.86046	0.12042
3444.57469	0.12047
3443.28892	0.12032
3442.00315	0.12038
3440.71738	0.12080
3439.43161	0.12133
3438.14584	0.12166
3436.86007	0.12176
3435.57431	0.12196
3434.28854	0.12247
3433.00277	0.12311
3431.71700	0.12360
3430.43123	0.12392
3429.14546	0.12425
3427.85969	0.12468
3426.57392	0.12501
3425.28815	0.12511
3424.00239	0.12517
3422.71662	0.12557
3421.43085	0.12645
3420.14508	0.12752
3418.85931	0.12831
3417.57354	0.12857
3416.28777	0.12852
3415.00200	0.12860
3413.71624	0.12911
3412.43047	0.13001
3411.14470	0.13097
3409.85893	0.13167
3408.57316	0.13205
3407.28739	0.13229
3406.00162	0.13264
3404.71585	0.13328
3403.43008	0.13413
3402.14432	0.13489
3400.85855	0.13531
3399.57278	0.13542
3398.28701	0.13545
3397.00124	0.13559
3395.71547	0.13585
3394.42970	0.13620
3393.14393	0.13656
3391.85817	0.13686
3390.57240	0.13704
3389.28663	0.13718
3388.00086	0.13745
3386.71509	0.13793
3385.42932	0.13855
3384.14355	0.13914
3382.85778	0.13964
3381.57201	0.14005
3380.28625	0.14044
3379.00048	0.14092
3377.71471	0.14154
3376.42894	0.14234
3375.14317	0.14324
3373.85740	0.14417
3372.57163	0.14502
3371.28586	0.14568
3370.00010	0.14611
3368.71433	0.14638
3367.42856	0.14673
3366.14279	0.14737
3364.85702	0.14827
3363.57125	0.14922
3362.28548	0.15003
3360.99971	0.15070
3359.71394	0.15138
3358.42818	0.15221
3357.14241	0.15316
3355.85664	0.15411
3354.57087	0.15493
3353.28510	0.15553
3351.99933	0.15593
3350.71356	0.15624
3349.42779	0.15669
3348.14202	0.15746
3346.85626	0.15850
3345.57049	0.15955
3344.28472	0.16045
3342.99895	0.16121
3341.71318	0.16198
3340.42741	0.16280
3339.14164	0.16362
3337.85587	0.16433
3336.57011	0.16489
3335.28434	0.16533
3333.99857	0.16577
3332.71280	0.16635
3331.42703	0.16707
3330.14126	0.16779
3328.85549	0.16840
3327.56972	0.16890
3326.28395	0.16937
3324.99819	0.16989
3323.71242	0.17048
3322.42665	0.17116
3321.14088	0.17187
3319.85511	0.17252
3318.56934	0.17305
3317.28357	0.17351
3315.99780	0.17403
3314.71204	0.17466
3313.42627	0.17538
3312.14050	0.17616
3310.85473	0.17694
3309.56896	0.17763
3308.28319	0.17822
3306.99742	0.17878
3305.71165	0.17930
3304.42588	0.17972
3303.14012	0.17998
3301.85435	0.18019
3300.56858	0.18054
3299.28281	0.18111
3297.99704	0.18174
3296.71127	0.18218
3295.42550	0.18228
3294.13973	0.18208
3292.85397	0.18182
3291.56820	0.18175
3290.28243	0.18186
3288.99666	0.18195
3287.71089	0.18182
3286.42512	0.18156
3285.13935	0.18141
3283.85358	0.18150
3282.56781	0.18171
3281.28205	0.18183
3279.99628	0.18182
3278.71051	0.18181
3277.42474	0.18194
3276.13897	0.18215
3274.85320	0.18222
3273.56743	0.18196
3272.28166	0.18143
3270.99590	0.18085
3269.71013	0.18042
3268.42436	0.18013
3267.13859	0.17983
3265.85282	0.17934
3264.56705	0.17866
3263.28128	0.17795
3261.99551	0.17739
3260.70974	0.17697
3259.42398	0.17644
3258.13821	0.17558
3256.85244	0.17443
3255.56667	0.17323
3254.28090	0.17224
3252.99513	0.17162
3251.70936	0.17137
3250.42359	0.17145
3249.13783	0.17171
3247.85206	0.17192
3246.56629	0.17184
3245.28052	0.17136
3243.99475	0.17059
3242.70898	0.16978
3241.42321	0.16914
3240.13744	0.16859
3238.85167	0.16791
3237.56591	0.16700
3236.28014	0.16608
3234.99437	0.16546
3233.70860	0.16524
3232.42283	0.16515
3231.13706	0.16488
3229.85129	0.16435
3228.56552	0.16376
3227.27976	0.16325
3225.99399	0.16275
3224.70822	0.16215
3223.42245	0.16156
3222.13668	0.16119
3220.85091	0.16103
3219.56514	0.16089
3218.27937	0.16069
3216.99360	0.16056
3215.70784	0.16055
3214.42207	0.16059
3213.13630	0.16050
3211.85053	0.16018
3210.56476	0.15958
3209.27899	0.15882
3207.99322	0.15810
3206.70745	0.15759
3205.42169	0.15728
3204.13592	0.15701
3202.85015	0.15665
3201.56438	0.15612
3200.27861	0.15545
3198.99284	0.15473
3197.70707	0.15409
3196.42130	0.15365
3195.13553	0.15347
3193.84977	0.15341
3192.56400	0.15322
3191.27823	0.15275
3189.99246	0.15206
3188.70669	0.15136
3187.42092	0.15075
3186.13515	0.15027
3184.84938	0.14992
3183.56362	0.14965
3182.27785	0.14930
3180.99208	0.14874
3179.70631	0.14795
3178.42054	0.14693
3177.13477	0.14574
3175.84900	0.14453
3174.56323	0.14353
3173.27746	0.14291
3171.99170	0.14263
3170.70593	0.14250
3169.42016	0.14234
3168.13439	0.14199
3166.84862	0.14141
3165.56285	0.14064
3164.27708	0.13991
3162.99131	0.13945
3161.70555	0.13928
3160.41978	0.13912
3159.13401	0.13871
3157.84824	0.13804
3156.56247	0.13732
3155.27670	0.13672
3153.99093	0.13614
3152.70516	0.13538
3151.41939	0.13443
3150.13363	0.13348
3148.84786	0.13270
3147.56209	0.13208
3146.27632	0.13143
3144.99055	0.13066
3143.70478	0.12979
3142.41901	0.12892
3141.13324	0.12818
3139.84748	0.12767
3138.56171	0.12746
3137.27594	0.12746
3135.99017	0.12749
3134.70440	0.12743
3133.41863	0.12732
3132.13286	0.12720
3130.84709	0.12695
3129.56132	0.12645
3128.27556	0.12573
3126.98979	0.12504
3125.70402	0.12459
3124.41825	0.12439
3123.13248	0.12427
3121.84671	0.12406
3120.56094	0.12366
3119.27517	0.12317
3117.98940	0.12274
3116.70364	0.12243
3115.41787	0.12221
3114.13210	0.12200
3112.84633	0.12180
3111.56056	0.12174
3110.27479	0.12190
3108.98902	0.12220
3107.70325	0.12240
3106.41749	0.12243
3105.13172	0.12240
3103.84595	0.12249
3102.56018	0.12273
3101.27441	0.12303
3099.98864	0.12335
3098.70287	0.12373
3097.41710	0.12412
3096.13133	0.12441
3094.84557	0.12452
3093.55980	0.12449
3092.27403	0.12439
3090.98826	0.12428
3089.70249	0.12416
3088.41672	0.12409
3087.13095	0.12412
3085.84518	0.12425
3084.55942	0.12448
3083.27365	0.12484
3081.98788	0.12525
3080.70211	0.12561
3079.41634	0.12588
3078.13057	0.12614
3076.84480	0.12647
3075.55903	0.12681
3074.27326	0.12699
3072.98750	0.12690
3071.70173	0.12650
3070.41596	0.12588
3069.13019	0.12528
3067.84442	0.12495
3066.55865	0.12502
3065.27288	0.12533
3063.98711	0.12558
3062.70135	0.12556
3061.41558	0.12525
3060.12981	0.12474
3058.84404	0.12408
3057.55827	0.12330
3056.27250	0.12248
3054.98673	0.12177
3053.70096	0.12128
3052.41519	0.12097
3051.12943	0.12074
3049.84366	0.12048
3048.55789	0.12012
3047.27212	0.11964
3045.98635	0.11913
3044.70058	0.11878
3043.41481	0.11866
3042.12904	0.11861
3040.84328	0.11836
3039.55751	0.11779
3038.27174	0.11697
3036.98597	0.11610
3035.70020	0.11533
3034.41443	0.11471
3033.12866	0.11419
3031.84289	0.11369
3030.55712	0.11315
3029.27136	0.11256
3027.98559	0.11197
3026.69982	0.11146
3025.41405	0.11110
3024.12828	0.11086
3022.84251	0.11059
3021.55674	0.11014
3020.27097	0.10949
3018.98521	0.10874
3017.69944	0.10804
3016.41367	0.10748
3015.12790	0.10704
3013.84213	0.10673
3012.55636	0.10656
3011.27059	0.10653
3009.98482	0.10657
3008.69905	0.10654
3007.41329	0.10636
3006.12752	0.10602
3004.84175	0.10561
3003.55598	0.10525
3002.27021	0.10501
3000.98444	0.10497
2999.69867	0.10519
2998.41290	0.10564
2997.12714	0.10616
2995.84137	0.10654
2994.55560	0.10665
2993.26983	0.10655
2991.98406	0.10636
2990.69829	0.10621
2989.41252	0.10625
2988.12675	0.10657
2986.84098	0.10718
2985.55522	0.10795
2984.26945	0.10873
2982.98368	0.10949
2981.69791	0.11024
2980.41214	0.11099
2979.12637	0.11174
2977.84060	0.11244
2976.55483	0.11311
2975.26907	0.11372
2973.98330	0.11422
2972.69753	0.11463
2971.41176	0.11508
2970.12599	0.11570
2968.84022	0.11643
2967.55445	0.11715
2966.26868	0.11776
2964.98291	0.11828
2963.69715	0.11874
2962.41138	0.11915
2961.12561	0.11958
2959.83984	0.12010
2958.55407	0.12063
2957.26830	0.12097
2955.98253	0.12099
2954.69676	0.12081
2953.41100	0.12072
2952.12523	0.12084
2950.83946	0.12106
2949.55369	0.12121
2948.26792	0.12126
2946.98215	0.12124
2945.69638	0.12124
2944.41061	0.12135
2943.12484	0.12165
2941.83908	0.12212
2940.55331	0.12266
2939.26754	0.12325
2937.98177	0.12388
2936.69600	0.12443
2935.41023	0.12480
2934.12446	0.12504
2932.83869	0.12537
2931.55293	0.12585
2930.26716	0.12629
2928.98139	0.12651
2927.69562	0.12654
2926.40985	0.12653
2925.12408	0.12645
2923.83831	0.12616
2922.55254	0.12551
2921.26677	0.12457
2919.98101	0.12355
2918.69524	0.12264
2917.40947	0.12186
2916.12370	0.12112
2914.83793	0.12027
2913.55216	0.11927
2912.26639	0.11819
2910.98062	0.11721
2909.69486	0.11645
2908.40909	0.11586
2907.12332	0.11528
2905.83755	0.11449
2904.55178	0.11346
2903.26601	0.11236
2901.98024	0.11140
2900.69447	0.11067
2899.40870	0.11013
2898.12294	0.10974
2896.83717	0.10948
2895.55140	0.10927
2894.26563	0.10897
2892.97986	0.10852
2891.69409	0.10801
2890.40832	0.10762
2889.12255	0.10738
2887.83678	0.10723
2886.55102	0.10712
2885.26525	0.10706
2883.97948	0.10707
2882.69371	0.10717
2881.40794	0.10731
2880.12217	0.10740
2878.83640	0.10740
2877.55063	0.10736
2876.26487	0.10740
2874.97910	0.10750
2873.69333	0.10744
2872.40756	0.10703
2871.12179	0.10633
2869.83602	0.10558
2868.55025	0.10494
2867.26448	0.10441
2865.97871	0.10394
2864.69295	0.10356
2863.40718	0.10333
2862.12141	0.10324
2860.83564	0.10321
2859.54987	0.10317
2858.26410	0.10314
2856.97833	0.10316
2855.69256	0.10319
2854.40680	0.10309
2853.12103	0.10281
2851.83526	0.10237
2850.54949	0.10182
2849.26372	0.10116
2847.97795	0.10030
2846.69218	0.09921
2845.40641	0.09800
2844.12064	0.09696
2842.83488	0.09624
2841.54911	0.09579
2840.26334	0.09536
2838.97757	0.09477
2837.69180	0.09400
2836.40603	0.09318
2835.12026	0.09243
2833.83449	0.09183
2832.54873	0.09137
2831.26296	0.09106
2829.97719	0.09091
2828.69142	0.09092
2827.40565	0.09094
2826.11988	0.09080
2824.83411	0.09042
2823.54834	0.08990
2822.26257	0.08933
2820.97681	0.08882
2819.69104	0.08846
2818.40527	0.08828
2817.11950	0.08822
2815.83373	0.08813
2814.54796	0.08788
2813.26219	0.08745
2811.97642	0.08691
2810.69066	0.08638
2809.40489	0.08597
2808.11912	0.08573
2806.83335	0.08557
2805.54758	0.08541
2804.26181	0.08520
2802.97604	0.08498
2801.69027	0.08483
2800.40450	0.08474
2799.11874	0.08467
2797.83297	0.08456
2796.54720	0.08439
2795.26143	0.08419
2793.97566	0.08394
2792.68989	0.08366
2791.40412	0.08341
2790.11835	0.08321
2788.83259	0.08303
2787.54682	0.08284
2786.26105	0.08264
2784.97528	0.08252
2783.68951	0.08250
2782.40374	0.08253
2781.11797	0.08248
2779.83220	0.08228
2778.54643	0.08192
2777.26067	0.08149
2775.97490	0.08110
2774.68913	0.08083
2773.40336	0.08071
2772.11759	0.08063
2770.83182	0.08051
2769.54605	0.08036
2768.26028	0.08024
2766.97452	0.08013
2765.68875	0.07996
2764.40298	0.07965
2763.11721	0.07927
2761.83144	0.07894
2760.54567	0.07874
2759.25990	0.07864
2757.97413	0.07851
2756.68836	0.07830
2755.40260	0.07803
2754.11683	0.07778
2752.83106	0.07764
2751.54529	0.07762
2750.25952	0.07767
2748.97375	0.07769
2747.68798	0.07754
2746.40221	0.07724
2745.11645	0.07690
2743.83068	0.07670
2742.54491	0.07664
2741.25914	0.07656
2739.97337	0.07625
2738.68760	0.07568
2737.40183	0.07504
2736.11606	0.07457
2734.83029	0.07441
2733.54453	0.07453
2732.25876	0.07473
2730.97299	0.07486
2729.68722	0.07485
2728.40145	0.07475
2727.11568	0.07461
2725.82991	0.07442
2724.54414	0.07416
2723.25838	0.07384
2721.97261	0.07354
2720.68684	0.07330
2719.40107	0.07312
2718.11530	0.07297
2716.82953	0.07284
2715.54376	0.07275
2714.25799	0.07267
2712.97222	0.07256
2711.68646	0.07242
2710.40069	0.07228
2709.11492	0.07211
2707.82915	0.07186
2706.54338	0.07158
2705.25761	0.07135
2703.97184	0.07121
2702.68607	0.07113
2701.40031	0.07109
2700.11454	0.07106
2698.82877	0.07103
2697.54300	0.07097
2696.25723	0.07091
2694.97146	0.07089
2693.68569	0.07091
2692.39992	0.07093
2691.11415	0.07086
2689.82839	0.07066
2688.54262	0.07041
2687.25685	0.07018
2685.97108	0.07004
2684.68531	0.06997
2683.39954	0.06988
2682.11377	0.06971
2680.82800	0.06949
2679.54224	0.06931
2678.25647	0.06924
2676.97070	0.06929
2675.68493	0.06938
2674.39916	0.06944
2673.11339	0.06939
2671.82762	0.06926
2670.54185	0.06914
2669.25608	0.06907
2667.97032	0.06910
2666.68455	0.06919
2665.39878	0.06927
2664.11301	0.06929
2662.82724	0.06923
2661.54147	0.06914
2660.25570	0.06905
2658.96993	0.06894
2657.68417	0.06881
2656.39840	0.06866
2655.11263	0.06849
2653.82686	0.06832
2652.54109	0.06815
2651.25532	0.06796
2649.96955	0.06767
2648.68378	0.06717
2647.39801	0.06649
2646.11225	0.06586
2644.82648	0.06547
2643.54071	0.06532
2642.25494	0.06522
2640.96917	0.06505
2639.68340	0.06486
2638.39763	0.06471
2637.11186	0.06460
2635.82609	0.06447
2634.54033	0.06434
2633.25456	0.06424
2631.96879	0.06414
2630.68302	0.06398
2629.39725	0.06374
2628.11148	0.06351
2626.82571	0.06335
2625.53994	0.06321
2624.25418	0.06293
2622.96841	0.06241
2621.68264	0.06175
2620.39687	0.06119
2619.11110	0.06090
2617.82533	0.06090
2616.53956	0.06101
2615.25379	0.06101
2613.96802	0.06080
2612.68226	0.06043
2611.39649	0.06004
2610.11072	0.05970
2608.82495	0.05930
2607.53918	0.05886
2606.25341	0.05852
2604.96764	0.05840
2603.68187	0.05844
2602.39611	0.05845
2601.11034	0.05834
2599.82457	0.05818
2598.53880	0.05808
2597.25303	0.05817
2595.96726	0.05844
2594.68149	0.05871
2593.39572	0.05874
2592.10995	0.05856
2590.82419	0.05840
2589.53842	0.05835
2588.25265	0.05821
2586.96688	0.05778
2585.68111	0.05717
2584.39534	0.05660
2583.10957	0.05621
2581.82380	0.05599
2580.53804	0.05600
2579.25227	0.05625
2577.96650	0.05662
2576.68073	0.05686
2575.39496	0.05686
2574.10919	0.05666
2572.82342	0.05643
2571.53765	0.05627
2570.25188	0.05615
2568.96612	0.05596
2567.68035	0.05564
2566.39458	0.05529
2565.10881	0.05504
2563.82304	0.05494
2562.53727	0.05494
2561.25150	0.05491
2559.96573	0.05473
2558.67997	0.05435
2557.39420	0.05388
2556.10843	0.05353
2554.82266	0.05350
2553.53689	0.05377
2552.25112	0.05408
2550.96535	0.05419
2549.67958	0.05408
2548.39381	0.05392
2547.10805	0.05387
2545.82228	0.05397
2544.53651	0.05412
2543.25074	0.05416
2541.96497	0.05391
2540.67920	0.05335
2539.39343	0.05272
2538.10766	0.05228
2536.82190	0.05212
2535.53613	0.05213
2534.25036	0.05215
2532.96459	0.05204
2531.67882	0.05177
2530.39305	0.05140
2529.10728	0.05109
2527.82151	0.05100
2526.53574	0.05117
2525.24998	0.05147
2523.96421	0.05161
2522.67844	0.05143
2521.39267	0.05102
2520.10690	0.05067
2518.82113	0.05055
2517.53536	0.05067
2516.24959	0.05096
2514.96383	0.05133
2513.67806	0.05162
2512.39229	0.05170
2511.10652	0.05156
2509.82075	0.05130
2508.53498	0.05097
2507.24921	0.05056
2505.96344	0.05010
2504.67767	0.04974
2503.39191	0.04960
2502.10614	0.04970
2500.82037	0.04994
2499.53460	0.05022
2498.24883	0.05049
2496.96306	0.05059
2495.67729	0.05036
2494.39152	0.04979
2493.10576	0.04911
2491.81999	0.04860
2490.53422	0.04830
2489.24845	0.04814
2487.96268	0.04805
2486.67691	0.04802
2485.39114	0.04799
2484.10537	0.04787
2482.81960	0.04769
2481.53384	0.04759
2480.24807	0.04767
2478.96230	0.04794
2477.67653	0.04827
2476.39076	0.04850
2475.10499	0.04848
2473.81922	0.04828
2472.53345	0.04812
2471.24769	0.04811
2469.96192	0.04811
2468.67615	0.04791
2467.39038	0.04751
2466.10461	0.04715
2464.81884	0.04708
2463.53307	0.04732
2462.24730	0.04759
2460.96153	0.04761
2459.67577	0.04742
2458.39000	0.04734
2457.10423	0.04761
2455.81846	0.04810
2454.53269	0.04844
2453.24692	0.04839
2451.96115	0.04803
2450.67538	0.04759
2449.38962	0.04724
2448.10385	0.04698
2446.81808	0.04677
2445.53231	0.04658
2444.24654	0.04646
2442.96077	0.04648
2441.67500	0.04668
2440.38923	0.04695
2439.10346	0.04717
2437.81770	0.04723
2436.53193	0.04716
2435.24616	0.04708
2433.96039	0.04707
2432.67462	0.04711
2431.38885	0.04708
2430.10308	0.04693
2428.81731	0.04666
2427.53155	0.04636
2426.24578	0.04608
2424.96001	0.04583
2423.67424	0.04567
2422.38847	0.04567
2421.10270	0.04589
2419.81693	0.04624
2418.53116	0.04650
2417.24539	0.04656
2415.95963	0.04649
2414.67386	0.04643
2413.38809	0.04642
2412.10232	0.04640
2410.81655	0.04624
2409.53078	0.04586
2408.24501	0.04533
2406.95924	0.04487
2405.67347	0.04467
2404.38771	0.04478
2403.10194	0.04501
2401.81617	0.04516
2400.53040	0.04518
2399.24463	0.04510
2397.95886	0.04502
2396.67309	0.04497
2395.38732	0.04499
2394.10156	0.04511
2392.81579	0.04525
2391.53002	0.04530
2390.24425	0.04528
2388.95848	0.04529
2387.67271	0.04538
2386.38694	0.04548
2385.10117	0.04554
2383.81540	0.04555
2382.52964	0.04554
2381.24387	0.04551
2379.95810	0.04545
2378.67233	0.04534
2377.38656	0.04524
2376.10079	0.04520
2374.81502	0.04518
2373.52925	0.04529
2372.24349	0.04553
2370.95772	0.04584
2369.67195	0.04598
2368.38618	0.04603
2367.10041	0.04615
2365.81464	0.04639
2364.52887	0.04654
2363.24310	0.04656
2361.95733	0.04660
2360.67157	0.04696
2359.38580	0.04728
2358.10003	0.04732
2356.81426	0.04711
2355.52849	0.04678
2354.24272	0.04642
2352.95695	0.04626
2351.67118	0.04659
2350.38542	0.04707
2349.09965	0.04712
2347.81388	0.04685
2346.52811	0.04707
2345.24234	0.04745
2343.95657	0.04689
2342.67080	0.04575
2341.38503	0.04592
2340.09926	0.04724
2338.81350	0.04692
2337.52773	0.04500
2336.24196	0.04493
2334.95619	0.04630
2333.67042	0.04562
2332.38465	0.04369
2331.09888	0.04390
2329.81311	0.04423
2328.52735	0.04276
2327.24158	0.04326
2325.95581	0.04517
2324.67004	0.04555
2323.38427	0.04619
2322.09850	0.04743
2320.81273	0.04704
2319.52696	0.04680
2318.24119	0.04691
2316.95543	0.04620
2315.66966	0.04599
2314.38389	0.04608
2313.09812	0.04568
2311.81235	0.04541
2310.52658	0.04479
2309.24081	0.04400
2307.95504	0.04351
2306.66928	0.04301
2305.38351	0.04280
2304.09774	0.04271
2302.81197	0.04253
2301.52620	0.04228
2300.24043	0.04177
2298.95466	0.04121
2297.66889	0.04070
2296.38312	0.04034
2295.09736	0.04019
2293.81159	0.04020
2292.52582	0.04035
2291.24005	0.04047
2289.95428	0.04043
2288.66851	0.04028
2287.38274	0.04020
2286.09697	0.04027
2284.81121	0.04032
2283.52544	0.04016
2282.23967	0.03976
2280.95390	0.03930
2279.66813	0.03898
2278.38236	0.03890
2277.09659	0.03898
2275.81082	0.03896
2274.52505	0.03857
2273.23929	0.03783
2271.95352	0.03713
2270.66775	0.03677
2269.38198	0.03655
2268.09621	0.03609
2266.81044	0.03531
2265.52467	0.03454
2264.23890	0.03412
2262.95314	0.03421
2261.66737	0.03462
2260.38160	0.03496
2259.09583	0.03496
2257.81006	0.03466
2256.52429	0.03424
2255.23852	0.03377
2253.95275	0.03326
2252.66698	0.03270
2251.38122	0.03217
2250.09545	0.03208
2248.80968	0.03259
2247.52391	0.03248
2246.23814	0.03258
2244.95237	0.03294
2243.66660	0.03335
2242.38083	0.03347
2241.09507	0.03324
2239.80930	0.03296
2238.52353	0.03291
2237.23776	0.03304
2235.95199	0.03313
2234.66622	0.03308
2233.38045	0.03297
2232.09468	0.03277
2230.80891	0.03234
2229.52315	0.03173
2228.23738	0.03130
2226.95161	0.03139
2225.66584	0.03186
2224.38007	0.03226
2223.09430	0.03228
2221.80853	0.03200
2220.52276	0.03159
2219.23700	0.03108
2217.95123	0.03041
2216.66546	0.02968
2215.37969	0.02908
2214.09392	0.02875
2212.80815	0.02877
2211.52238	0.02913
2210.23661	0.02971
2208.95084	0.03021
2207.66508	0.03028
2206.37931	0.02989
2205.09354	0.02939
2203.80777	0.02905
2202.52200	0.02873
2201.23623	0.02812
2199.95046	0.02734
2198.66469	0.02688
2197.37893	0.02707
2196.09316	0.02770
2194.80739	0.02824
2193.52162	0.02825
2192.23585	0.02771
2190.95008	0.02679
2189.66431	0.02580
2188.37854	0.02500
2187.09277	0.02458
2185.80701	0.02451
2184.52124	0.02456
2183.23547	0.02460
2181.94970	0.02476
2180.66393	0.02523
2179.37816	0.02593
2178.09239	0.02650
2176.80662	0.02665
2175.52085	0.02633
2174.23509	0.02571
2172.94932	0.02507
2171.66355	0.02456
2170.37778	0.02401
2169.09201	0.02307
2167.80624	0.02164
2166.52047	0.02018
2165.23470	0.01937
2163.94894	0.01949
2162.66317	0.02013
2161.37740	0.02041
2160.09163	0.01974
2158.80586	0.01848
2157.52009	0.01760
2156.23432	0.01759
2154.94855	0.01820
2153.66278	0.01906
2152.37702	0.02005
2151.09125	0.02110
2149.80548	0.02203
2148.51971	0.02270
2147.23394	0.02306
2145.94817	0.02309
2144.66240	0.02291
2143.37663	0.02277
2142.09087	0.02290
2140.80510	0.02330
2139.51933	0.02371
2138.23356	0.02392
2136.94779	0.02392
2135.66202	0.02399
2134.37625	0.02440
2133.09048	0.02519
2131.80471	0.02616
2130.51895	0.02708
2129.23318	0.02778
2127.94741	0.02824
2126.66164	0.02860
2125.37587	0.02896
2124.09010	0.02924
2122.80433	0.02926
2121.51856	0.02896
2120.23280	0.02854
2118.94703	0.02832
2117.66126	0.02848
2116.37549	0.02894
2115.08972	0.02942
2113.80395	0.02963
2112.51818	0.02950
2111.23241	0.02932
2109.94664	0.02935
2108.66088	0.02961
2107.37511	0.02996
2106.08934	0.03027
2104.80357	0.03039
2103.51780	0.03021
2102.23203	0.02979
2100.94626	0.02932
2099.66049	0.02888
2098.37473	0.02851
2097.08896	0.02821
2095.80319	0.02809
2094.51742	0.02831
2093.23165	0.02877
2091.94588	0.02912
2090.66011	0.02900
2089.37434	0.02838
2088.08857	0.02763
2086.80281	0.02717
2085.51704	0.02707
2084.23127	0.02713
2082.94550	0.02715
2081.65973	0.02716
2080.37396	0.02722
2079.08819	0.02723
2077.80242	0.02700
2076.51666	0.02649
2075.23089	0.02604
2073.94512	0.02606
2072.65935	0.02658
2071.37358	0.02713
2070.08781	0.02713
2068.80204	0.02649
2067.51627	0.02571
2066.23050	0.02535
2064.94474	0.02554
2063.65897	0.02585
2062.37320	0.02574
2061.08743	0.02503
2059.80166	0.02402
2058.51589	0.02321
2057.23012	0.02286
2055.94435	0.02293
2054.65859	0.02315
2053.37282	0.02327
2052.08705	0.02320
2050.80128	0.02296
2049.51551	0.02259
2048.22974	0.02200
2046.94397	0.02115
2045.65820	0.02025
2044.37243	0.01971
2043.08667	0.01972
2041.80090	0.01992
2040.51513	0.01978
2039.22936	0.01913
2037.94359	0.01830
2036.65782	0.01775
2035.37205	0.01776
2034.08628	0.01831
2032.80052	0.01902
2031.51475	0.01934
2030.22898	0.01901
2028.94321	0.01847
2027.65744	0.01842
2026.37167	0.01912
2025.08590	0.02015
2023.80013	0.02082
2022.51436	0.02069
2021.22860	0.01971
2019.94283	0.01837
2018.65706	0.01744
2017.37129	0.01729
2016.08552	0.01755
2014.79975	0.01769
2013.51398	0.01768
2012.22821	0.01782
2010.94245	0.01805
2009.65668	0.01801
2008.37091	0.01769
2007.08514	0.01752
2005.79937	0.01783
2004.51360	0.01845
2003.22783	0.01905
2001.94206	0.01960
2000.65629	0.02020
1999.37053	0.02081
1998.08476	0.02121
1996.79899	0.02123
1995.51322	0.02095
1994.22745	0.02060
1992.94168	0.02033
1991.65591	0.02014
1990.37014	0.02004
1989.08438	0.02019
1987.79861	0.02058
1986.51284	0.02081
1985.22707	0.02047
1983.94130	0.01966
1982.65553	0.01898
1981.36976	0.01889
1980.08399	0.01920
1978.79822	0.01936
1977.51246	0.01902
1976.22669	0.01841
1974.94092	0.01811
1973.65515	0.01851
1972.36938	0.01944
1971.08361	0.02032
1969.79784	0.02062
1968.51207	0.02019
1967.22631	0.01932
1965.94054	0.01847
1964.65477	0.01805
1963.36900	0.01817
1962.08323	0.01864
1960.79746	0.01912
1959.51169	0.01928
1958.22592	0.01909
1956.94015	0.01888
1955.65439	0.01902
1954.36862	0.01960
1953.08285	0.02035
1951.79708	0.02093
1950.51131	0.02126
1949.22554	0.02148
1947.93977	0.02167
1946.65400	0.02174
1945.36823	0.02162
1944.08247	0.02151
1942.79670	0.02170
1941.51093	0.02233
1940.22516	0.02318
1938.93939	0.02387
1937.65362	0.02413
1936.36785	0.02400
1935.08208	0.02372
1933.79632	0.02345
1932.51055	0.02320
1931.22478	0.02293
1929.93901	0.02267
1928.65324	0.02256
1927.36747	0.02268
1926.08170	0.02299
1924.79593	0.02330
1923.51016	0.02343
1922.22440	0.02334
1920.93863	0.02319
1919.65286	0.02316
1918.36709	0.02330
1917.08132	0.02351
1915.79555	0.02374
1914.50978	0.02400
1913.22401	0.02430
1911.93825	0.02464
1910.65248	0.02495
1909.36671	0.02510
1908.08094	0.02500
1906.79517	0.02467
1905.50940	0.02431
1904.22363	0.02414
1902.93786	0.02419
1901.65209	0.02428
1900.36633	0.02426
1899.08056	0.02411
1897.79479	0.02395
1896.50902	0.02382
1895.22325	0.02374
1893.93748	0.02371
1892.65171	0.02377
1891.36594	0.02391
1890.08018	0.02407
1888.79441	0.02420
1887.50864	0.02429
1886.22287	0.02434
1884.93710	0.02440
1883.65133	0.02453
1882.36556	0.02466
1881.07979	0.02468
1879.79402	0.02453
1878.50826	0.02437
1877.22249	0.02438
1875.93672	0.02455
1874.65095	0.02468
1873.36518	0.02470
1872.07941	0.02466
1870.79364	0.02464
1869.50787	0.02460
1868.22211	0.02449
1866.93634	0.02436
1865.65057	0.02424
1864.36480	0.02408
1863.07903	0.02386
1861.79326	0.02368
1860.50749	0.02367
1859.22172	0.02383
1857.93595	0.02402
1856.65019	0.02411
1855.36442	0.02410
1854.07865	0.02408
1852.79288	0.02407
1851.50711	0.02406
1850.22134	0.02401
1848.93557	0.02389
1847.64980	0.02373
1846.36404	0.02360
1845.07827	0.02359
1843.79250	0.02368
1842.50673	0.02377
1841.22096	0.02375
1839.93519	0.02359
1838.64942	0.02339
1837.36365	0.02322
1836.07788	0.02314
1834.79212	0.02313
1833.50635	0.02317
1832.22058	0.02322
1830.93481	0.02330
1829.64904	0.02341
1828.36327	0.02350
1827.07750	0.02352
1825.79173	0.02342
1824.50597	0.02326
1823.22020	0.02312
1821.93443	0.02301
1820.64866	0.02293
1819.36289	0.02289
1818.07712	0.02294
1816.79135	0.02306
1815.50558	0.02321
1814.21981	0.02330
1812.93405	0.02326
1811.64828	0.02311
1810.36251	0.02294
1809.07674	0.02281
1807.79097	0.02275
1806.50520	0.02276
1805.21943	0.02280
1803.93366	0.02287
1802.64790	0.02294
1801.36213	0.02297
1800.07636	0.02294
1798.79059	0.02289
1797.50482	0.02290
1796.21905	0.02302
1794.93328	0.02322
1793.64751	0.02340
1792.36174	0.02348
1791.07598	0.02343
1789.79021	0.02327
1788.50444	0.02305
1787.21867	0.02283
1785.93290	0.02271
1784.64713	0.02268
1783.36136	0.02271
1782.07559	0.02273
1780.78983	0.02274
1779.50406	0.02276
1778.21829	0.02281
1776.93252	0.02283
1775.64675	0.02278
1774.36098	0.02265
1773.07521	0.02250
1771.78944	0.02242
1770.50367	0.02245
1769.21791	0.02257
1767.93214	0.02271
1766.64637	0.02280
1765.36060	0.02285
1764.07483	0.02286
1762.78906	0.02285
1761.50329	0.02284
1760.21752	0.02286
1758.93176	0.02297
1757.64599	0.02318
1756.36022	0.02344
1755.07445	0.02370
1753.78868	0.02395
1752.50291	0.02421
1751.21714	0.02450
1749.93137	0.02482
1748.64560	0.02516
1747.35984	0.02550
1746.07407	0.02583
1744.78830	0.02617
1743.50253	0.02653
1742.21676	0.02691
1740.93099	0.02734
1739.64522	0.02781
1738.35945	0.02833
1737.07369	0.02888
1735.78792	0.02940
1734.50215	0.02985
1733.21638	0.03025
1731.93061	0.03060
1730.64484	0.03094
1729.35907	0.03127
1728.07330	0.03162
1726.78753	0.03203
1725.50177	0.03251
1724.21600	0.03304
1722.93023	0.03355
1721.64446	0.03403
1720.35869	0.03451
1719.07292	0.03505
1717.78715	0.03563
1716.50138	0.03623
1715.21561	0.03683
1713.92985	0.03751
1712.64408	0.03835
1711.35831	0.03942
1710.07254	0.04075
1708.78677	0.04226
1707.50100	0.04387
1706.21523	0.04552
1704.92946	0.04726
1703.64370	0.04918
1702.35793	0.05136
1701.07216	0.05379
1699.78639	0.05640
1698.50062	0.05913
1697.21485	0.06196
1695.92908	0.06487
1694.64331	0.06776
1693.35754	0.07057
1692.07178	0.07329
1690.78601	0.07599
1689.50024	0.07870
1688.21447	0.08149
1686.92870	0.08444
1685.64293	0.08755
1684.35716	0.09076
1683.07139	0.09393
1681.78563	0.09707
1680.49986	0.10027
1679.21409	0.10363
1677.92832	0.10716
1676.64255	0.11082
1675.35678	0.11455
1674.07101	0.11830
1672.78524	0.12209
1671.49947	0.12594
1670.21371	0.12988
1668.92794	0.13386
1667.64217	0.13777
1666.35640	0.14156
1665.07063	0.14529
1663.78486	0.14902
1662.49909	0.15270
1661.21332	0.15626
1659.92756	0.15963
1658.64179	0.16281
1657.35602	0.16585
1656.07025	0.16882
1654.78448	0.17173
1653.49871	0.17454
1652.21294	0.17708
1650.92717	0.17927
1649.64140	0.18118
1648.35564	0.18292
1647.06987	0.18458
1645.78410	0.18613
1644.49833	0.18750
1643.21256	0.18874
1641.92679	0.18992
1640.64102	0.19112
1639.35525	0.19230
1638.06949	0.19342
1636.78372	0.19440
1635.49795	0.19522
1634.21218	0.19587
1632.92641	0.19631
1631.64064	0.19649
1630.35487	0.19633
1629.06910	0.19575
1627.78333	0.19474
1626.49757	0.19331
1625.21180	0.19152
1623.92603	0.18938
1622.64026	0.18686
1621.35449	0.18395
1620.06872	0.18067
1618.78295	0.17712
1617.49718	0.17343
1616.21142	0.16968
1614.92565	0.16589
1613.63988	0.16203
1612.35411	0.15815
1611.06834	0.15425
1609.78257	0.15035
1608.49680	0.14643
1607.21103	0.14254
1605.92526	0.13877
1604.63950	0.13519
1603.35373	0.13184
1602.06796	0.12869
1600.78219	0.12570
1599.49642	0.12290
1598.21065	0.12031
1596.92488	0.11795
1595.63911	0.11581
1594.35335	0.11387
1593.06758	0.11209
1591.78181	0.11050
1590.49604	0.10913
1589.21027	0.10802
1587.92450	0.10716
1586.63873	0.10650
1585.35296	0.10602
1584.06719	0.10572
1582.78143	0.10558
1581.49566	0.10559
1580.20989	0.10579
1578.92412	0.10620
1577.63835	0.10689
1576.35258	0.10785
1575.06681	0.10905
1573.78104	0.11042
1572.49528	0.11190
1571.20951	0.11349
1569.92374	0.11522
1568.63797	0.11711
1567.35220	0.11915
1566.06643	0.12132
1564.78066	0.12362
1563.49489	0.12598
1562.20912	0.12840
1560.92336	0.13084
1559.63759	0.13329
1558.35182	0.13569
1557.06605	0.13801
1555.78028	0.14029
1554.49451	0.14254
1553.20874	0.14475
1551.92297	0.14686
1550.63721	0.14885
1549.35144	0.15071
1548.06567	0.15242
1546.77990	0.15398
1545.49413	0.15540
1544.20836	0.15671
1542.92259	0.15791
1541.63682	0.15902
1540.35105	0.16005
1539.06529	0.16097
1537.77952	0.16172
1536.49375	0.16228
1535.20798	0.16270
1533.92221	0.16305
1532.63644	0.16330
1531.35067	0.16342
1530.06490	0.16339
1528.77914	0.16327
1527.49337	0.16310
1526.20760	0.16291
1524.92183	0.16269
1523.63606	0.16243
1522.35029	0.16213
1521.06452	0.16181
1519.77875	0.16146
1518.49298	0.16107
1517.20722	0.16053
1515.92145	0.15973
1514.63568	0.15858
1513.34991	0.15708
1512.06414	0.15531
1510.77837	0.15336
1509.49260	0.15127
1508.20683	0.14903
1506.92107	0.14664
1505.63530	0.14410
1504.34953	0.14145
1503.06376	0.13875
1501.77799	0.13609
1500.49222	0.13349
1499.20645	0.13087
1497.92068	0.12812
1496.63491	0.12520
1495.34915	0.12219
1494.06338	0.11919
1492.77761	0.11629
1491.49184	0.11348
1490.20607	0.11075
1488.92030	0.10812
1487.63453	0.10565
1486.34876	0.10341
1485.06299	0.10145
1483.77723	0.09976
1482.49146	0.09832
1481.20569	0.09713
1479.91992	0.09620
1478.63415	0.09557
1477.34838	0.09527
1476.06261	0.09531
1474.77684	0.09569
1473.49108	0.09638
1472.20531	0.09729
1470.91954	0.09830
1469.63377	0.09927
1468.34800	0.10017
1467.06223	0.10103
1465.77646	0.10190
1464.49069	0.10283
1463.20492	0.10380
1461.91916	0.10480
1460.63339	0.10588
1459.34762	0.10706
1458.06185	0.10836
1456.77608	0.10966
1455.49031	0.11082
1454.20454	0.11174
1452.91877	0.11243
1451.63301	0.11292
1450.34724	0.11324
1449.06147	0.11339
1447.77570	0.11338
1446.48993	0.11322
1445.20416	0.11291
1443.91839	0.11249
1442.63262	0.11194
1441.34685	0.11126
1440.06109	0.11048
1438.77532	0.10959
1437.48955	0.10861
1436.20378	0.10753
1434.91801	0.10635
1433.63224	0.10509
1432.34647	0.10380
1431.06070	0.10257
1429.77494	0.10150
1428.48917	0.10064
1427.20340	0.10000
1425.91763	0.09952
1424.63186	0.09918
1423.34609	0.09895
1422.06032	0.09882
1420.77455	0.09879
1419.48878	0.09882
1418.20302	0.09886
1416.91725	0.09887
1415.63148	0.09886
1414.34571	0.09890
1413.05994	0.09902
1411.77417	0.09918
1410.48840	0.09935
1409.20263	0.09947
1407.91687	0.09957
1406.63110	0.09970
1405.34533	0.09990
1404.05956	0.10017
1402.77379	0.10043
1401.48802	0.10063
1400.20225	0.10070
1398.91648	0.10065
1397.63071	0.10056
1396.34495	0.10049
1395.05918	0.10046
1393.77341	0.10047
1392.48764	0.10051
1391.20187	0.10054
1389.91610	0.10056
1388.63033	0.10051
1387.34456	0.10039
1386.05880	0.10017
1384.77303	0.09986
1383.48726	0.09950
1382.20149	0.09912
1380.91572	0.09874
1379.62995	0.09837
1378.34418	0.09795
1377.05841	0.09748
1375.77264	0.09695
1374.48688	0.09637
1373.20111	0.09572
1371.91534	0.09498
1370.62957	0.09418
1369.34380	0.09331
1368.05803	0.09241
1366.77226	0.09145
1365.48649	0.09046
1364.20073	0.08948
1362.91496	0.08856
1361.62919	0.08774
1360.34342	0.08702
1359.05765	0.08641
1357.77188	0.08592
1356.48611	0.08556
1355.20034	0.08532
1353.91457	0.08520
1352.62881	0.08521
1351.34304	0.08534
1350.05727	0.08556
1348.77150	0.08587
1347.48573	0.08624
1346.19996	0.08664
1344.91419	0.08706
1343.62842	0.08750
1342.34266	0.08794
1341.05689	0.08834
1339.77112	0.08869
1338.48535	0.08893
1337.19958	0.08906
1335.91381	0.08907
1334.62804	0.08895
1333.34227	0.08871
1332.05650	0.08836
1330.77074	0.08792
1329.48497	0.08743
1328.19920	0.08692
1326.91343	0.08642
1325.62766	0.08594
1324.34189	0.08549
1323.05612	0.08510
1321.77035	0.08479
1320.48459	0.08458
1319.19882	0.08445
1317.91305	0.08437
1316.62728	0.08428
1315.34151	0.08415
1314.05574	0.08395
1312.76997	0.08370
1311.48420	0.08343
1310.19843	0.08316
1308.91267	0.08288
1307.62690	0.08258
1306.34113	0.08229
1305.05536	0.08204
1303.76959	0.08185
1302.48382	0.08170
1301.19805	0.08156
1299.91228	0.08143
1298.62652	0.08132
1297.34075	0.08123
1296.05498	0.08116
1294.76921	0.08114
1293.48344	0.08120
1292.19767	0.08134
1290.91190	0.08156
1289.62613	0.08186
1288.34036	0.08225
1287.05460	0.08270
1285.76883	0.08320
1284.48306	0.08369
1283.19729	0.08413
1281.91152	0.08446
1280.62575	0.08468
1279.33998	0.08483
1278.05421	0.08497
1276.76845	0.08515
1275.48268	0.08537
1274.19691	0.08557
1272.91114	0.08571
1271.62537	0.08581
1270.33960	0.08592
1269.05383	0.08607
1267.76806	0.08630
1266.48229	0.08660
1265.19653	0.08696
1263.91076	0.08737
1262.62499	0.08781
1261.33922	0.08829
1260.05345	0.08885
1258.76768	0.08950
1257.48191	0.09022
1256.19614	0.09097
1254.91037	0.09174
1253.62461	0.09248
1252.33884	0.09320
1251.05307	0.09395
1249.76730	0.09479
1248.48153	0.09570
1247.19576	0.09667
1245.90999	0.09764
1244.62422	0.09862
1243.33846	0.09962
1242.05269	0.10061
1240.76692	0.10152
1239.48115	0.10227
1238.19538	0.10282
1236.90961	0.10319
1235.62384	0.10346
1234.33807	0.10366
1233.05230	0.10380
1231.76654	0.10381
1230.48077	0.10366
1229.19500	0.10334
1227.90923	0.10283
1226.62346	0.10218
1225.33769	0.10142
1224.05192	0.10059
1222.76615	0.09972
1221.48039	0.09882
1220.19462	0.09788
1218.90885	0.09689
1217.62308	0.09587
1216.33731	0.09491
1215.05154	0.09412
1213.76577	0.09352
1212.48000	0.09309
1211.19423	0.09275
1209.90847	0.09247
1208.62270	0.09226
1207.33693	0.09214
1206.05116	0.09207
1204.76539	0.09200
1203.47962	0.09186
1202.19385	0.09159
1200.90808	0.09119
1199.62232	0.09067
1198.33655	0.09002
1197.05078	0.08928
1195.76501	0.08848
1194.47924	0.08765
1193.19347	0.08683
1191.90770	0.08602
1190.62193	0.08525
1189.33616	0.08451
1188.05040	0.08385
1186.76463	0.08331
1185.47886	0.08286
1184.19309	0.08248
1182.90732	0.08208
1181.62155	0.08167
1180.33578	0.08132
1179.05001	0.08109
1177.76425	0.08092
1176.47848	0.08076
1175.19271	0.08059
1173.90694	0.08047
1172.62117	0.08043
1171.33540	0.08044
1170.04963	0.08040
1168.76386	0.08030
1167.47809	0.08020
1166.19233	0.08013
1164.90656	0.08008
1163.62079	0.08001
1162.33502	0.07993
1161.04925	0.07984
1159.76348	0.07971
1158.47771	0.07951
1157.19194	0.07918
1155.90618	0.07873
1154.62041	0.07820
1153.33464	0.07763
1152.04887	0.07705
1150.76310	0.07645
1149.47733	0.07578
1148.19156	0.07503
1146.90579	0.07425
1145.62002	0.07357
1144.33426	0.07302
1143.04849	0.07254
1141.76272	0.07205
1140.47695	0.07153
1139.19118	0.07101
1137.90541	0.07053
1136.61964	0.07009
1135.33387	0.06973
1134.04811	0.06948
1132.76234	0.06933
1131.47657	0.06922
1130.19080	0.06911
1128.90503	0.06900
1127.61926	0.06892
1126.33349	0.06893
1125.04772	0.06900
1123.76195	0.06913
1122.47619	0.06932
1121.19042	0.06957
1119.90465	0.06984
1118.61888	0.07008
1117.33311	0.07033
1116.04734	0.07067
1114.76157	0.07112
1113.47580	0.07166
1112.19004	0.07220
1110.90427	0.07272
1109.61850	0.07320
1108.33273	0.07365
1107.04696	0.07408
1105.76119	0.07451
1104.47542	0.07498
1103.18965	0.07555
1101.90388	0.07622
1100.61812	0.07695
1099.33235	0.07763
1098.04658	0.07819
1096.76081	0.07864
1095.47504	0.07902
1094.18927	0.07940
1092.90350	0.07979
1091.61773	0.08018
1090.33197	0.08059
1089.04620	0.08111
1087.76043	0.08179
1086.47466	0.08264
1085.18889	0.08360
1083.90312	0.08456
1082.61735	0.08545
1081.33158	0.08625
1080.04581	0.08696
1078.76005	0.08756
1077.47428	0.08802
1076.18851	0.08835
1074.90274	0.08856
1073.61697	0.08871
1072.33120	0.08889
1071.04543	0.08911
1069.75966	0.08935
1068.47390	0.08957
1067.18813	0.08978
1065.90236	0.08997
1064.61659	0.09017
1063.33082	0.09035
1062.04505	0.09050
1060.75928	0.09061
1059.47351	0.09070
1058.18774	0.09076
1056.90198	0.09078
1055.61621	0.09075
1054.33044	0.09070
1053.04467	0.09068
1051.75890	0.09068
1050.47313	0.09065
1049.18736	0.09057
1047.90159	0.09049
1046.61583	0.09047
1045.33006	0.09052
1044.04429	0.09057
1042.75852	0.09063
1041.47275	0.09075
1040.18698	0.09097
1038.90121	0.09134
1037.61544	0.09181
1036.32967	0.09232
1035.04391	0.09283
1033.75814	0.09336
1032.47237	0.09391
1031.18660	0.09436
1029.90083	0.09452
1028.61506	0.09429
1027.32929	0.09366
1026.04352	0.09270
1024.75775	0.09155
1023.47199	0.09031
1022.18622	0.08906
1020.90045	0.08783
1019.61468	0.08661
1018.32891	0.08543
1017.04314	0.08431
1015.75737	0.08329
1014.47160	0.08235
1013.18584	0.08144
1011.90007	0.08048
1010.61430	0.07945
1009.32853	0.07840
1008.04276	0.07740
1006.75699	0.07647
1005.47122	0.07556
1004.18545	0.07464
1002.89968	0.07370
1001.61392	0.07278
1000.32815	0.07191
999.04238	0.07106
997.75661	0.07025
996.47084	0.06952
995.18507	0.06883
993.89930	0.06813
992.61353	0.06736
991.32777	0.06654
990.04200	0.06575
988.75623	0.06505
987.47046	0.06450
986.18469	0.06405
984.89892	0.06365
983.61315	0.06322
982.32738	0.06275
981.04161	0.06235
979.75585	0.06214
978.47008	0.06209
977.18431	0.06210
975.89854	0.06204
974.61277	0.06188
973.32700	0.06164
972.04123	0.06140
970.75546	0.06116
969.46970	0.06092
968.18393	0.06065
966.89816	0.06034
965.61239	0.06002
964.32662	0.05972
963.04085	0.05947
961.75508	0.05921
960.46931	0.05894
959.18354	0.05863
957.89778	0.05831
956.61201	0.05799
955.32624	0.05768
954.04047	0.05737
952.75470	0.05704
951.46893	0.05668
950.18316	0.05633
948.89739	0.05606
947.61163	0.05588
946.32586	0.05576
945.04009	0.05564
943.75432	0.05552
942.46855	0.05541
941.18278	0.05528
939.89701	0.05511
938.61124	0.05491
937.32547	0.05473
936.03971	0.05458
934.75394	0.05445
933.46817	0.05432
932.18240	0.05419
930.89663	0.05407
929.61086	0.05396
928.32509	0.05386
927.03932	0.05374
925.75356	0.05361
924.46779	0.05345
923.18202	0.05329
921.89625	0.05310
920.61048	0.05288
919.32471	0.05264
918.03894	0.05239
916.75317	0.05216
915.46740	0.05190
914.18164	0.05161
912.89587	0.05134
911.61010	0.05114
910.32433	0.05100
909.03856	0.05090
907.75279	0.05078
906.46702	0.05059
905.18125	0.05033
903.89549	0.05003
902.60972	0.04974
901.32395	0.04949
900.03818	0.04926
898.75241	0.04907
897.46664	0.04892
896.18087	0.04873
894.89510	0.04847
893.60933	0.04817
892.32357	0.04797
891.03780	0.04790
889.75203	0.04788
888.46626	0.04781
887.18049	0.04767
885.89472	0.04753
884.60895	0.04743
883.32318	0.04735
882.03742	0.04726
880.75165	0.04712
879.46588	0.04698
878.18011	0.04691
876.89434	0.04698
875.60857	0.04712
874.32280	0.04715
873.03703	0.04696
871.75126	0.04664
870.46550	0.04637
869.17973	0.04624
867.89396	0.04621
866.60819	0.04618
865.32242	0.04611
864.03665	0.04600
862.75088	0.04586
861.46511	0.04571
860.17935	0.04559
858.89358	0.04553
857.60781	0.04550
856.32204	0.04547
855.03627	0.04542
853.75050	0.04538
852.46473	0.04537
851.17896	0.04537
849.89319	0.04537
848.60743	0.04531
847.32166	0.04521
846.03589	0.04511
844.75012	0.04507
843.46435	0.04508
842.17858	0.04509
840.89281	0.04505
839.60704	0.04497
838.32128	0.04492
837.03551	0.04492
835.74974	0.04495
834.46397	0.04497
833.17820	0.04495
831.89243	0.04490
830.60666	0.04487
829.32089	0.04490
828.03512	0.04499
826.74936	0.04510
825.46359	0.04516
824.17782	0.04515
822.89205	0.04514
821.60628	0.04520
820.32051	0.04534
819.03474	0.04552
817.74897	0.04567
816.46321	0.04578
815.17744	0.04584
813.89167	0.04588
812.60590	0.04595
811.32013	0.04609
810.03436	0.04628
808.74859	0.04648
807.46282	0.04669
806.17705	0.04690
804.89129	0.04707
803.60552	0.04717
802.31975	0.04720
801.03398	0.04721
799.74821	0.04722
798.46244	0.04724
797.17667	0.04729
795.89090	0.04739
794.60513	0.04752
793.31937	0.04764
792.03360	0.04778
790.74783	0.04798
789.46206	0.04824
788.17629	0.04848
786.89052	0.04864
785.60475	0.04871
784.31898	0.04872
783.03322	0.04876
781.74745	0.04888
780.46168	0.04907
779.17591	0.04926
777.89014	0.04941
776.60437	0.04950
775.31860	0.04956
774.03283	0.04965
772.74706	0.04978
771.46130	0.04991
770.17553	0.05003
768.88976	0.05019
767.60399	0.05042
766.31822	0.05074
765.03245	0.05107
763.74668	0.05134
762.46091	0.05153
761.17515	0.05167
759.88938	0.05180
758.60361	0.05194
757.31784	0.05208
756.03207	0.05222
754.74630	0.05236
753.46053	0.05246
752.17476	0.05254
750.88899	0.05266
749.60323	0.05287
748.31746	0.05319
747.03169	0.05355
745.74592	0.05388
744.46015	0.05414
743.17438	0.05428
741.88861	0.05431
740.60284	0.05425
739.31708	0.05419
738.03131	0.05428
736.74554	0.05456
735.45977	0.05494
734.17400	0.05522
732.88823	0.05536
731.60246	0.05549
730.31669	0.05574
729.03092	0.05613
727.74516	0.05652
726.45939	0.05678
725.17362	0.05691
723.88785	0.05682
722.60208	0.05724
721.31631	0.05793
720.03054	0.05855
718.74477	0.05899
717.45901	0.05924
716.17324	0.05929
714.88747	0.05917
713.60170	0.05896
712.31593	0.05879
711.03016	0.05877
709.74439	0.05895
708.45862	0.05930
707.17285	0.05972
705.88709	0.06015
704.60132	0.06053
703.31555	0.06085
702.02978	0.06113
700.74401	0.06138
699.45824	0.06166
698.17247	0.06198
696.88670	0.06229
695.60094	0.06255
694.31517	0.06270
693.02940	0.06273
691.74363	0.06269
690.45786	0.06266
689.17209	0.06266
687.88632	0.06270
686.60055	0.06274
685.31478	0.06278
684.02902	0.06283
682.74325	0.06289
681.45748	0.06295
680.17171	0.06303
678.88594	0.06314
677.60017	0.06333
676.31440	0.06356
675.02863	0.06375
673.74287	0.06385
672.45710	0.06388
671.17133	0.06392
669.88556	0.06405
668.59979	0.06415
667.31402	0.06424
666.02825	0.06451
664.74248	0.06472
663.45671	0.06489
662.17095	0.06504
660.88518	0.06516
659.59941	0.06529
658.31364	0.06544
657.02787	0.06559
655.74210	0.06574
654.45633	0.06588
653.17056	0.06601
651.88480	0.06612
650.59903	0.06624
649.31326	0.06636
648.02749	0.06645
646.74172	0.06649
645.45595	0.06648
644.17018	0.06649
642.88441	0.06654
641.59864	0.06659
640.31288	0.06657
639.02711	0.06645
637.74134	0.06627
636.45557	0.06615
635.16980	0.06620
633.88403	0.06640
632.59826	0.06659
631.31249	0.06662
630.02673	0.06642
628.74096	0.06608
627.45519	0.06575
626.16942	0.06526
624.88365	0.06456
623.59788	0.06364
622.31211	0.06263
621.02634	0.06184
619.74057	0.06193
618.45481	0.06339
617.16904	0.06577
615.88327	0.06772
614.59750	0.06819
613.31173	0.06748
612.02596	0.06700
610.74019	0.06795
609.45442	0.07018
608.16866	0.07254
606.88289	0.07404
605.59712	0.07451
604.31135	0.07430
603.02558	0.07382
601.73981	0.07331
600.45404	0.07278
599.16827	0.07224
597.88250	0.07180
596.59674	0.07159
595.31097	0.07155
594.02520	0.07150
592.73943	0.07128
591.45366	0.07095
590.16789	0.07071
588.88212	0.07068
587.59635	0.07080
586.31059	0.07094
585.02482	0.07107
583.73905	0.07126
582.45328	0.07158
581.16751	0.07197
579.88174	0.07230
578.59597	0.07249
577.31020	0.07252
576.02443	0.07248
574.73867	0.07245
573.45290	0.07249
572.16713	0.07259
570.88136	0.07280
569.59559	0.07317
568.30982	0.07373
567.02405	0.07439
565.73828	0.07504
564.45251	0.07553
563.16675	0.07578
561.88098	0.07577
560.59521	0.07556
559.30944	0.07523
558.02367	0.07487
556.73790	0.07456
555.45213	0.07440
554.16636	0.07436
552.88060	0.07435
551.59483	0.07423
550.30906	0.07397
549.02329	0.07365
547.73752	0.07334
546.45175	0.07305
545.16598	0.07277
543.88021	0.07250
542.59444	0.07226
541.30868	0.07204
540.02291	0.07180
538.73714	0.07154
537.45137	0.07131
536.16560	0.07117
534.87983	0.07111
533.59406	0.07105
532.30829	0.07092
531.02253	0.07078
529.73676	0.07076
528.45099	0.07091
527.16522	0.07113
525.87945	0.07121
524.59368	0.07109
523.30791	0.07084
522.02214	0.07057
520.73637	0.07033
519.45061	0.07009
518.16484	0.06978
516.87907	0.06946
515.59330	0.06921
514.30753	0.06914
513.02176	0.06923
511.73599	0.06938
510.45022	0.06945
509.16446	0.06932
507.87869	0.06899
506.59292	0.06857
505.30715	0.06823
504.02138	0.06808
502.73561	0.06801
501.44984	0.06785
500.16407	0.06756
498.87830	0.06723
497.59254	0.06691
496.30677	0.06660
495.02100	0.06631
493.73523	0.06609
492.44946	0.06597
491.16369	0.06588
489.87792	0.06570
488.59215	0.06536
487.30639	0.06494
486.02062	0.06454
484.73485	0.06429
483.44908	0.06424
482.16331	0.06433
480.87754	0.06445
479.59177	0.06447
478.30600	0.06437
477.02023	0.06420
475.73447	0.06400
474.44870	0.06377
473.16293	0.06345
471.87716	0.06301
470.59139	0.06253
469.30562	0.06217
468.01985	0.06205
466.73408	0.06212
465.44832	0.06219
464.16255	0.06207
462.87678	0.06175
461.59101	0.06134
460.30524	0.06098
459.01947	0.06071
457.73370	0.06050
456.44793	0.06032
455.16216	0.06015
453.87640	0.05994
452.59063	0.05966
451.30486	0.05932
450.01909	0.05894
448.73332	0.05854
447.44755	0.05812
446.16178	0.05774
444.87601	0.05749
443.59025	0.05739
442.30448	0.05735
441.01871	0.05724
439.73294	0.05697
438.44717	0.05659
437.16140	0.05621
435.87563	0.05591
434.58986	0.05571
433.30409	0.05558
432.01833	0.05546
430.73256	0.05536
429.44679	0.05528
428.16102	0.05520
426.87525	0.05510
425.58948	0.05492
424.30371	0.05463
423.01794	0.05427
421.73218	0.05389
420.44641	0.05359
419.16064	0.05341
417.87487	0.05336
416.58910	0.05335
415.30333	0.05326
414.01756	0.05304
412.73179	0.05274
411.44602	0.05241
410.16026	0.05211
408.87449	0.05180
407.58872	0.05151
406.30295	0.05124
405.01718	0.05102
403.73141	0.05085
402.44564	0.05071
401.15987	0.05060
399.87411	0.05051
