3997.45528	0.07354
3996.16951	0.07312
3994.88374	0.07273
3993.59798	0.07248
3992.31221	0.07247
3991.02644	0.07261
3989.74067	0.07268
3988.45490	0.07256
3987.16913	0.07221
3985.88336	0.07167
3984.59759	0.07106
3983.31183	0.07064
3982.02606	0.07053
3980.74029	0.07062
3979.45452	0.07069
3978.16875	0.07078
3976.88298	0.07112
3975.59721	0.07171
3974.31144	0.07222
3973.02567	0.07224
3971.73991	0.07173
3970.45414	0.07102
3969.16837	0.07061
3967.88260	0.07080
3966.59683	0.07149
3965.31106	0.07226
3964.02529	0.07270
3962.73952	0.07275
3961.45376	0.07256
3960.16799	0.07234
3958.88222	0.07219
3957.59645	0.07218
3956.31068	0.07219
3955.02491	0.07194
3953.73914	0.07125
3952.45337	0.07033
3951.16760	0.06969
3949.88184	0.06962
3948.59607	0.06991
3947.31030	0.07012
3946.02453	0.07010
3944.73876	0.07006
3943.45299	0.07009
3942.16722	0.07010
3940.88145	0.07017
3939.59569	0.07052
3938.30992	0.07108
3937.02415	0.07140
3935.73838	0.07113
3934.45261	0.07042
3933.16684	0.06966
3931.88107	0.06910
3930.59530	0.06883
3929.30953	0.06883
3928.02377	0.06903
3926.73800	0.06935
3925.45223	0.06969
3924.16646	0.06992
3922.88069	0.07003
3921.59492	0.07012
3920.30915	0.07017
3919.02338	0.07008
3917.73762	0.06971
3916.45185	0.06906
3915.16608	0.06847
3913.88031	0.06831
3912.59454	0.06853
3911.30877	0.06875
3910.02300	0.06871
3908.73723	0.06840
3907.45146	0.06802
3906.16570	0.06789
3904.87993	0.06816
3903.59416	0.06873
3902.30839	0.06935
3901.02262	0.06981
3899.73685	0.06987
3898.45108	0.06932
3897.16531	0.06830
3895.87955	0.06728
3894.59378	0.06681
3893.30801	0.06702
3892.02224	0.06744
3890.73647	0.06738
3889.45070	0.06693
3888.16493	0.06688
3886.87916	0.06737
3885.59339	0.06760
3884.30763	0.06735
3883.02186	0.06732
3881.73609	0.06797
3880.45032	0.06864
3879.16455	0.06870
3877.87878	0.06845
3876.59301	0.06848
3875.30724	0.06874
3874.02148	0.06883
3872.73571	0.06885
3871.44994	0.06915
3870.16417	0.06941
3868.87840	0.06917
3867.59263	0.06883
3866.30686	0.06884
3865.02109	0.06892
3863.73532	0.06889
3862.44956	0.06905
3861.16379	0.06933
3859.87802	0.06902
3858.59225	0.06782
3857.30648	0.06653
3856.02071	0.06629
3854.73494	0.06703
3853.44917	0.06757
3852.16341	0.06735
3850.87764	0.06703
3849.59187	0.06695
3848.30610	0.06667
3847.02033	0.06595
3845.73456	0.06510
3844.44879	0.06451
3843.16302	0.06418
3841.87725	0.06406
3840.59149	0.06441
3839.30572	0.06529
3838.01995	0.06610
3836.73418	0.06627
3835.44841	0.06611
3834.16264	0.06628
3832.87687	0.06678
3831.59110	0.06704
3830.30534	0.06668
3829.01957	0.06585
3827.73380	0.06498
3826.44803	0.06435
3825.16226	0.06427
3823.87649	0.06513
3822.59072	0.06649
3821.30495	0.06707
3820.01918	0.06643
3818.73342	0.06578
3817.44765	0.06611
3816.16188	0.06655
3814.87611	0.06603
3813.59034	0.06505
3812.30457	0.06449
3811.01880	0.06432
3809.73303	0.06434
3808.44726	0.06450
3807.16150	0.06430
3805.87573	0.06343
3804.58996	0.06281
3803.30419	0.06343
3802.01842	0.06464
3800.73265	0.06491
3799.44688	0.06415
3798.16111	0.06341
3796.87535	0.06308
3795.58958	0.06288
3794.30381	0.06282
3793.01804	0.06305
3791.73227	0.06329
3790.44650	0.06312
3789.16073	0.06255
3787.87496	0.06203
3786.58919	0.06194
3785.30343	0.06227
3784.01766	0.06269
3782.73189	0.06310
3781.44612	0.06366
3780.16035	0.06429
3778.87458	0.06464
3777.58881	0.06454
3776.30304	0.06408
3775.01728	0.06336
3773.73151	0.06250
3772.44574	0.06194
3771.15997	0.06199
3769.87420	0.06242
3768.58843	0.06284
3767.30266	0.06312
3766.01689	0.06307
3764.73112	0.06247
3763.44536	0.06153
3762.15959	0.06089
3760.87382	0.06088
3759.58805	0.06132
3758.30228	0.06183
3757.01651	0.06205
3755.73074	0.06190
3754.44497	0.06175
3753.15921	0.06184
3751.87344	0.06203
3750.58767	0.06211
3749.30190	0.06189
3748.01613	0.06161
3746.73036	0.06213
3745.44459	0.06331
3744.15882	0.06355
3742.87305	0.06243
3741.58729	0.06139
3740.30152	0.06120
3739.01575	0.06139
3737.72998	0.06143
3736.44421	0.06102
3735.15844	0.06010
3733.87267	0.05914
3732.58690	0.05864
3731.30114	0.05860
3730.01537	0.05904
3728.72960	0.05998
3727.44383	0.06094
3726.15806	0.06115
3724.87229	0.06065
3723.58652	0.06012
3722.30075	0.05993
3721.01498	0.05991
3719.72922	0.05977
3718.44345	0.05933
3717.15768	0.05862
3715.87191	0.05786
3714.58614	0.05735
3713.30037	0.05705
3712.01460	0.05671
3710.72883	0.05642
3709.44307	0.05652
3708.15730	0.05700
3706.87153	0.05750
3705.58576	0.05798
3704.29999	0.05870
3703.01422	0.05959
3701.72845	0.06015
3700.44268	0.05994
3699.15691	0.05922
3697.87115	0.05857
3696.58538	0.05837
3695.29961	0.05854
3694.01384	0.05875
3692.72807	0.05862
3691.44230	0.05815
3690.15653	0.05776
3688.87076	0.05761
3687.58500	0.05736
3686.29923	0.05705
3685.01346	0.05716
3683.72769	0.05775
3682.44192	0.05840
3681.15615	0.05880
3679.87038	0.05889
3678.58461	0.05911
3677.29884	0.05973
3676.01308	0.06005
3674.72731	0.05930
3673.44154	0.05825
3672.15577	0.05832
3670.87000	0.05932
3669.58423	0.05995
3668.29846	0.05994
3667.01269	0.05991
3665.72693	0.06011
3664.44116	0.06031
3663.15539	0.06034
3661.86962	0.06024
3660.58385	0.06004
3659.29808	0.05979
3658.01231	0.05949
3656.72654	0.05902
3655.44077	0.05834
3654.15501	0.05801
3652.86924	0.05866
3651.58347	0.06007
3650.29770	0.06125
3649.01193	0.06155
3647.72616	0.06119
3646.44039	0.06085
3645.15462	0.06094
3643.86886	0.06136
3642.58309	0.06182
3641.29732	0.06210
3640.01155	0.06223
3638.72578	0.06233
3637.44001	0.06256
3636.15424	0.06295
3634.86847	0.06319
3633.58270	0.06288
3632.29694	0.06226
3631.01117	0.06220
3629.72540	0.06297
3628.43963	0.06391
3627.15386	0.06453
3625.86809	0.06492
3624.58232	0.06507
3623.29655	0.06492
3622.01079	0.06484
3620.72502	0.06525
3619.43925	0.06592
3618.15348	0.06628
3616.86771	0.06623
3615.58194	0.06610
3614.29617	0.06612
3613.01040	0.06625
3611.72463	0.06653
3610.43887	0.06717
3609.15310	0.06817
3607.86733	0.06934
3606.58156	0.07061
3605.29579	0.07191
3604.01002	0.07292
3602.72425	0.07332
3601.43848	0.07320
3600.15272	0.07287
3598.86695	0.07270
3597.58118	0.07293
3596.29541	0.07357
3595.00964	0.07427
3593.72387	0.07459
3592.43810	0.07446
3591.15233	0.07441
3589.86656	0.07495
3588.58080	0.07586
3587.29503	0.07651
3586.00926	0.07654
3584.72349	0.07623
3583.43772	0.07613
3582.15195	0.07653
3580.86618	0.07731
3579.58041	0.07815
3578.29464	0.07877
3577.00888	0.07912
3575.72311	0.07938
3574.43734	0.07979
3573.15157	0.08046
3571.86580	0.08129
3570.58003	0.08216
3569.29426	0.08289
3568.00849	0.08333
3566.72273	0.08349
3565.43696	0.08363
3564.15119	0.08399
3562.86542	0.08447
3561.57965	0.08482
3560.29388	0.08497
3559.00811	0.08517
3557.72234	0.08567
3556.43657	0.08636
3555.15081	0.08689
3553.86504	0.08706
3552.57927	0.08712
3551.29350	0.08749
3550.00773	0.08839
3548.72196	0.08961
3547.43619	0.09073
3546.15042	0.09144
3544.86466	0.09168
3543.57889	0.09160
3542.29312	0.09145
3541.00735	0.09143
3539.72158	0.09170
3538.43581	0.09227
3537.15004	0.09306
3535.86427	0.09391
3534.57850	0.09474
3533.29274	0.09546
3532.00697	0.09598
3530.72120	0.09619
3529.43543	0.09620
3528.14966	0.09624
3526.86389	0.09648
3525.57812	0.09691
3524.29235	0.09746
3523.00659	0.09807
3521.72082	0.09870
3520.43505	0.09930
3519.14928	0.09985
3517.86351	0.10039
3516.57774	0.10100
3515.29197	0.10164
3514.00620	0.10209
3512.72043	0.10217
3511.43467	0.10197
3510.14890	0.10172
3508.86313	0.10172
3507.57736	0.10216
3506.29159	0.10311
3505.00582	0.10433
3503.72005	0.10537
3502.43428	0.10584
3501.14852	0.10585
3499.86275	0.10578
3498.57698	0.10595
3497.29121	0.10633
3496.00544	0.10677
3494.71967	0.10715
3493.43390	0.10746
3492.14813	0.10774
3490.86236	0.10806
3489.57660	0.10851
3488.29083	0.10903
3487.00506	0.10953
3485.71929	0.10999
3484.43352	0.11050
3483.14775	0.11112
3481.86198	0.11177
3480.57621	0.11227
3479.29045	0.11253
3478.00468	0.11265
3476.71891	0.11280
3475.43314	0.11303
3474.14737	0.11330
3472.86160	0.11355
3471.57583	0.11379
3470.29006	0.11416
3469.00429	0.11477
3467.71853	0.11560
3466.43276	0.11647
3465.14699	0.11712
3463.86122	0.11746
3462.57545	0.11760
3461.28968	0.11769
3460.00391	0.11782
3458.71814	0.11802
3457.43238	0.11830
3456.14661	0.11864
3454.86084	0.11896
3453.57507	0.11920
3452.28930	0.11947
3451.00353	0.12000
3449.71776	0.12084
3448.43199	0.12173
3447.14622	0.12226
3445.86046	0.12226
3444.57469	0.12200
3443.28892	0.12198
3442.00315	0.12246
3440.71738	0.12327
3439.43161	0.12395
3438.14584	0.12421
3436.86007	0.12420
3435.57431	0.12428
3434.28854	0.12469
3433.00277	0.12531
3431.71700	0.12589
3430.43123	0.12634
3429.14546	0.12671
3427.85969	0.12700
3426.57392	0.12718
3425.28815	0.12723
3424.00239	0.12728
3422.71662	0.12748
3421.43085	0.12792
3420.14508	0.12852
3418.85931	0.12911
3417.57354	0.12951
3416.28777	0.12971
3415.00200	0.13002
3413.71624	0.13072
3412.43047	0.13175
3411.14470	0.13270
3409.85893	0.13325
3408.57316	0.13352
3407.28739	0.13387
3406.00162	0.13455
3404.71585	0.13549
3403.43008	0.13642
3402.14432	0.13713
3400.85855	0.13749
3399.57278	0.13746
3398.28701	0.13707
3397.00124	0.13656
3395.71547	0.13637
3394.42970	0.13679
3393.14393	0.13774
3391.85817	0.13880
3390.57240	0.13955
3389.28663	0.13983
3388.00086	0.13981
3386.71509	0.13986
3385.42932	0.14024
3384.14355	0.14097
3382.85778	0.14181
3381.57201	0.14254
3380.28625	0.14308
3379.00048	0.14351
3377.71471	0.14390
3376.42894	0.14433
3375.14317	0.14484
3373.85740	0.14547
3372.57163	0.14617
3371.28586	0.14681
3370.00010	0.14728
3368.71433	0.14763
3367.42856	0.14807
3366.14279	0.14878
3364.85702	0.14972
3363.57125	0.15070
3362.28548	0.15163
3360.99971	0.15256
3359.71394	0.15361
3358.42818	0.15470
3357.14241	0.15566
3355.85664	0.15642
3354.57087	0.15700
3353.28510	0.15748
3351.99933	0.15787
3350.71356	0.15825
3349.42779	0.15876
3348.14202	0.15946
3346.85626	0.16027
3345.57049	0.16105
3344.28472	0.16175
3342.99895	0.16240
3341.71318	0.16311
3340.42741	0.16390
3339.14164	0.16474
3337.85587	0.16560
3336.57011	0.16649
3335.28434	0.16737
3333.99857	0.16815
3332.71280	0.16873
3331.42703	0.16912
3330.14126	0.16942
3328.85549	0.16983
3327.56972	0.17046
3326.28395	0.17125
3324.99819	0.17207
3323.71242	0.17280
3322.42665	0.17338
3321.14088	0.17387
3319.85511	0.17440
3318.56934	0.17511
3317.28357	0.17601
3315.99780	0.17699
3314.71204	0.17784
3313.42627	0.17846
3312.14050	0.17887
3310.85473	0.17917
3309.56896	0.17945
3308.28319	0.17980
3306.99742	0.18020
3305.71165	0.18062
3304.42588	0.18098
3303.14012	0.18127
3301.85435	0.18158
3300.56858	0.18199
3299.28281	0.18250
3297.99704	0.18299
3296.71127	0.18332
3295.42550	0.18346
3294.13973	0.18356
3292.85397	0.18383
3291.56820	0.18430
3290.28243	0.18471
3288.99666	0.18477
3287.71089	0.18450
3286.42512	0.18420
3285.13935	0.18412
3283.85358	0.18421
3282.56781	0.18427
3281.28205	0.18417
3279.99628	0.18394
3278.71051	0.18372
3277.42474	0.18362
3276.13897	0.18367
3274.85320	0.18377
3273.56743	0.18381
3272.28166	0.18377
3270.99590	0.18365
3269.71013	0.18339
3268.42436	0.18296
3267.13859	0.18246
3265.85282	0.18207
3264.56705	0.18182
3263.28128	0.18156
3261.99551	0.18108
3260.70974	0.18031
3259.42398	0.17938
3258.13821	0.17843
3256.85244	0.17756
3255.56667	0.17679
3254.28090	0.17610
3252.99513	0.17548
3251.70936	0.17497
3250.42359	0.17462
3249.13783	0.17441
3247.85206	0.17420
3246.56629	0.17385
3245.28052	0.17328
3243.99475	0.17251
3242.70898	0.17161
3241.42321	0.17065
3240.13744	0.16974
3238.85167	0.16901
3237.56591	0.16853
3236.28014	0.16832
3234.99437	0.16834
3233.70860	0.16843
3232.42283	0.16833
3231.13706	0.16784
3229.85129	0.16699
3228.56552	0.16598
3227.27976	0.16496
3225.99399	0.16402
3224.70822	0.16326
3223.42245	0.16290
3222.13668	0.16299
3220.85091	0.16331
3219.56514	0.16350
3218.27937	0.16339
3216.99360	0.16306
3215.70784	0.16270
3214.42207	0.16241
3213.13630	0.16216
3211.85053	0.16180
3210.56476	0.16124
3209.27899	0.16057
3207.99322	0.16009
3206.70745	0.15999
3205.42169	0.16013
3204.13592	0.16017
3202.85015	0.15990
3201.56438	0.15928
3200.27861	0.15838
3198.99284	0.15733
3197.70707	0.15637
3196.42130	0.15579
3195.13553	0.15566
3193.84977	0.15576
3192.56400	0.15576
3191.27823	0.15549
3189.99246	0.15499
3188.70669	0.15439
3187.42092	0.15369
3186.13515	0.15288
3184.84938	0.15196
3183.56362	0.15106
3182.27785	0.15028
3180.99208	0.14970
3179.70631	0.14927
3178.42054	0.14881
3177.13477	0.14816
3175.84900	0.14730
3174.56323	0.14638
3173.27746	0.14564
3171.99170	0.14519
3170.70593	0.14496
3169.42016	0.14471
3168.13439	0.14423
3166.84862	0.14353
3165.56285	0.14286
3164.27708	0.14243
3162.99131	0.14222
3161.70555	0.14198
3160.41978	0.14158
3159.13401	0.14107
3157.84824	0.14056
3156.56247	0.14003
3155.27670	0.13933
3153.99093	0.13844
3152.70516	0.13751
3151.41939	0.13675
3150.13363	0.13617
3148.84786	0.13571
3147.56209	0.13525
3146.27632	0.13475
3144.99055	0.13410
3143.70478	0.13322
3142.41901	0.13216
3141.13324	0.13113
3139.84748	0.13038
3138.56171	0.13005
3137.27594	0.13007
3135.99017	0.13025
3134.70440	0.13045
3133.41863	0.13052
3132.13286	0.13035
3130.84709	0.12986
3129.56132	0.12912
3128.27556	0.12832
3126.98979	0.12765
3125.70402	0.12719
3124.41825	0.12695
3123.13248	0.12691
3121.84671	0.12698
3120.56094	0.12701
3119.27517	0.12688
3117.98940	0.12665
3116.70364	0.12646
3115.41787	0.12634
3114.13210	0.12620
3112.84633	0.12594
3111.56056	0.12562
3110.27479	0.12539
3108.98902	0.12537
3107.70325	0.12552
3106.41749	0.12573
3105.13172	0.12590
3103.84595	0.12601
3102.56018	0.12605
3101.27441	0.12602
3099.98864	0.12597
3098.70287	0.12598
3097.41710	0.12608
3096.13133	0.12624
3094.84557	0.12640
3093.55980	0.12652
3092.27403	0.12663
3090.98826	0.12676
3089.70249	0.12683
3088.41672	0.12677
3087.13095	0.12665
3085.84518	0.12667
3084.55942	0.12703
3083.27365	0.12762
3081.98788	0.12816
3080.70211	0.12839
3079.41634	0.12836
3078.13057	0.12826
3076.84480	0.12825
3075.55903	0.12830
3074.27326	0.12830
3072.98750	0.12820
3071.70173	0.12803
3070.41596	0.12791
3069.13019	0.12794
3067.84442	0.12814
3066.55865	0.12838
3065.27288	0.12846
3063.98711	0.12823
3062.70135	0.12769
3061.41558	0.12695
3060.12981	0.12618
3058.84404	0.12549
3057.55827	0.12492
3056.27250	0.12446
3054.98673	0.12412
3053.70096	0.12392
3052.41519	0.12387
3051.12943	0.12390
3049.84366	0.12381
3048.55789	0.12347
3047.27212	0.12292
3045.98635	0.12235
3044.70058	0.12195
3043.41481	0.12167
3042.12904	0.12135
3040.84328	0.12088
3039.55751	0.12028
3038.27174	0.11965
3036.98597	0.11905
3035.70020	0.11846
3034.41443	0.11790
3033.12866	0.11741
3031.84289	0.11698
3030.55712	0.11657
3029.27136	0.11615
3027.98559	0.11577
3026.69982	0.11546
3025.41405	0.11519
3024.12828	0.11485
3022.84251	0.11438
3021.55674	0.11379
3020.27097	0.11315
3018.98521	0.11252
3017.69944	0.11190
3016.41367	0.11130
3015.12790	0.11077
3013.84213	0.11044
3012.55636	0.11031
3011.27059	0.11023
3009.98482	0.11004
3008.69905	0.10969
3007.41329	0.10930
3006.12752	0.10898
3004.84175	0.10884
3003.55598	0.10891
3002.27021	0.10915
3000.98444	0.10946
2999.69867	0.10971
2998.41290	0.10983
2997.12714	0.10988
2995.84137	0.11000
2994.55560	0.11024
2993.26983	0.11054
2991.98406	0.11076
2990.69829	0.11085
2989.41252	0.11094
2988.12675	0.11120
2986.84098	0.11165
2985.55522	0.11220
2984.26945	0.11280
2982.98368	0.11348
2981.69791	0.11430
2980.41214	0.11518
2979.12637	0.11605
2977.84060	0.11690
2976.55483	0.11775
2975.26907	0.11854
2973.98330	0.11917
2972.69753	0.11967
2971.41176	0.12020
2970.12599	0.12087
2968.84022	0.12159
2967.55445	0.12224
2966.26868	0.12283
2964.98291	0.12353
2963.69715	0.12438
2962.41138	0.12524
2961.12561	0.12597
2959.83984	0.12657
2958.55407	0.12713
2957.26830	0.12760
2955.98253	0.12782
2954.69676	0.12770
2953.41100	0.12736
2952.12523	0.12702
2950.83946	0.12684
2949.55369	0.12685
2948.26792	0.12702
2946.98215	0.12733
2945.69638	0.12780
2944.41061	0.12838
2943.12484	0.12904
2941.83908	0.12972
2940.55331	0.13043
2939.26754	0.13119
2937.98177	0.13201
2936.69600	0.13282
2935.41023	0.13347
2934.12446	0.13391
2932.83869	0.13423
2931.55293	0.13459
2930.26716	0.13508
2928.98139	0.13566
2927.69562	0.13619
2926.40985	0.13653
2925.12408	0.13662
2923.83831	0.13649
2922.55254	0.13621
2921.26677	0.13581
2919.98101	0.13522
2918.69524	0.13446
2917.40947	0.13357
2916.12370	0.13256
2914.83793	0.13139
2913.55216	0.13005
2912.26639	0.12867
2910.98062	0.12741
2909.69486	0.12635
2908.40909	0.12548
2907.12332	0.12468
2905.83755	0.12380
2904.55178	0.12279
2903.26601	0.12178
2901.98024	0.12090
2900.69447	0.12011
2899.40870	0.11929
2898.12294	0.11840
2896.83717	0.11763
2895.55140	0.11708
2894.26563	0.11670
2892.97986	0.11633
2891.69409	0.11596
2890.40832	0.11571
2889.12255	0.11559
2887.83678	0.11550
2886.55102	0.11537
2885.26525	0.11521
2883.97948	0.11510
2882.69371	0.11506
2881.40794	0.11509
2880.12217	0.11517
2878.83640	0.11533
2877.55063	0.11556
2876.26487	0.11581
2874.97910	0.11593
2873.69333	0.11581
2872.40756	0.11550
2871.12179	0.11511
2869.83602	0.11468
2868.55025	0.11420
2867.26448	0.11367
2865.97871	0.11310
2864.69295	0.11254
2863.40718	0.11204
2862.12141	0.11174
2860.83564	0.11172
2859.54987	0.11195
2858.26410	0.11228
2856.97833	0.11262
2855.69256	0.11294
2854.40680	0.11316
2853.12103	0.11322
2851.83526	0.11305
2850.54949	0.11263
2849.26372	0.11191
2847.97795	0.11086
2846.69218	0.10953
2845.40641	0.10812
2844.12064	0.10682
2842.83488	0.10569
2841.54911	0.10470
2840.26334	0.10383
2838.97757	0.10309
2837.69180	0.10241
2836.40603	0.10168
2835.12026	0.10089
2833.83449	0.10018
2832.54873	0.09967
2831.26296	0.09936
2829.97719	0.09915
2828.69142	0.09896
2827.40565	0.09877
2826.11988	0.09857
2824.83411	0.09836
2823.54834	0.09811
2822.26257	0.09777
2820.97681	0.09730
2819.69104	0.09674
2818.40527	0.09618
2817.11950	0.09567
2815.83373	0.09520
2814.54796	0.09476
2813.26219	0.09442
2811.97642	0.09418
2810.69066	0.09402
2809.40489	0.09391
2808.11912	0.09384
2806.83335	0.09381
2805.54758	0.09376
2804.26181	0.09360
2802.97604	0.09332
2801.69027	0.09291
2800.40450	0.09243
2799.11874	0.09196
2797.83297	0.09156
2796.54720	0.09125
2795.26143	0.09104
2793.97566	0.09097
2792.68989	0.09099
2791.40412	0.09094
2790.11835	0.09070
2788.83259	0.09027
2787.54682	0.08982
2786.26105	0.08948
2784.97528	0.08935
2783.68951	0.08940
2782.40374	0.08954
2781.11797	0.08960
2779.83220	0.08947
2778.54643	0.08916
2777.26067	0.08880
2775.97490	0.08853
2774.68913	0.08835
2773.40336	0.08820
2772.11759	0.08799
2770.83182	0.08770
2769.54605	0.08741
2768.26028	0.08718
2766.97452	0.08701
2765.68875	0.08683
2764.40298	0.08658
2763.11721	0.08629
2761.83144	0.08605
2760.54567	0.08592
2759.25990	0.08588
2757.97413	0.08586
2756.68836	0.08581
2755.40260	0.08574
2754.11683	0.08563
2752.83106	0.08544
2751.54529	0.08513
2750.25952	0.08472
2748.97375	0.08433
2747.68798	0.08407
2746.40221	0.08400
2745.11645	0.08407
2743.83068	0.08417
2742.54491	0.08427
2741.25914	0.08430
2739.97337	0.08419
2738.68760	0.08390
2737.40183	0.08347
2736.11606	0.08306
2734.83029	0.08276
2733.54453	0.08256
2732.25876	0.08239
2730.97299	0.08222
2729.68722	0.08208
2728.40145	0.08196
2727.11568	0.08181
2725.82991	0.08154
2724.54414	0.08118
2723.25838	0.08079
2721.97261	0.08045
2720.68684	0.08022
2719.40107	0.08007
2718.11530	0.07999
2716.82953	0.07994
2715.54376	0.07990
2714.25799	0.07986
2712.97222	0.07978
2711.68646	0.07970
2710.40069	0.07966
2709.11492	0.07963
2707.82915	0.07951
2706.54338	0.07923
2705.25761	0.07886
2703.97184	0.07853
2702.68607	0.07832
2701.40031	0.07823
2700.11454	0.07822
2698.82877	0.07828
2697.54300	0.07836
2696.25723	0.07841
2694.97146	0.07840
2693.68569	0.07832
2692.39992	0.07817
2691.11415	0.07796
2689.82839	0.07772
2688.54262	0.07751
2687.25685	0.07740
2685.97108	0.07739
2684.68531	0.07739
2683.39954	0.07729
2682.11377	0.07708
2680.82800	0.07686
2679.54224	0.07679
2678.25647	0.07687
2676.97070	0.07702
2675.68493	0.07708
2674.39916	0.07698
2673.11339	0.07673
2671.82762	0.07645
2670.54185	0.07628
2669.25608	0.07625
2667.97032	0.07632
2666.68455	0.07638
2665.39878	0.07640
2664.11301	0.07641
2662.82724	0.07643
2661.54147	0.07640
2660.25570	0.07629
2658.96993	0.07611
2657.68417	0.07593
2656.39840	0.07576
2655.11263	0.07556
2653.82686	0.07531
2652.54109	0.07506
2651.25532	0.07484
2649.96955	0.07460
2648.68378	0.07425
2647.39801	0.07377
2646.11225	0.07329
2644.82648	0.07294
2643.54071	0.07275
2642.25494	0.07257
2640.96917	0.07227
2639.68340	0.07187
2638.39763	0.07154
2637.11186	0.07138
2635.82609	0.07137
2634.54033	0.07143
2633.25456	0.07148
2631.96879	0.07144
2630.68302	0.07126
2629.39725	0.07092
2628.11148	0.07051
2626.82571	0.07017
2625.53994	0.06993
2624.25418	0.06966
2622.96841	0.06928
2621.68264	0.06890
2620.39687	0.06871
2619.11110	0.06866
2617.82533	0.06856
2616.53956	0.06829
2615.25379	0.06794
2613.96802	0.06758
2612.68226	0.06723
2611.39649	0.06690
2610.11072	0.06665
2608.82495	0.06651
2607.53918	0.06646
2606.25341	0.06646
2604.96764	0.06644
2603.68187	0.06633
2602.39611	0.06614
2601.11034	0.06600
2599.82457	0.06602
2598.53880	0.06611
2597.25303	0.06613
2595.96726	0.06604
2594.68149	0.06587
2593.39572	0.06571
2592.10995	0.06563
2590.82419	0.06570
2589.53842	0.06580
2588.25265	0.06566
2586.96688	0.06513
2585.68111	0.06443
2584.39534	0.06392
2583.10957	0.06370
2581.82380	0.06357
2580.53804	0.06342
2579.25227	0.06332
2577.96650	0.06333
2576.68073	0.06337
2575.39496	0.06334
2574.10919	0.06320
2572.82342	0.06291
2571.53765	0.06248
2570.25188	0.06206
2568.96612	0.06183
2567.68035	0.06184
2566.39458	0.06188
2565.10881	0.06177
2563.82304	0.06151
2562.53727	0.06132
2561.25150	0.06134
2559.96573	0.06143
2558.67997	0.06136
2557.39420	0.06113
2556.10843	0.06093
2554.82266	0.06090
2553.53689	0.06092
2552.25112	0.06075
2550.96535	0.06033
2549.67958	0.05981
2548.39381	0.05942
2547.10805	0.05925
2545.82228	0.05920
2544.53651	0.05916
2543.25074	0.05906
2541.96497	0.05891
2540.67920	0.05874
2539.39343	0.05854
2538.10766	0.05826
2536.82190	0.05791
2535.53613	0.05760
2534.25036	0.05737
2532.96459	0.05713
2531.67882	0.05685
2530.39305	0.05666
2529.10728	0.05677
2527.82151	0.05717
2526.53574	0.05769
2525.24998	0.05813
2523.96421	0.05837
2522.67844	0.05833
2521.39267	0.05806
2520.10690	0.05771
2518.82113	0.05746
2517.53536	0.05731
2516.24959	0.05720
2514.96383	0.05708
2513.67806	0.05698
2512.39229	0.05694
2511.10652	0.05693
2509.82075	0.05688
2508.53498	0.05677
2507.24921	0.05666
2505.96344	0.05664
2504.67767	0.05667
2503.39191	0.05662
2502.10614	0.05637
2500.82037	0.05603
2499.53460	0.05581
2498.24883	0.05571
2496.96306	0.05554
2495.67729	0.05518
2494.39152	0.05481
2493.10576	0.05473
2491.81999	0.05499
2490.53422	0.05533
2489.24845	0.05549
2487.96268	0.05544
2486.67691	0.05524
2485.39114	0.05497
2484.10537	0.05471
2482.81960	0.05458
2481.53384	0.05457
2480.24807	0.05462
2478.96230	0.05467
2477.67653	0.05473
2476.39076	0.05480
2475.10499	0.05486
2473.81922	0.05489
2472.53345	0.05491
2471.24769	0.05489
2469.96192	0.05475
2468.67615	0.05444
2467.39038	0.05412
2466.10461	0.05399
2464.81884	0.05415
2463.53307	0.05441
2462.24730	0.05451
2460.96153	0.05431
2459.67577	0.05393
2458.39000	0.05359
2457.10423	0.05350
2455.81846	0.05365
2454.53269	0.05396
2453.24692	0.05429
2451.96115	0.05454
2450.67538	0.05460
2449.38962	0.05443
2448.10385	0.05404
2446.81808	0.05351
2445.53231	0.05295
2444.24654	0.05257
2442.96077	0.05255
2441.67500	0.05283
2440.38923	0.05318
2439.10346	0.05336
2437.81770	0.05327
2436.53193	0.05300
2435.24616	0.05276
2433.96039	0.05267
2432.67462	0.05270
2431.38885	0.05273
2430.10308	0.05272
2428.81731	0.05273
2427.53155	0.05283
2426.24578	0.05296
2424.96001	0.05299
2423.67424	0.05289
2422.38847	0.05276
2421.10270	0.05275
2419.81693	0.05288
2418.53116	0.05306
2417.24539	0.05310
2415.95963	0.05295
2414.67386	0.05270
2413.38809	0.05249
2412.10232	0.05242
2410.81655	0.05241
2409.53078	0.05230
2408.24501	0.05198
2406.95924	0.05152
2405.67347	0.05115
2404.38771	0.05099
2403.10194	0.05103
2401.81617	0.05114
2400.53040	0.05123
2399.24463	0.05116
2397.95886	0.05104
2396.67309	0.05094
2395.38732	0.05094
2394.10156	0.05104
2392.81579	0.05117
2391.53002	0.05128
2390.24425	0.05141
2388.95848	0.05157
2387.67271	0.05170
2386.38694	0.05168
2385.10117	0.05151
2383.81540	0.05132
2382.52964	0.05120
2381.24387	0.05118
2379.95810	0.05121
2378.67233	0.05123
2377.38656	0.05133
2376.10079	0.05157
2374.81502	0.05184
2373.52925	0.05183
2372.24349	0.05157
2370.95772	0.05138
2369.67195	0.05138
2368.38618	0.05160
2367.10041	0.05191
2365.81464	0.05219
2364.52887	0.05237
2363.24310	0.05249
2361.95733	0.05258
2360.67157	0.05263
2359.38580	0.05259
2358.10003	0.05246
2356.81426	0.05232
2355.52849	0.05231
2354.24272	0.05246
2352.95695	0.05257
2351.67118	0.05239
2350.38542	0.05216
2349.09965	0.05220
2347.81388	0.05242
2346.52811	0.05257
2345.24234	0.05264
2343.95657	0.05274
2342.67080	0.05299
2341.38503	0.05289
2340.09926	0.05251
2338.81350	0.05231
2337.52773	0.05215
2336.24196	0.05162
2334.95619	0.05116
2333.67042	0.05117
2332.38465	0.05148
2331.09888	0.05129
2329.81311	0.05132
2328.52735	0.05172
2327.24158	0.05213
2325.95581	0.05265
2324.67004	0.05306
2323.38427	0.05319
2322.09850	0.05276
2320.81273	0.05215
2319.52696	0.05156
2318.24119	0.05109
2316.95543	0.05075
2315.66966	0.05051
2314.38389	0.05033
2313.09812	0.05000
2311.81235	0.04947
2310.52658	0.04893
2309.24081	0.04849
2307.95504	0.04812
2306.66928	0.04779
2305.38351	0.04747
2304.09774	0.04729
2302.81197	0.04731
2301.52620	0.04740
2300.24043	0.04733
2298.95466	0.04701
2297.66889	0.04652
2296.38312	0.04603
2295.09736	0.04568
2293.81159	0.04553
2292.52582	0.04553
2291.24005	0.04556
2289.95428	0.04551
2288.66851	0.04536
2287.38274	0.04523
2286.09697	0.04513
2284.81121	0.04496
2283.52544	0.04464
2282.23967	0.04423
2280.95390	0.04383
2279.66813	0.04348
2278.38236	0.04315
2277.09659	0.04290
2275.81082	0.04270
2274.52505	0.04245
2273.23929	0.04203
2271.95352	0.04152
2270.66775	0.04103
2269.38198	0.04050
2268.09621	0.03977
2266.81044	0.03894
2265.52467	0.03831
2264.23890	0.03817
2262.95314	0.03852
2261.66737	0.03916
2260.38160	0.03982
2259.09583	0.04031
2257.81006	0.04051
2256.52429	0.04039
2255.23852	0.03995
2253.95275	0.03922
2252.66698	0.03832
2251.38122	0.03753
2250.09545	0.03717
2248.80968	0.03739
2247.52391	0.03781
2246.23814	0.03833
2244.95237	0.03866
2243.66660	0.03854
2242.38083	0.03801
2241.09507	0.03738
2239.80930	0.03703
2238.52353	0.03715
2237.23776	0.03753
2235.95199	0.03770
2234.66622	0.03735
2233.38045	0.03663
2232.09468	0.03596
2230.80891	0.03563
2229.52315	0.03562
2228.23738	0.03569
2226.95161	0.03569
2225.66584	0.03554
2224.38007	0.03526
2223.09430	0.03502
2221.80853	0.03503
2220.52276	0.03531
2219.23700	0.03553
2217.95123	0.03527
2216.66546	0.03442
2215.37969	0.03329
2214.09392	0.03238
2212.80815	0.03196
2211.52238	0.03184
2210.23661	0.03167
2208.95084	0.03143
2207.66508	0.03146
2206.37931	0.03194
2205.09354	0.03260
2203.80777	0.03293
2202.52200	0.03260
2201.23623	0.03159
2199.95046	0.03024
2198.66469	0.02917
2197.37893	0.02892
2196.09316	0.02957
2194.80739	0.03067
2193.52162	0.03163
2192.23585	0.03202
2190.95008	0.03169
2189.66431	0.03083
2188.37854	0.02987
2187.09277	0.02917
2185.80701	0.02877
2184.52124	0.02855
2183.23547	0.02863
2181.94970	0.02929
2180.66393	0.03043
2179.37816	0.03139
2178.09239	0.03146
2176.80662	0.03060
2175.52085	0.02938
2174.23509	0.02833
2172.94932	0.02765
2171.66355	0.02726
2170.37778	0.02707
2169.09201	0.02705
2167.80624	0.02698
2166.52047	0.02646
2165.23470	0.02513
2163.94894	0.02336
2162.66317	0.02218
2161.37740	0.02236
2160.09163	0.02347
2158.80586	0.02412
2157.52009	0.02340
2156.23432	0.02180
2154.94855	0.02075
2153.66278	0.02139
2152.37702	0.02368
2151.09125	0.02650
2149.80548	0.02860
2148.51971	0.02949
2147.23394	0.02937
2145.94817	0.02864
2144.66240	0.02766
2143.37663	0.02684
2142.09087	0.02650
2140.80510	0.02668
2139.51933	0.02722
2138.23356	0.02781
2136.94779	0.02825
2135.66202	0.02860
2134.37625	0.02907
2133.09048	0.02977
2131.80471	0.03049
2130.51895	0.03100
2129.23318	0.03127
2127.94741	0.03143
2126.66164	0.03163
2125.37587	0.03201
2124.09010	0.03252
2122.80433	0.03295
2121.51856	0.03313
2120.23280	0.03318
2118.94703	0.03333
2117.66126	0.03370
2116.37549	0.03410
2115.08972	0.03431
2113.80395	0.03416
2112.51818	0.03371
2111.23241	0.03319
2109.94664	0.03288
2108.66088	0.03292
2107.37511	0.03320
2106.08934	0.03358
2104.80357	0.03395
2103.51780	0.03418
2102.23203	0.03415
2100.94626	0.03376
2099.66049	0.03263
2098.37473	0.03166
2097.08896	0.03099
2095.80319	0.03061
2094.51742	0.03066
2093.23165	0.03119
2091.94588	0.03187
2090.66011	0.03219
2089.37434	0.03184
2088.08857	0.03106
2086.80281	0.03042
2085.51704	0.03023
2084.23127	0.03039
2082.94550	0.03066
2081.65973	0.03092
2080.37396	0.03118
2079.08819	0.03132
2077.80242	0.03113
2076.51666	0.03063
2075.23089	0.03009
2073.94512	0.02976
2072.65935	0.02956
2071.37358	0.02924
2070.08781	0.02871
2068.80204	0.02826
2067.51627	0.02819
2066.23050	0.02853
2064.94474	0.02899
2063.65897	0.02922
2062.37320	0.02907
2061.08743	0.02863
2059.80166	0.02817
2058.51589	0.02794
2057.23012	0.02800
2055.94435	0.02813
2054.65859	0.02806
2053.37282	0.02767
2052.08705	0.02701
2050.80128	0.02624
2049.51551	0.02546
2048.22974	0.02473
2046.94397	0.02413
2045.65820	0.02375
2044.37243	0.02351
2043.08667	0.02321
2041.80090	0.02273
2040.51513	0.02206
2039.22936	0.02126
2037.94359	0.02042
2036.65782	0.01972
2035.37205	0.01950
2034.08628	0.01986
2032.80052	0.02051
2031.51475	0.02096
2030.22898	0.02098
2028.94321	0.02078
2027.65744	0.02077
2026.37167	0.02127
2025.08590	0.02231
2023.80013	0.02345
2022.51436	0.02394
2021.22860	0.02328
2019.94283	0.02178
2018.65706	0.02036
2017.37129	0.01968
2016.08552	0.01969
2014.79975	0.02005
2013.51398	0.02055
2012.22821	0.02105
2010.94245	0.02126
2009.65668	0.02103
2008.37091	0.02060
2007.08514	0.02042
2005.79937	0.02070
2004.51360	0.02132
2003.22783	0.02203
2001.94206	0.02250
2000.65629	0.02249
1999.37053	0.02208
1998.08476	0.02170
1996.79899	0.02183
1995.51322	0.02255
1994.22745	0.02353
1992.94168	0.02421
1991.65591	0.02416
1990.37014	0.02357
1989.08438	0.02304
1987.79861	0.02302
1986.51284	0.02334
1985.22707	0.02357
1983.94130	0.02345
1982.65553	0.02298
1981.36976	0.02219
1980.08399	0.02109
1978.79822	0.01983
1977.51246	0.01865
1976.22669	0.01792
1974.94092	0.01803
1973.65515	0.01914
1972.36938	0.02091
1971.08361	0.02253
1969.79784	0.02332
1968.51207	0.02322
1967.22631	0.02272
1965.94054	0.02244
1964.65477	0.02267
1963.36900	0.02325
1962.08323	0.02391
1960.79746	0.02447
1959.51169	0.02488
1958.22592	0.02507
1956.94015	0.02496
1955.65439	0.02467
1954.36862	0.02444
1953.08285	0.02450
1951.79708	0.02482
1950.51131	0.02510
1949.22554	0.02500
1947.93977	0.02449
1946.65400	0.02385
1945.36823	0.02350
1944.08247	0.02363
1942.79670	0.02410
1941.51093	0.02458
1940.22516	0.02481
1938.93939	0.02482
1937.65362	0.02486
1936.36785	0.02517
1935.08208	0.02573
1933.79632	0.02620
1932.51055	0.02629
1931.22478	0.02610
1929.93901	0.02600
1928.65324	0.02625
1927.36747	0.02677
1926.08170	0.02723
1924.79593	0.02736
1923.51016	0.02713
1922.22440	0.02675
1920.93863	0.02649
1919.65286	0.02645
1918.36709	0.02646
1917.08132	0.02638
1915.79555	0.02633
1914.50978	0.02652
1913.22401	0.02692
1911.93825	0.02736
1910.65248	0.02764
1909.36671	0.02763
1908.08094	0.02737
1906.79517	0.02708
1905.50940	0.02700
1904.22363	0.02718
1902.93786	0.02747
1901.65209	0.02766
1900.36633	0.02764
1899.08056	0.02742
1897.79479	0.02713
1896.50902	0.02687
1895.22325	0.02673
1893.93748	0.02672
1892.65171	0.02684
1891.36594	0.02708
1890.08018	0.02739
1888.79441	0.02767
1887.50864	0.02788
1886.22287	0.02804
1884.93710	0.02817
1883.65133	0.02823
1882.36556	0.02812
1881.07979	0.02781
1879.79402	0.02738
1878.50826	0.02703
1877.22249	0.02688
1875.93672	0.02693
1874.65095	0.02708
1873.36518	0.02725
1872.07941	0.02743
1870.79364	0.02762
1869.50787	0.02777
1868.22211	0.02782
1866.93634	0.02781
1865.65057	0.02775
1864.36480	0.02760
1863.07903	0.02739
1861.79326	0.02727
1860.50749	0.02729
1859.22172	0.02737
1857.93595	0.02736
1856.65019	0.02724
1855.36442	0.02713
1854.07865	0.02705
1852.79288	0.02697
1851.50711	0.02684
1850.22134	0.02674
1848.93557	0.02670
1847.64980	0.02678
1846.36404	0.02700
1845.07827	0.02729
1843.79250	0.02738
1842.50673	0.02717
1841.22096	0.02687
1839.93519	0.02671
1838.64942	0.02666
1837.36365	0.02659
1836.07788	0.02647
1834.79212	0.02633
1833.50635	0.02629
1832.22058	0.02640
1830.93481	0.02659
1829.64904	0.02670
1828.36327	0.02670
1827.07750	0.02673
1825.79173	0.02679
1824.50597	0.02672
1823.22020	0.02648
1821.93443	0.02619
1820.64866	0.02597
1819.36289	0.02585
1818.07712	0.02581
1816.79135	0.02585
1815.50558	0.02595
1814.21981	0.02612
1812.93405	0.02630
1811.64828	0.02641
1810.36251	0.02643
1809.07674	0.02641
1807.79097	0.02637
1806.50520	0.02629
1805.21943	0.02614
1803.93366	0.02600
1802.64790	0.02594
1801.36213	0.02596
1800.07636	0.02597
1798.79059	0.02593
1797.50482	0.02584
1796.21905	0.02575
1794.93328	0.02580
1793.64751	0.02601
1792.36174	0.02621
1791.07598	0.02618
1789.79021	0.02598
1788.50444	0.02577
1787.21867	0.02566
1785.93290	0.02564
1784.64713	0.02564
1783.36136	0.02562
1782.07559	0.02560
1780.78983	0.02555
1779.50406	0.02545
1778.21829	0.02536
1776.93252	0.02535
1775.64675	0.02548
1774.36098	0.02578
1773.07521	0.02606
1771.78944	0.02608
1770.50367	0.02597
1769.21791	0.02597
1767.93214	0.02605
1766.64637	0.02603
1765.36060	0.02600
1764.07483	0.02613
1762.78906	0.02633
1761.50329	0.02637
1760.21752	0.02629
1758.93176	0.02635
1757.64599	0.02665
1756.36022	0.02699
1755.07445	0.02729
1753.78868	0.02773
1752.50291	0.02835
1751.21714	0.02892
1749.93137	0.02926
1748.64560	0.02956
1747.35984	0.03001
1746.07407	0.03058
1744.78830	0.03116
1743.50253	0.03171
1742.21676	0.03228
1740.93099	0.03292
1739.64522	0.03349
1738.35945	0.03394
1737.07369	0.03457
1735.78792	0.03560
1734.50215	0.03661
1733.21638	0.03709
1731.93061	0.03718
1730.64484	0.03742
1729.35907	0.03793
1728.07330	0.03850
1726.78753	0.03905
1725.50177	0.03968
1724.21600	0.04031
1722.93023	0.04078
1721.64446	0.04109
1720.35869	0.04155
1719.07292	0.04230
1717.78715	0.04306
1716.50138	0.04353
1715.21561	0.04385
1713.92985	0.04435
1712.64408	0.04515
1711.35831	0.04620
1710.07254	0.04741
1708.78677	0.04870
1707.50100	0.05009
1706.21523	0.05155
1704.92946	0.05300
1703.64370	0.05463
1702.35793	0.05686
1701.07216	0.05948
1699.78639	0.06189
1698.50062	0.06423
1697.21485	0.06709
1695.92908	0.07034
1694.64331	0.07324
1693.35754	0.07584
1692.07178	0.07863
1690.78601	0.08160
1689.50024	0.08442
1688.21447	0.08719
1686.92870	0.09040
1685.64293	0.09410
1684.35716	0.09763
1683.07139	0.10062
1681.78563	0.10353
1680.49986	0.10684
1679.21409	0.11046
1677.92832	0.11429
1676.64255	0.11835
1675.35678	0.12246
1674.07101	0.12643
1672.78524	0.13043
1671.49947	0.13472
1670.21371	0.13917
1668.92794	0.14346
1667.64217	0.14748
1666.35640	0.15144
1665.07063	0.15555
1663.78486	0.15973
1662.49909	0.16372
1661.21332	0.16742
1659.92756	0.17088
1658.64179	0.17408
1657.35602	0.17704
1656.07025	0.18014
1654.78448	0.18372
1653.49871	0.18721
1652.21294	0.18969
1650.92717	0.19122
1649.64140	0.19276
1648.35564	0.19477
1647.06987	0.19682
1645.78410	0.19838
1644.49833	0.19947
1643.21256	0.20047
1641.92679	0.20156
1640.64102	0.20267
1639.35525	0.20371
1638.06949	0.20483
1636.78372	0.20602
1635.49795	0.20693
1634.21218	0.20734
1632.92641	0.20746
1631.64064	0.20758
1630.35487	0.20758
1629.06910	0.20714
1627.78333	0.20607
1626.49757	0.20443
1625.21180	0.20246
1623.92603	0.20018
1622.64026	0.19736
1621.35449	0.19388
1620.06872	0.19002
1618.78295	0.18615
1617.49718	0.18223
1616.21142	0.17795
1614.92565	0.17330
1613.63988	0.16862
1612.35411	0.16411
1611.06834	0.15962
1609.78257	0.15511
1608.49680	0.15067
1607.21103	0.14638
1605.92526	0.14227
1604.63950	0.13832
1603.35373	0.13456
1602.06796	0.13102
1600.78219	0.12771
1599.49642	0.12464
1598.21065	0.12180
1596.92488	0.11917
1595.63911	0.11675
1594.35335	0.11451
1593.06758	0.11244
1591.78181	0.11056
1590.49604	0.10891
1589.21027	0.10751
1587.92450	0.10638
1586.63873	0.10552
1585.35296	0.10493
1584.06719	0.10455
1582.78143	0.10431
1581.49566	0.10411
1580.20989	0.10400
1578.92412	0.10425
1577.63835	0.10510
1576.35258	0.10624
1575.06681	0.10726
1573.78104	0.10828
1572.49528	0.10974
1571.20951	0.11167
1569.92374	0.11372
1568.63797	0.11570
1567.35220	0.11773
1566.06643	0.12000
1564.78066	0.12235
1563.49489	0.12465
1562.20912	0.12720
1560.92336	0.13025
1559.63759	0.13342
1558.35182	0.13607
1557.06605	0.13829
1555.78028	0.14065
1554.49451	0.14330
1553.20874	0.14591
1551.92297	0.14834
1550.63721	0.15065
1549.35144	0.15280
1548.06567	0.15473
1546.77990	0.15656
1545.49413	0.15829
1544.20836	0.15985
1542.92259	0.16132
1541.63682	0.16285
1540.35105	0.16431
1539.06529	0.16525
1537.77952	0.16562
1536.49375	0.16591
1535.20798	0.16649
1533.92221	0.16713
1532.63644	0.16745
1531.35067	0.16746
1530.06490	0.16742
1528.77914	0.16740
1527.49337	0.16732
1526.20760	0.16708
1524.92183	0.16674
1523.63606	0.16653
1522.35029	0.16647
1521.06452	0.16621
1519.77875	0.16563
1518.49298	0.16498
1517.20722	0.16435
1515.92145	0.16345
1514.63568	0.16211
1513.34991	0.16043
1512.06414	0.15842
1510.77837	0.15609
1509.49260	0.15369
1508.20683	0.15138
1506.92107	0.14893
1505.63530	0.14598
1504.34953	0.14268
1503.06376	0.13952
1501.77799	0.13669
1500.49222	0.13395
1499.20645	0.13114
1497.92068	0.12826
1496.63491	0.12524
1495.34915	0.12203
1494.06338	0.11879
1492.77761	0.11581
1491.49184	0.11310
1490.20607	0.11048
1488.92030	0.10785
1487.63453	0.10534
1486.34876	0.10302
1485.06299	0.10094
1483.77723	0.09916
1482.49146	0.09772
1481.20569	0.09658
1479.91992	0.09574
1478.63415	0.09524
1477.34838	0.09510
1476.06261	0.09533
1474.77684	0.09594
1473.49108	0.09690
1472.20531	0.09798
1470.91954	0.09902
1469.63377	0.10010
1468.34800	0.10128
1467.06223	0.10250
1465.77646	0.10362
1464.49069	0.10454
1463.20492	0.10532
1461.91916	0.10612
1460.63339	0.10713
1459.34762	0.10848
1458.06185	0.11007
1456.77608	0.11145
1455.49031	0.11234
1454.20454	0.11297
1452.91877	0.11360
1451.63301	0.11416
1450.34724	0.11451
1449.06147	0.11467
1447.77570	0.11464
1446.48993	0.11440
1445.20416	0.11401
1443.91839	0.11351
1442.63262	0.11288
1441.34685	0.11209
1440.06109	0.11122
1438.77532	0.11042
1437.48955	0.10961
1436.20378	0.10854
1434.91801	0.10716
1433.63224	0.10577
1432.34647	0.10457
1431.06070	0.10352
1429.77494	0.10254
1428.48917	0.10162
1427.20340	0.10086
1425.91763	0.10029
1424.63186	0.09985
1423.34609	0.09947
1422.06032	0.09930
1420.77455	0.09945
1419.48878	0.09969
1418.20302	0.09976
1416.91725	0.09969
1415.63148	0.09969
1414.34571	0.09983
1413.05994	0.10002
1411.77417	0.10017
1410.48840	0.10025
1409.20263	0.10026
1407.91687	0.10027
1406.63110	0.10031
1405.34533	0.10038
1404.05956	0.10039
1402.77379	0.10037
1401.48802	0.10038
1400.20225	0.10039
1398.91648	0.10030
1397.63071	0.10010
1396.34495	0.09995
1395.05918	0.09990
1393.77341	0.09986
1392.48764	0.09981
1391.20187	0.09980
1389.91610	0.09985
1388.63033	0.09991
1387.34456	0.09986
1386.05880	0.09967
1384.77303	0.09945
1383.48726	0.09925
1382.20149	0.09905
1380.91572	0.09877
1379.62995	0.09843
1378.34418	0.09804
1377.05841	0.09764
1375.77264	0.09727
1374.48688	0.09686
1373.20111	0.09632
1371.91534	0.09563
1370.62957	0.09486
1369.34380	0.09406
1368.05803	0.09321
1366.77226	0.09229
1365.48649	0.09138
1364.20073	0.09053
1362.91496	0.08974
1361.62919	0.08897
1360.34342	0.08824
1359.05765	0.08760
1357.77188	0.08711
1356.48611	0.08679
1355.20034	0.08661
1353.91457	0.08657
1352.62881	0.08663
1351.34304	0.08678
1350.05727	0.08701
1348.77150	0.08731
1347.48573	0.08769
1346.19996	0.08811
1344.91419	0.08856
1343.62842	0.08900
1342.34266	0.08943
1341.05689	0.08981
1339.77112	0.09010
1338.48535	0.09027
1337.19958	0.09033
1335.91381	0.09029
1334.62804	0.09013
1333.34227	0.08984
1332.05650	0.08943
1330.77074	0.08896
1329.48497	0.08846
1328.19920	0.08797
1326.91343	0.08749
1325.62766	0.08705
1324.34189	0.08665
1323.05612	0.08631
1321.77035	0.08606
1320.48459	0.08589
1319.19882	0.08579
1317.91305	0.08570
1316.62728	0.08562
1315.34151	0.08553
1314.05574	0.08539
1312.76997	0.08517
1311.48420	0.08489
1310.19843	0.08459
1308.91267	0.08431
1307.62690	0.08406
1306.34113	0.08386
1305.05536	0.08373
1303.76959	0.08366
1302.48382	0.08361
1301.19805	0.08354
1299.91228	0.08346
1298.62652	0.08338
1297.34075	0.08333
1296.05498	0.08333
1294.76921	0.08341
1293.48344	0.08356
1292.19767	0.08379
1290.91190	0.08407
1289.62613	0.08440
1288.34036	0.08478
1287.05460	0.08520
1285.76883	0.08565
1284.48306	0.08611
1283.19729	0.08652
1281.91152	0.08686
1280.62575	0.08712
1279.33998	0.08732
1278.05421	0.08751
1276.76845	0.08771
1275.48268	0.08789
1274.19691	0.08805
1272.91114	0.08818
1271.62537	0.08831
1270.33960	0.08850
1269.05383	0.08878
1267.76806	0.08913
1266.48229	0.08954
1265.19653	0.08997
1263.91076	0.09041
1262.62499	0.09087
1261.33922	0.09140
1260.05345	0.09202
1258.76768	0.09267
1257.48191	0.09334
1256.19614	0.09402
1254.91037	0.09474
1253.62461	0.09551
1252.33884	0.09629
1251.05307	0.09708
1249.76730	0.09790
1248.48153	0.09881
1247.19576	0.09978
1245.90999	0.10078
1244.62422	0.10176
1243.33846	0.10271
1242.05269	0.10360
1240.76692	0.10441
1239.48115	0.10511
1238.19538	0.10568
1236.90961	0.10612
1235.62384	0.10647
1234.33807	0.10675
1233.05230	0.10692
1231.76654	0.10694
1230.48077	0.10677
1229.19500	0.10643
1227.90923	0.10594
1226.62346	0.10533
1225.33769	0.10462
1224.05192	0.10383
1222.76615	0.10300
1221.48039	0.10214
1220.19462	0.10124
1218.90885	0.10030
1217.62308	0.09937
1216.33731	0.09852
1215.05154	0.09780
1213.76577	0.09721
1212.48000	0.09674
1211.19423	0.09634
1209.90847	0.09602
1208.62270	0.09575
1207.33693	0.09555
1206.05116	0.09540
1204.76539	0.09526
1203.47962	0.09507
1202.19385	0.09479
1200.90808	0.09439
1199.62232	0.09389
1198.33655	0.09318
1197.05078	0.09237
1195.76501	0.09153
1194.47924	0.09068
1193.19347	0.08985
1191.90770	0.08904
1190.62193	0.08825
1189.33616	0.08752
1188.05040	0.08689
1186.76463	0.08638
1185.47886	0.08595
1184.19309	0.08556
1182.90732	0.08521
1181.62155	0.08491
1180.33578	0.08470
1179.05001	0.08454
1177.76425	0.08440
1176.47848	0.08426
1175.19271	0.08413
1173.90694	0.08403
1172.62117	0.08397
1171.33540	0.08396
1170.04963	0.08397
1168.76386	0.08397
1167.47809	0.08391
1166.19233	0.08381
1164.90656	0.08371
1163.62079	0.08363
1162.33502	0.08359
1161.04925	0.08353
1159.76348	0.08340
1158.47771	0.08314
1157.19194	0.08272
1155.90618	0.08214
1154.62041	0.08148
1153.33464	0.08084
1152.04887	0.08027
1150.76310	0.07970
1149.47733	0.07906
1148.19156	0.07834
1146.90579	0.07762
1145.62002	0.07695
1144.33426	0.07634
1143.04849	0.07579
1141.76272	0.07526
1140.47695	0.07472
1139.19118	0.07416
1137.90541	0.07357
1136.61964	0.07302
1135.33387	0.07259
1134.04811	0.07232
1132.76234	0.07215
1131.47657	0.07199
1130.19080	0.07180
1128.90503	0.07161
1127.61926	0.07143
1126.33349	0.07128
1125.04772	0.07114
1123.76195	0.07101
1122.47619	0.07088
1121.19042	0.07075
1119.90465	0.07063
1118.61888	0.07052
1117.33311	0.07047
1116.04734	0.07047
1114.76157	0.07053
1113.47580	0.07062
1112.19004	0.07070
1110.90427	0.07075
1109.61850	0.07079
1108.33273	0.07085
1107.04696	0.07098
1105.76119	0.07118
1104.47542	0.07146
1103.18965	0.07181
1101.90388	0.07217
1100.61812	0.07249
1099.33235	0.07278
1098.04658	0.07310
1096.76081	0.07351
1095.47504	0.07402
1094.18927	0.07455
1092.90350	0.07506
1091.61773	0.07555
1090.33197	0.07612
1089.04620	0.07681
1087.76043	0.07769
1086.47466	0.07872
1085.18889	0.07980
1083.90312	0.08078
1082.61735	0.08156
1081.33158	0.08212
1080.04581	0.08251
1078.76005	0.08276
1077.47428	0.08288
1076.18851	0.08289
1074.90274	0.08288
1073.61697	0.08288
1072.33120	0.08292
1071.04543	0.08294
1069.75966	0.08295
1068.47390	0.08297
1067.18813	0.08303
1065.90236	0.08316
1064.61659	0.08332
1063.33082	0.08344
1062.04505	0.08348
1060.75928	0.08344
1059.47351	0.08340
1058.18774	0.08336
1056.90198	0.08328
1055.61621	0.08313
1054.33044	0.08291
1053.04467	0.08266
1051.75890	0.08241
1050.47313	0.08216
1049.18736	0.08191
1047.90159	0.08172
1046.61583	0.08165
1045.33006	0.08164
1044.04429	0.08161
1042.75852	0.08151
1041.47275	0.08137
1040.18698	0.08128
1038.90121	0.08129
1037.61544	0.08137
1036.32967	0.08144
1035.04391	0.08145
1033.75814	0.08139
1032.47237	0.08131
1031.18660	0.08119
1029.90083	0.08094
1028.61506	0.08053
1027.32929	0.07999
1026.04352	0.07935
1024.75775	0.07866
1023.47199	0.07794
1022.18622	0.07720
1020.90045	0.07647
1019.61468	0.07579
1018.32891	0.07520
1017.04314	0.07467
1015.75737	0.07413
1014.47160	0.07355
1013.18584	0.07293
1011.90007	0.07230
1010.61430	0.07167
1009.32853	0.07106
1008.04276	0.07047
1006.75699	0.06990
1005.47122	0.06931
1004.18545	0.06868
1002.89968	0.06803
1001.61392	0.06743
1000.32815	0.06686
999.04238	0.06627
997.75661	0.06566
996.47084	0.06505
995.18507	0.06450
993.89930	0.06402
992.61353	0.06358
991.32777	0.06312
990.04200	0.06262
988.75623	0.06207
987.47046	0.06153
986.18469	0.06102
984.89892	0.06056
983.61315	0.06015
982.32738	0.05982
981.04161	0.05957
979.75585	0.05944
978.47008	0.05940
977.18431	0.05940
975.89854	0.05936
974.61277	0.05921
973.32700	0.05896
972.04123	0.05868
970.75546	0.05841
969.46970	0.05814
968.18393	0.05779
966.89816	0.05738
965.61239	0.05695
964.32662	0.05661
963.04085	0.05641
961.75508	0.05630
960.46931	0.05619
959.18354	0.05598
957.89778	0.05569
956.61201	0.05538
955.32624	0.05514
954.04047	0.05496
952.75470	0.05480
951.46893	0.05456
950.18316	0.05427
948.89739	0.05400
947.61163	0.05386
946.32586	0.05382
945.04009	0.05381
943.75432	0.05377
942.46855	0.05370
941.18278	0.05360
939.89701	0.05347
938.61124	0.05334
937.32547	0.05322
936.03971	0.05309
934.75394	0.05292
933.46817	0.05272
932.18240	0.05253
930.89663	0.05239
929.61086	0.05227
928.32509	0.05219
927.03932	0.05216
925.75356	0.05219
924.46779	0.05223
923.18202	0.05217
921.89625	0.05199
920.61048	0.05173
919.32471	0.05148
918.03894	0.05128
916.75317	0.05109
915.46740	0.05086
914.18164	0.05056
912.89587	0.05020
911.61010	0.04982
910.32433	0.04951
909.03856	0.04935
907.75279	0.04930
906.46702	0.04923
905.18125	0.04903
903.89549	0.04871
902.60972	0.04838
901.32395	0.04810
900.03818	0.04786
898.75241	0.04765
897.46664	0.04748
896.18087	0.04734
894.89510	0.04722
893.60933	0.04709
892.32357	0.04696
891.03780	0.04686
889.75203	0.04676
888.46626	0.04662
887.18049	0.04646
885.89472	0.04629
884.60895	0.04615
883.32318	0.04601
882.03742	0.04583
880.75165	0.04559
879.46588	0.04539
878.18011	0.04533
876.89434	0.04546
875.60857	0.04569
874.32280	0.04585
873.03703	0.04582
871.75126	0.04560
870.46550	0.04533
869.17973	0.04508
867.89396	0.04484
866.60819	0.04460
865.32242	0.04440
864.03665	0.04430
862.75088	0.04429
861.46511	0.04432
860.17935	0.04433
858.89358	0.04427
857.60781	0.04417
856.32204	0.04410
855.03627	0.04409
853.75050	0.04414
852.46473	0.04424
851.17896	0.04435
849.89319	0.04444
848.60743	0.04444
847.32166	0.04434
846.03589	0.04422
844.75012	0.04414
843.46435	0.04413
842.17858	0.04417
840.89281	0.04419
839.60704	0.04419
838.32128	0.04417
837.03551	0.04416
835.74974	0.04415
834.46397	0.04413
833.17820	0.04411
831.89243	0.04411
830.60666	0.04418
829.32089	0.04431
828.03512	0.04447
826.74936	0.04461
825.46359	0.04474
824.17782	0.04483
822.89205	0.04489
821.60628	0.04493
820.32051	0.04496
819.03474	0.04504
817.74897	0.04518
816.46321	0.04531
815.17744	0.04536
813.89167	0.04534
812.60590	0.04534
811.32013	0.04545
810.03436	0.04569
808.74859	0.04597
807.46282	0.04624
806.17705	0.04643
804.89129	0.04654
803.60552	0.04658
802.31975	0.04661
801.03398	0.04664
799.74821	0.04667
798.46244	0.04668
797.17667	0.04669
795.89090	0.04672
794.60513	0.04679
793.31937	0.04694
792.03360	0.04717
790.74783	0.04745
789.46206	0.04771
788.17629	0.04790
786.89052	0.04802
785.60475	0.04815
784.31898	0.04830
783.03322	0.04848
781.74745	0.04862
780.46168	0.04872
779.17591	0.04879
777.89014	0.04883
776.60437	0.04889
775.31860	0.04904
774.03283	0.04935
772.74706	0.04973
771.46130	0.05001
770.17553	0.05011
768.88976	0.05010
767.60399	0.05015
766.31822	0.05039
765.03245	0.05075
763.74668	0.05109
762.46091	0.05135
761.17515	0.05154
759.88938	0.05168
758.60361	0.05179
757.31784	0.05186
756.03207	0.05192
754.74630	0.05202
753.46053	0.05218
752.17476	0.05240
750.88899	0.05267
749.60323	0.05296
748.31746	0.05328
747.03169	0.05363
745.74592	0.05400
744.46015	0.05438
743.17438	0.05472
741.88861	0.05489
740.60284	0.05482
739.31708	0.05460
738.03131	0.05448
736.74554	0.05462
735.45977	0.05496
734.17400	0.05532
732.88823	0.05559
731.60246	0.05583
730.31669	0.05612
729.03092	0.05649
727.74516	0.05688
726.45939	0.05720
725.17362	0.05742
723.88785	0.05753
722.60208	0.05777
721.31631	0.05809
720.03054	0.05840
718.74477	0.05868
717.45901	0.05894
716.17324	0.05913
714.88747	0.05923
713.60170	0.05927
712.31593	0.05934
711.03016	0.05953
709.74439	0.05986
708.45862	0.06029
707.17285	0.06075
705.88709	0.06119
704.60132	0.06159
703.31555	0.06193
702.02978	0.06221
700.74401	0.06247
699.45824	0.06273
698.17247	0.06298
696.88670	0.06320
695.60094	0.06334
694.31517	0.06336
693.02940	0.06329
691.74363	0.06319
690.45786	0.06313
689.17209	0.06318
687.88632	0.06331
686.60055	0.06349
685.31478	0.06365
684.02902	0.06380
682.74325	0.06395
681.45748	0.06412
680.17171	0.06428
678.88594	0.06441
677.60017	0.06452
676.31440	0.06464
675.02863	0.06477
673.74287	0.06491
672.45710	0.06503
671.17133	0.06516
669.88556	0.06532
668.59979	0.06550
667.31402	0.06570
666.02825	0.06588
664.74248	0.06600
663.45671	0.06606
662.17095	0.06609
660.88518	0.06615
659.59941	0.06630
658.31364	0.06652
657.02787	0.06674
655.74210	0.06690
654.45633	0.06701
653.17056	0.06708
651.88480	0.06716
650.59903	0.06728
649.31326	0.06741
648.02749	0.06754
646.74172	0.06763
645.45595	0.06767
644.17018	0.06770
642.88441	0.06768
641.59864	0.06761
640.31288	0.06750
639.02711	0.06743
637.74134	0.06749
636.45557	0.06771
635.16980	0.06799
633.88403	0.06823
632.59826	0.06837
631.31249	0.06834
630.02673	0.06791
628.74096	0.06729
627.45519	0.06767
626.16942	0.06689
624.88365	0.06494
623.59788	0.06246
622.31211	0.06017
621.02634	0.05882
619.74057	0.05862
618.45481	0.05931
617.16904	0.06050
615.88327	0.06162
614.59750	0.06216
613.31173	0.06222
612.02596	0.06244
610.74019	0.06331
609.45442	0.06464
608.16866	0.06578
606.88289	0.06613
605.59712	0.06559
604.31135	0.06478
603.02558	0.06456
601.73981	0.06522
600.45404	0.06636
599.16827	0.06744
597.88250	0.06826
596.59674	0.06892
595.31097	0.06950
594.02520	0.06991
592.73943	0.06998
591.45366	0.06973
590.16789	0.06942
588.88212	0.06929
587.59635	0.06942
586.31059	0.06965
585.02482	0.06980
583.73905	0.06980
582.45328	0.06971
581.16751	0.06963
579.88174	0.06958
578.59597	0.06953
577.31020	0.06945
576.02443	0.06939
574.73867	0.06939
573.45290	0.06940
572.16713	0.06933
570.88136	0.06914
569.59559	0.06891
568.30982	0.06879
567.02405	0.06891
565.73828	0.06921
564.45251	0.06954
563.16675	0.06975
561.88098	0.06984
560.59521	0.06983
559.30944	0.06979
558.02367	0.06976
556.73790	0.06979
555.45213	0.06992
554.16636	0.07008
552.88060	0.07020
551.59483	0.07021
550.30906	0.07018
549.02329	0.07018
547.73752	0.07020
546.45175	0.07022
545.16598	0.07020
543.88021	0.07011
542.59444	0.06990
541.30868	0.06956
540.02291	0.06918
538.73714	0.06896
537.45137	0.06901
536.16560	0.06924
534.87983	0.06947
533.59406	0.06955
532.30829	0.06949
531.02253	0.06937
529.73676	0.06928
528.45099	0.06926
527.16522	0.06936
525.87945	0.06951
524.59368	0.06961
523.30791	0.06957
522.02214	0.06936
520.73637	0.06904
519.45061	0.06867
518.16484	0.06831
516.87907	0.06801
515.59330	0.06782
514.30753	0.06780
513.02176	0.06791
511.73599	0.06808
510.45022	0.06821
509.16446	0.06824
507.87869	0.06808
506.59292	0.06774
505.30715	0.06732
504.02138	0.06698
502.73561	0.06679
501.44984	0.06668
500.16407	0.06654
498.87830	0.06630
497.59254	0.06595
496.30677	0.06554
495.02100	0.06512
493.73523	0.06474
492.44946	0.06439
491.16369	0.06405
489.87792	0.06377
488.59215	0.06358
487.30639	0.06343
486.02062	0.06326
484.73485	0.06305
483.44908	0.06286
482.16331	0.06272
480.87754	0.06262
479.59177	0.06250
478.30600	0.06233
477.02023	0.06214
475.73447	0.06195
474.44870	0.06178
473.16293	0.06154
471.87716	0.06119
470.59139	0.06077
469.30562	0.06041
468.01985	0.06021
466.73408	0.06016
465.44832	0.06017
464.16255	0.06009
462.87678	0.05985
461.59101	0.05948
460.30524	0.05908
459.01947	0.05873
457.73370	0.05845
456.44793	0.05820
455.16216	0.05799
453.87640	0.05778
452.59063	0.05755
451.30486	0.05726
450.01909	0.05694
448.73332	0.05657
447.44755	0.05615
446.16178	0.05572
444.87601	0.05538
443.59025	0.05518
442.30448	0.05507
441.01871	0.05495
439.73294	0.05473
438.44717	0.05442
437.16140	0.05404
435.87563	0.05368
434.58986	0.05339
433.30409	0.05320
432.01833	0.05310
430.73256	0.05303
429.44679	0.05296
428.16102	0.05289
426.87525	0.05281
425.58948	0.05269
424.30371	0.05248
423.01794	0.05219
421.73218	0.05190
420.44641	0.05167
419.16064	0.05147
417.87487	0.05124
416.58910	0.05098
415.30333	0.05069
414.01756	0.05041
412.73179	0.05015
411.44602	0.04991
410.16026	0.04964
408.87449	0.04931
407.58872	0.04896
406.30295	0.04867
405.01718	0.04846
403.73141	0.04830
402.44564	0.04818
401.15987	0.04810
399.87411	0.04807
