3997.45528	0.05599
3996.16951	0.05553
3994.88374	0.05446
3993.59798	0.05304
3992.31221	0.05189
3991.02644	0.05133
3989.74067	0.05126
3988.45490	0.05142
3987.16913	0.05176
3985.88336	0.05231
3984.59759	0.05294
3983.31183	0.05332
3982.02606	0.05327
3980.74029	0.05304
3979.45452	0.05311
3978.16875	0.05364
3976.88298	0.05428
3975.59721	0.05453
3974.31144	0.05415
3973.02567	0.05321
3971.73991	0.05199
3970.45414	0.05081
3969.16837	0.04999
3967.88260	0.04967
3966.59683	0.04969
3965.31106	0.04979
3964.02529	0.04973
3962.73952	0.04945
3961.45376	0.04920
3960.16799	0.04942
3958.88222	0.05029
3957.59645	0.05139
3956.31068	0.05204
3955.02491	0.05190
3953.73914	0.05116
3952.45337	0.05018
3951.16760	0.04930
3949.88184	0.04874
3948.59607	0.04864
3947.31030	0.04896
3946.02453	0.04949
3944.73876	0.04997
3943.45299	0.05030
3942.16722	0.05053
3940.88145	0.05074
3939.59569	0.05092
3938.30992	0.05097
3937.02415	0.05081
3935.73838	0.05052
3934.45261	0.05023
3933.16684	0.05006
3931.88107	0.05005
3930.59530	0.05017
3929.30953	0.05031
3928.02377	0.05033
3926.73800	0.05012
3925.45223	0.04969
3924.16646	0.04924
3922.88069	0.04904
3921.59492	0.04923
3920.30915	0.04977
3919.02338	0.05043
3917.73762	0.05092
3916.45185	0.05093
3915.16608	0.05036
3913.88031	0.04949
3912.59454	0.04878
3911.30877	0.04856
3910.02300	0.04887
3908.73723	0.04941
3907.45146	0.04985
3906.16570	0.05001
3904.87993	0.04999
3903.59416	0.04998
3902.30839	0.05002
3901.02262	0.05000
3899.73685	0.04976
3898.45108	0.04925
3897.16531	0.04866
3895.87955	0.04829
3894.59378	0.04829
3893.30801	0.04869
3892.02224	0.04934
3890.73647	0.05008
3889.45070	0.05081
3888.16493	0.05143
3886.87916	0.05172
3885.59339	0.05146
3884.30763	0.05081
3883.02186	0.05021
3881.73609	0.04985
3880.45032	0.04958
3879.16455	0.04933
3877.87878	0.04935
3876.59301	0.04979
3875.30724	0.05044
3874.02148	0.05092
3872.73571	0.05113
3871.44994	0.05114
3870.16417	0.05094
3868.87840	0.05057
3867.59263	0.05033
3866.30686	0.05044
3865.02109	0.05071
3863.73532	0.05091
3862.44956	0.05093
3861.16379	0.05067
3859.87802	0.04998
3858.59225	0.04893
3857.30648	0.04801
3856.02071	0.04775
3854.73494	0.04821
3853.44917	0.04874
3852.16341	0.04875
3850.87764	0.04827
3849.59187	0.04775
3848.30610	0.04761
3847.02033	0.04782
3845.73456	0.04802
3844.44879	0.04784
3843.16302	0.04720
3841.87725	0.04647
3840.59149	0.04619
3839.30572	0.04660
3838.01995	0.04730
3836.73418	0.04776
3835.44841	0.04787
3834.16264	0.04796
3832.87687	0.04817
3831.59110	0.04833
3830.30534	0.04827
3829.01957	0.04812
3827.73380	0.04811
3826.44803	0.04810
3825.16226	0.04773
3823.87649	0.04686
3822.59072	0.04572
3821.30495	0.04468
3820.01918	0.04408
3818.73342	0.04420
3817.44765	0.04489
3816.16188	0.04554
3814.87611	0.04564
3813.59034	0.04542
3812.30457	0.04536
3811.01880	0.04559
3809.73303	0.04596
3808.44726	0.04623
3807.16150	0.04615
3805.87573	0.04569
3804.58996	0.04512
3803.30419	0.04474
3802.01842	0.04454
3800.73265	0.04439
3799.44688	0.04453
3798.16111	0.04521
3796.87535	0.04617
3795.58958	0.04678
3794.30381	0.04676
3793.01804	0.04630
3791.73227	0.04572
3790.44650	0.04529
3789.16073	0.04509
3787.87496	0.04511
3786.58919	0.04521
3785.30343	0.04525
3784.01766	0.04523
3782.73189	0.04536
3781.44612	0.04581
3780.16035	0.04640
3778.87458	0.04665
3777.58881	0.04627
3776.30304	0.04550
3775.01728	0.04482
3773.73151	0.04449
3772.44574	0.04450
3771.15997	0.04476
3769.87420	0.04516
3768.58843	0.04559
3767.30266	0.04595
3766.01689	0.04611
3764.73112	0.04602
3763.44536	0.04581
3762.15959	0.04568
3760.87382	0.04575
3759.58805	0.04595
3758.30228	0.04608
3757.01651	0.04600
3755.73074	0.04574
3754.44497	0.04545
3753.15921	0.04515
3751.87344	0.04473
3750.58767	0.04411
3749.30190	0.04341
3748.01613	0.04287
3746.73036	0.04280
3745.44459	0.04313
3744.15882	0.04326
3742.87305	0.04292
3741.58729	0.04244
3740.30152	0.04214
3739.01575	0.04203
3737.72998	0.04209
3736.44421	0.04236
3735.15844	0.04289
3733.87267	0.04361
3732.58690	0.04424
3731.30114	0.04452
3730.01537	0.04451
3728.72960	0.04446
3727.44383	0.04440
3726.15806	0.04425
3724.87229	0.04407
3723.58652	0.04399
3722.30075	0.04401
3721.01498	0.04404
3719.72922	0.04406
3718.44345	0.04399
3717.15768	0.04372
3715.87191	0.04332
3714.58614	0.04308
3713.30037	0.04314
3712.01460	0.04332
3710.72883	0.04336
3709.44307	0.04316
3708.15730	0.04278
3706.87153	0.04224
3705.58576	0.04164
3704.29999	0.04122
3703.01422	0.04117
3701.72845	0.04142
3700.44268	0.04163
3699.15691	0.04160
3697.87115	0.04136
3696.58538	0.04106
3695.29961	0.04094
3694.01384	0.04119
3692.72807	0.04176
3691.44230	0.04231
3690.15653	0.04248
3688.87076	0.04217
3687.58500	0.04161
3686.29923	0.04131
3685.01346	0.04153
3683.72769	0.04200
3682.44192	0.04224
3681.15615	0.04209
3679.87038	0.04178
3678.58461	0.04168
3677.29884	0.04197
3676.01308	0.04248
3674.72731	0.04296
3673.44154	0.04348
3672.15577	0.04418
3670.87000	0.04482
3669.58423	0.04504
3668.29846	0.04486
3667.01269	0.04453
3665.72693	0.04413
3664.44116	0.04362
3663.15539	0.04311
3661.86962	0.04286
3660.58385	0.04296
3659.29808	0.04326
3658.01231	0.04350
3656.72654	0.04351
3655.44077	0.04328
3654.15501	0.04295
3652.86924	0.04274
3651.58347	0.04281
3650.29770	0.04313
3649.01193	0.04354
3647.72616	0.04392
3646.44039	0.04427
3645.15462	0.04462
3643.86886	0.04494
3642.58309	0.04510
3641.29732	0.04519
3640.01155	0.04542
3638.72578	0.04589
3637.44001	0.04648
3636.15424	0.04706
3634.86847	0.04752
3633.58270	0.04776
3632.29694	0.04779
3631.01117	0.04782
3629.72540	0.04810
3628.43963	0.04875
3627.15386	0.04972
3625.86809	0.05076
3624.58232	0.05141
3623.29655	0.05141
3622.01079	0.05099
3620.72502	0.05063
3619.43925	0.05059
3618.15348	0.05076
3616.86771	0.05098
3615.58194	0.05123
3614.29617	0.05149
3613.01040	0.05174
3611.72463	0.05194
3610.43887	0.05220
3609.15310	0.05265
3607.86733	0.05336
3606.58156	0.05424
3605.29579	0.05513
3604.01002	0.05591
3602.72425	0.05665
3601.43848	0.05739
3600.15272	0.05795
3598.86695	0.05797
3597.58118	0.05728
3596.29541	0.05613
3595.00964	0.05512
3593.72387	0.05483
3592.43810	0.05536
3591.15233	0.05642
3589.86656	0.05759
3588.58080	0.05853
3587.29503	0.05915
3586.00926	0.05955
3584.72349	0.05992
3583.43772	0.06039
3582.15195	0.06093
3580.86618	0.06147
3579.58041	0.06203
3578.29464	0.06269
3577.00888	0.06353
3575.72311	0.06444
3574.43734	0.06517
3573.15157	0.06548
3571.86580	0.06532
3570.58003	0.06496
3569.29426	0.06480
3568.00849	0.06509
3566.72273	0.06572
3565.43696	0.06635
3564.15119	0.06674
3562.86542	0.06693
3561.57965	0.06708
3560.29388	0.06729
3559.00811	0.06757
3557.72234	0.06788
3556.43657	0.06821
3555.15081	0.06858
3553.86504	0.06906
3552.57927	0.06973
3551.29350	0.07058
3550.00773	0.07150
3548.72196	0.07226
3547.43619	0.07279
3546.15042	0.07319
3544.86466	0.07362
3543.57889	0.07416
3542.29312	0.07477
3541.00735	0.07544
3539.72158	0.07617
3538.43581	0.07677
3537.15004	0.07702
3535.86427	0.07693
3534.57850	0.07688
3533.29274	0.07728
3532.00697	0.07811
3530.72120	0.07904
3529.43543	0.07975
3528.14966	0.08018
3526.86389	0.08046
3525.57812	0.08072
3524.29235	0.08103
3523.00659	0.08141
3521.72082	0.08185
3520.43505	0.08229
3519.14928	0.08260
3517.86351	0.08265
3516.57774	0.08253
3515.29197	0.08245
3514.00620	0.08256
3512.72043	0.08285
3511.43467	0.08325
3510.14890	0.08375
3508.86313	0.08430
3507.57736	0.08472
3506.29159	0.08488
3505.00582	0.08490
3503.72005	0.08507
3502.43428	0.08551
3501.14852	0.08607
3499.86275	0.08656
3498.57698	0.08690
3497.29121	0.08712
3496.00544	0.08729
3494.71967	0.08747
3493.43390	0.08774
3492.14813	0.08816
3490.86236	0.08871
3489.57660	0.08928
3488.29083	0.08980
3487.00506	0.09023
3485.71929	0.09056
3484.43352	0.09080
3483.14775	0.09098
3481.86198	0.09114
3480.57621	0.09134
3479.29045	0.09165
3478.00468	0.09212
3476.71891	0.09277
3475.43314	0.09347
3474.14737	0.09392
3472.86160	0.09396
3471.57583	0.09385
3470.29006	0.09405
3469.00429	0.09475
3467.71853	0.09571
3466.43276	0.09653
3465.14699	0.09698
3463.86122	0.09706
3462.57545	0.09698
3461.28968	0.09706
3460.00391	0.09753
3458.71814	0.09827
3457.43238	0.09884
3456.14661	0.09894
3454.86084	0.09864
3453.57507	0.09831
3452.28930	0.09830
3451.00353	0.09869
3449.71776	0.09926
3448.43199	0.09972
3447.14622	0.09994
3445.86046	0.10005
3444.57469	0.10030
3443.28892	0.10083
3442.00315	0.10154
3440.71738	0.10217
3439.43161	0.10251
3438.14584	0.10261
3436.86007	0.10268
3435.57431	0.10297
3434.28854	0.10354
3433.00277	0.10425
3431.71700	0.10493
3430.43123	0.10549
3429.14546	0.10595
3427.85969	0.10634
3426.57392	0.10669
3425.28815	0.10702
3424.00239	0.10728
3422.71662	0.10748
3421.43085	0.10765
3420.14508	0.10783
3418.85931	0.10796
3417.57354	0.10795
3416.28777	0.10793
3415.00200	0.10811
3413.71624	0.10855
3412.43047	0.10903
3411.14470	0.10938
3409.85893	0.10967
3408.57316	0.11013
3407.28739	0.11083
3406.00162	0.11159
3404.71585	0.11216
3403.43008	0.11241
3402.14432	0.11245
3400.85855	0.11247
3399.57278	0.11256
3398.28701	0.11255
3397.00124	0.11247
3395.71547	0.11260
3394.42970	0.11322
3393.14393	0.11424
3391.85817	0.11516
3390.57240	0.11556
3389.28663	0.11549
3388.00086	0.11546
3386.71509	0.11585
3385.42932	0.11668
3384.14355	0.11765
3382.85778	0.11851
3381.57201	0.11912
3380.28625	0.11937
3379.00048	0.11915
3377.71471	0.11856
3376.42894	0.11789
3375.14317	0.11750
3373.85740	0.11769
3372.57163	0.11842
3371.28586	0.11940
3370.00010	0.12035
3368.71433	0.12119
3367.42856	0.12198
3366.14279	0.12270
3364.85702	0.12321
3363.57125	0.12341
3362.28548	0.12339
3360.99971	0.12341
3359.71394	0.12369
3358.42818	0.12434
3357.14241	0.12528
3355.85664	0.12625
3354.57087	0.12700
3353.28510	0.12750
3351.99933	0.12796
3350.71356	0.12858
3349.42779	0.12934
3348.14202	0.12999
3346.85626	0.13039
3345.57049	0.13059
3344.28472	0.13073
3342.99895	0.13090
3341.71318	0.13117
3340.42741	0.13160
3339.14164	0.13214
3337.85587	0.13255
3336.57011	0.13268
3335.28434	0.13270
3333.99857	0.13294
3332.71280	0.13356
3331.42703	0.13441
3330.14126	0.13523
3328.85549	0.13588
3327.56972	0.13634
3326.28395	0.13669
3324.99819	0.13700
3323.71242	0.13731
3322.42665	0.13767
3321.14088	0.13810
3319.85511	0.13864
3318.56934	0.13926
3317.28357	0.13984
3315.99780	0.14024
3314.71204	0.14040
3313.42627	0.14045
3312.14050	0.14055
3310.85473	0.14075
3309.56896	0.14095
3308.28319	0.14118
3306.99742	0.14160
3305.71165	0.14228
3304.42588	0.14302
3303.14012	0.14356
3301.85435	0.14382
3300.56858	0.14389
3299.28281	0.14386
3297.99704	0.14384
3296.71127	0.14397
3295.42550	0.14433
3294.13973	0.14484
3292.85397	0.14519
3291.56820	0.14521
3290.28243	0.14499
3288.99666	0.14482
3287.71089	0.14487
3286.42512	0.14510
3285.13935	0.14535
3283.85358	0.14551
3282.56781	0.14554
3281.28205	0.14553
3279.99628	0.14559
3278.71051	0.14569
3277.42474	0.14560
3276.13897	0.14514
3274.85320	0.14434
3273.56743	0.14360
3272.28166	0.14333
3270.99590	0.14364
3269.71013	0.14420
3268.42436	0.14454
3267.13859	0.14443
3265.85282	0.14400
3264.56705	0.14354
3263.28128	0.14325
3261.99551	0.14306
3260.70974	0.14279
3259.42398	0.14240
3258.13821	0.14201
3256.85244	0.14172
3255.56667	0.14145
3254.28090	0.14109
3252.99513	0.14066
3251.70936	0.14016
3250.42359	0.13952
3249.13783	0.13870
3247.85206	0.13792
3246.56629	0.13745
3245.28052	0.13732
3243.99475	0.13729
3242.70898	0.13713
3241.42321	0.13683
3240.13744	0.13652
3238.85167	0.13630
3237.56591	0.13617
3236.28014	0.13602
3234.99437	0.13571
3233.70860	0.13528
3232.42283	0.13489
3231.13706	0.13472
3229.85129	0.13473
3228.56552	0.13469
3227.27976	0.13438
3225.99399	0.13379
3224.70822	0.13311
3223.42245	0.13261
3222.13668	0.13244
3220.85091	0.13245
3219.56514	0.13236
3218.27937	0.13193
3216.99360	0.13121
3215.70784	0.13045
3214.42207	0.12992
3213.13630	0.12979
3211.85053	0.13001
3210.56476	0.13032
3209.27899	0.13042
3207.99322	0.13023
3206.70745	0.12982
3205.42169	0.12934
3204.13592	0.12890
3202.85015	0.12864
3201.56438	0.12863
3200.27861	0.12879
3198.99284	0.12889
3197.70707	0.12866
3196.42130	0.12811
3195.13553	0.12742
3193.84977	0.12678
3192.56400	0.12622
3191.27823	0.12571
3189.99246	0.12532
3188.70669	0.12513
3187.42092	0.12511
3186.13515	0.12504
3184.84938	0.12469
3183.56362	0.12403
3182.27785	0.12325
3180.99208	0.12259
3179.70631	0.12215
3178.42054	0.12176
3177.13477	0.12119
3175.84900	0.12035
3174.56323	0.11949
3173.27746	0.11897
3171.99170	0.11891
3170.70593	0.11901
3169.42016	0.11891
3168.13439	0.11852
3166.84862	0.11800
3165.56285	0.11750
3164.27708	0.11699
3162.99131	0.11647
3161.70555	0.11602
3160.41978	0.11564
3159.13401	0.11519
3157.84824	0.11457
3156.56247	0.11389
3155.27670	0.11338
3153.99093	0.11314
3152.70516	0.11307
3151.41939	0.11295
3150.13363	0.11263
3148.84786	0.11210
3147.56209	0.11147
3146.27632	0.11086
3144.99055	0.11035
3143.70478	0.10999
3142.41901	0.10974
3141.13324	0.10950
3139.84748	0.10918
3138.56171	0.10875
3137.27594	0.10823
3135.99017	0.10768
3134.70440	0.10714
3133.41863	0.10672
3132.13286	0.10654
3130.84709	0.10658
3129.56132	0.10664
3128.27556	0.10648
3126.98979	0.10604
3125.70402	0.10555
3124.41825	0.10526
3123.13248	0.10526
3121.84671	0.10542
3120.56094	0.10555
3119.27517	0.10551
3117.98940	0.10528
3116.70364	0.10494
3115.41787	0.10457
3114.13210	0.10430
3112.84633	0.10415
3111.56056	0.10411
3110.27479	0.10408
3108.98902	0.10402
3107.70325	0.10394
3106.41749	0.10391
3105.13172	0.10394
3103.84595	0.10406
3102.56018	0.10427
3101.27441	0.10455
3099.98864	0.10478
3098.70287	0.10480
3097.41710	0.10456
3096.13133	0.10430
3094.84557	0.10432
3093.55980	0.10470
3092.27403	0.10520
3090.98826	0.10552
3089.70249	0.10554
3088.41672	0.10535
3087.13095	0.10512
3085.84518	0.10495
3084.55942	0.10484
3083.27365	0.10481
3081.98788	0.10488
3080.70211	0.10503
3079.41634	0.10515
3078.13057	0.10514
3076.84480	0.10502
3075.55903	0.10493
3074.27326	0.10499
3072.98750	0.10517
3071.70173	0.10535
3070.41596	0.10541
3069.13019	0.10539
3067.84442	0.10543
3066.55865	0.10557
3065.27288	0.10571
3063.98711	0.10570
3062.70135	0.10550
3061.41558	0.10517
3060.12981	0.10481
3058.84404	0.10446
3057.55827	0.10414
3056.27250	0.10380
3054.98673	0.10337
3053.70096	0.10286
3052.41519	0.10236
3051.12943	0.10201
3049.84366	0.10190
3048.55789	0.10199
3047.27212	0.10212
3045.98635	0.10213
3044.70058	0.10186
3043.41481	0.10134
3042.12904	0.10067
3040.84328	0.09996
3039.55751	0.09925
3038.27174	0.09859
3036.98597	0.09809
3035.70020	0.09779
3034.41443	0.09765
3033.12866	0.09748
3031.84289	0.09718
3030.55712	0.09674
3029.27136	0.09626
3027.98559	0.09578
3026.69982	0.09530
3025.41405	0.09483
3024.12828	0.09442
3022.84251	0.09417
3021.55674	0.09404
3020.27097	0.09388
3018.98521	0.09361
3017.69944	0.09331
3016.41367	0.09317
3015.12790	0.09318
3013.84213	0.09319
3012.55636	0.09305
3011.27059	0.09275
3009.98482	0.09232
3008.69905	0.09184
3007.41329	0.09139
3006.12752	0.09107
3004.84175	0.09094
3003.55598	0.09091
3002.27021	0.09089
3000.98444	0.09087
2999.69867	0.09088
2998.41290	0.09096
2997.12714	0.09106
2995.84137	0.09115
2994.55560	0.09128
2993.26983	0.09153
2991.98406	0.09192
2990.69829	0.09236
2989.41252	0.09275
2988.12675	0.09307
2986.84098	0.09345
2985.55522	0.09391
2984.26945	0.09438
2982.98368	0.09483
2981.69791	0.09535
2980.41214	0.09593
2979.12637	0.09640
2977.84060	0.09665
2976.55483	0.09679
2975.26907	0.09704
2973.98330	0.09745
2972.69753	0.09791
2971.41176	0.09834
2970.12599	0.09878
2968.84022	0.09927
2967.55445	0.09976
2966.26868	0.10023
2964.98291	0.10071
2963.69715	0.10123
2962.41138	0.10171
2961.12561	0.10202
2959.83984	0.10219
2958.55407	0.10231
2957.26830	0.10243
2955.98253	0.10249
2954.69676	0.10245
2953.41100	0.10238
2952.12523	0.10240
2950.83946	0.10251
2949.55369	0.10256
2948.26792	0.10240
2946.98215	0.10205
2945.69638	0.10177
2944.41061	0.10181
2943.12484	0.10225
2941.83908	0.10291
2940.55331	0.10361
2939.26754	0.10423
2937.98177	0.10473
2936.69600	0.10510
2935.41023	0.10534
2934.12446	0.10552
2932.83869	0.10568
2931.55293	0.10585
2930.26716	0.10601
2928.98139	0.10614
2927.69562	0.10621
2926.40985	0.10619
2925.12408	0.10610
2923.83831	0.10600
2922.55254	0.10588
2921.26677	0.10565
2919.98101	0.10531
2918.69524	0.10493
2917.40947	0.10449
2916.12370	0.10385
2914.83793	0.10282
2913.55216	0.10149
2912.26639	0.10019
2910.98062	0.09926
2909.69486	0.09874
2908.40909	0.09837
2907.12332	0.09792
2905.83755	0.09733
2904.55178	0.09668
2903.26601	0.09601
2901.98024	0.09531
2900.69447	0.09457
2899.40870	0.09382
2898.12294	0.09317
2896.83717	0.09272
2895.55140	0.09248
2894.26563	0.09234
2892.97986	0.09220
2891.69409	0.09208
2890.40832	0.09204
2889.12255	0.09201
2887.83678	0.09190
2886.55102	0.09168
2885.26525	0.09145
2883.97948	0.09130
2882.69371	0.09122
2881.40794	0.09116
2880.12217	0.09110
2878.83640	0.09109
2877.55063	0.09123
2876.26487	0.09149
2874.97910	0.09176
2873.69333	0.09193
2872.40756	0.09194
2871.12179	0.09176
2869.83602	0.09135
2868.55025	0.09076
2867.26448	0.09013
2865.97871	0.08961
2864.69295	0.08924
2863.40718	0.08894
2862.12141	0.08869
2860.83564	0.08855
2859.54987	0.08854
2858.26410	0.08859
2856.97833	0.08854
2855.69256	0.08834
2854.40680	0.08805
2853.12103	0.08773
2851.83526	0.08740
2850.54949	0.08707
2849.26372	0.08669
2847.97795	0.08616
2846.69218	0.08546
2845.40641	0.08468
2844.12064	0.08391
2842.83488	0.08316
2841.54911	0.08239
2840.26334	0.08166
2838.97757	0.08106
2837.69180	0.08062
2836.40603	0.08027
2835.12026	0.07995
2833.83449	0.07964
2832.54873	0.07939
2831.26296	0.07919
2829.97719	0.07899
2828.69142	0.07877
2827.40565	0.07854
2826.11988	0.07829
2824.83411	0.07808
2823.54834	0.07789
2822.26257	0.07770
2820.97681	0.07745
2819.69104	0.07718
2818.40527	0.07697
2817.11950	0.07686
2815.83373	0.07676
2814.54796	0.07656
2813.26219	0.07621
2811.97642	0.07572
2810.69066	0.07520
2809.40489	0.07480
2808.11912	0.07458
2806.83335	0.07455
2805.54758	0.07463
2804.26181	0.07466
2802.97604	0.07451
2801.69027	0.07420
2800.40450	0.07383
2799.11874	0.07355
2797.83297	0.07339
2796.54720	0.07333
2795.26143	0.07331
2793.97566	0.07328
2792.68989	0.07322
2791.40412	0.07315
2790.11835	0.07306
2788.83259	0.07293
2787.54682	0.07279
2786.26105	0.07266
2784.97528	0.07255
2783.68951	0.07242
2782.40374	0.07223
2781.11797	0.07198
2779.83220	0.07170
2778.54643	0.07144
2777.26067	0.07122
2775.97490	0.07103
2774.68913	0.07084
2773.40336	0.07059
2772.11759	0.07030
2770.83182	0.06999
2769.54605	0.06969
2768.26028	0.06945
2766.97452	0.06932
2765.68875	0.06932
2764.40298	0.06935
2763.11721	0.06924
2761.83144	0.06889
2760.54567	0.06843
2759.25990	0.06807
2757.97413	0.06793
2756.68836	0.06794
2755.40260	0.06793
2754.11683	0.06786
2752.83106	0.06774
2751.54529	0.06764
2750.25952	0.06756
2748.97375	0.06748
2747.68798	0.06742
2746.40221	0.06736
2745.11645	0.06729
2743.83068	0.06717
2742.54491	0.06704
2741.25914	0.06689
2739.97337	0.06671
2738.68760	0.06642
2737.40183	0.06608
2736.11606	0.06579
2734.83029	0.06564
2733.54453	0.06558
2732.25876	0.06553
2730.97299	0.06544
2729.68722	0.06535
2728.40145	0.06529
2727.11568	0.06529
2725.82991	0.06539
2724.54414	0.06550
2723.25838	0.06548
2721.97261	0.06524
2720.68684	0.06483
2719.40107	0.06440
2718.11530	0.06404
2716.82953	0.06376
2715.54376	0.06347
2714.25799	0.06311
2712.97222	0.06274
2711.68646	0.06255
2710.40069	0.06259
2709.11492	0.06277
2707.82915	0.06291
2706.54338	0.06294
2705.25761	0.06286
2703.97184	0.06268
2702.68607	0.06247
2701.40031	0.06235
2700.11454	0.06236
2698.82877	0.06241
2697.54300	0.06239
2696.25723	0.06229
2694.97146	0.06216
2693.68569	0.06202
2692.39992	0.06187
2691.11415	0.06171
2689.82839	0.06157
2688.54262	0.06145
2687.25685	0.06126
2685.97108	0.06098
2684.68531	0.06069
2683.39954	0.06048
2682.11377	0.06036
2680.82800	0.06026
2679.54224	0.06013
2678.25647	0.06000
2676.97070	0.05992
2675.68493	0.05988
2674.39916	0.05988
2673.11339	0.05988
2671.82762	0.05986
2670.54185	0.05977
2669.25608	0.05965
2667.97032	0.05963
2666.68455	0.05981
2665.39878	0.06007
2664.11301	0.06020
2662.82724	0.06008
2661.54147	0.05984
2660.25570	0.05964
2658.96993	0.05954
2657.68417	0.05945
2656.39840	0.05926
2655.11263	0.05900
2653.82686	0.05876
2652.54109	0.05856
2651.25532	0.05834
2649.96955	0.05803
2648.68378	0.05768
2647.39801	0.05737
2646.11225	0.05713
2644.82648	0.05694
2643.54071	0.05679
2642.25494	0.05669
2640.96917	0.05660
2639.68340	0.05648
2638.39763	0.05625
2637.11186	0.05588
2635.82609	0.05542
2634.54033	0.05501
2633.25456	0.05481
2631.96879	0.05484
2630.68302	0.05490
2629.39725	0.05477
2628.11148	0.05441
2626.82571	0.05396
2625.53994	0.05362
2624.25418	0.05347
2622.96841	0.05350
2621.68264	0.05359
2620.39687	0.05366
2619.11110	0.05370
2617.82533	0.05377
2616.53956	0.05388
2615.25379	0.05399
2613.96802	0.05390
2612.68226	0.05348
2611.39649	0.05277
2610.11072	0.05196
2608.82495	0.05128
2607.53918	0.05086
2606.25341	0.05067
2604.96764	0.05060
2603.68187	0.05059
2602.39611	0.05061
2601.11034	0.05065
2599.82457	0.05071
2598.53880	0.05081
2597.25303	0.05087
2595.96726	0.05075
2594.68149	0.05037
2593.39572	0.04983
2592.10995	0.04926
2590.82419	0.04883
2589.53842	0.04863
2588.25265	0.04866
2586.96688	0.04876
2585.68111	0.04880
2584.39534	0.04868
2583.10957	0.04837
2581.82380	0.04787
2580.53804	0.04734
2579.25227	0.04700
2577.96650	0.04696
2576.68073	0.04708
2575.39496	0.04712
2574.10919	0.04694
2572.82342	0.04659
2571.53765	0.04624
2570.25188	0.04600
2568.96612	0.04586
2567.68035	0.04585
2566.39458	0.04592
2565.10881	0.04599
2563.82304	0.04593
2562.53727	0.04574
2561.25150	0.04554
2559.96573	0.04530
2558.67997	0.04496
2557.39420	0.04457
2556.10843	0.04443
2554.82266	0.04467
2553.53689	0.04517
2552.25112	0.04560
2550.96535	0.04579
2549.67958	0.04573
2548.39381	0.04552
2547.10805	0.04525
2545.82228	0.04494
2544.53651	0.04463
2543.25074	0.04448
2541.96497	0.04464
2540.67920	0.04500
2539.39343	0.04527
2538.10766	0.04523
2536.82190	0.04496
2535.53613	0.04468
2534.25036	0.04445
2532.96459	0.04423
2531.67882	0.04395
2530.39305	0.04361
2529.10728	0.04326
2527.82151	0.04302
2526.53574	0.04309
2525.24998	0.04350
2523.96421	0.04399
2522.67844	0.04421
2521.39267	0.04404
2520.10690	0.04363
2518.82113	0.04321
2517.53536	0.04297
2516.24959	0.04294
2514.96383	0.04300
2513.67806	0.04295
2512.39229	0.04265
2511.10652	0.04231
2509.82075	0.04225
2508.53498	0.04267
2507.24921	0.04343
2505.96344	0.04412
2504.67767	0.04439
2503.39191	0.04418
2502.10614	0.04376
2500.82037	0.04341
2499.53460	0.04326
2498.24883	0.04323
2496.96306	0.04323
2495.67729	0.04316
2494.39152	0.04296
2493.10576	0.04263
2491.81999	0.04231
2490.53422	0.04220
2489.24845	0.04238
2487.96268	0.04265
2486.67691	0.04268
2485.39114	0.04228
2484.10537	0.04162
2482.81960	0.04100
2481.53384	0.04068
2480.24807	0.04073
2478.96230	0.04099
2477.67653	0.04116
2476.39076	0.04107
2475.10499	0.04088
2473.81922	0.04099
2472.53345	0.04155
2471.24769	0.04226
2469.96192	0.04263
2468.67615	0.04248
2467.39038	0.04207
2466.10461	0.04180
2464.81884	0.04185
2463.53307	0.04209
2462.24730	0.04223
2460.96153	0.04213
2459.67577	0.04188
2458.39000	0.04165
2457.10423	0.04159
2455.81846	0.04167
2454.53269	0.04175
2453.24692	0.04179
2451.96115	0.04186
2450.67538	0.04203
2449.38962	0.04212
2448.10385	0.04193
2446.81808	0.04141
2445.53231	0.04070
2444.24654	0.04003
2442.96077	0.03963
2441.67500	0.03956
2440.38923	0.03977
2439.10346	0.04010
2437.81770	0.04038
2436.53193	0.04048
2435.24616	0.04034
2433.96039	0.04002
2432.67462	0.03971
2431.38885	0.03962
2430.10308	0.03979
2428.81731	0.04008
2427.53155	0.04036
2426.24578	0.04062
2424.96001	0.04087
2423.67424	0.04105
2422.38847	0.04110
2421.10270	0.04104
2419.81693	0.04095
2418.53116	0.04087
2417.24539	0.04073
2415.95963	0.04055
2414.67386	0.04047
2413.38809	0.04060
2412.10232	0.04086
2410.81655	0.04105
2409.53078	0.04094
2408.24501	0.04048
2406.95924	0.03986
2405.67347	0.03937
2404.38771	0.03916
2403.10194	0.03920
2401.81617	0.03935
2400.53040	0.03952
2399.24463	0.03971
2397.95886	0.03996
2396.67309	0.04021
2395.38732	0.04033
2394.10156	0.04023
2392.81579	0.03999
2391.53002	0.03985
2390.24425	0.03994
2388.95848	0.04014
2387.67271	0.04022
2386.38694	0.04005
2385.10117	0.03980
2383.81540	0.03970
2382.52964	0.03990
2381.24387	0.04032
2379.95810	0.04074
2378.67233	0.04094
2377.38656	0.04085
2376.10079	0.04058
2374.81502	0.04034
2373.52925	0.04029
2372.24349	0.04040
2370.95772	0.04049
2369.67195	0.04047
2368.38618	0.04041
2367.10041	0.04045
2365.81464	0.04065
2364.52887	0.04096
2363.24310	0.04125
2361.95733	0.04143
2360.67157	0.04148
2359.38580	0.04143
2358.10003	0.04131
2356.81426	0.04119
2355.52849	0.04114
2354.24272	0.04118
2352.95695	0.04127
2351.67118	0.04134
2350.38542	0.04132
2349.09965	0.04125
2347.81388	0.04119
2346.52811	0.04114
2345.24234	0.04107
2343.95657	0.04098
2342.67080	0.04088
2341.38503	0.04079
2340.09926	0.04076
2338.81350	0.04083
2337.52773	0.04091
2336.24196	0.04091
2334.95619	0.04085
2333.67042	0.04082
2332.38465	0.04088
2331.09888	0.04091
2329.81311	0.04092
2328.52735	0.04107
2327.24158	0.04131
2325.95581	0.04163
2324.67004	0.04191
2323.38427	0.04189
2322.09850	0.04157
2320.81273	0.04117
2319.52696	0.04077
2318.24119	0.04046
2316.95543	0.04026
2315.66966	0.04005
2314.38389	0.03981
2313.09812	0.03955
2311.81235	0.03922
2310.52658	0.03881
2309.24081	0.03837
2307.95504	0.03801
2306.66928	0.03787
2305.38351	0.03792
2304.09774	0.03804
2302.81197	0.03805
2301.52620	0.03785
2300.24043	0.03753
2298.95466	0.03723
2297.66889	0.03702
2296.38312	0.03683
2295.09736	0.03660
2293.81159	0.03633
2292.52582	0.03604
2291.24005	0.03570
2289.95428	0.03534
2288.66851	0.03508
2287.38274	0.03504
2286.09697	0.03520
2284.81121	0.03540
2283.52544	0.03550
2282.23967	0.03546
2280.95390	0.03534
2279.66813	0.03519
2278.38236	0.03502
2277.09659	0.03477
2275.81082	0.03437
2274.52505	0.03383
2273.23929	0.03333
2271.95352	0.03313
2270.66775	0.03331
2269.38198	0.03368
2268.09621	0.03397
2266.81044	0.03394
2265.52467	0.03345
2264.23890	0.03251
2262.95314	0.03130
2261.66737	0.03020
2260.38160	0.02955
2259.09583	0.02945
2257.81006	0.02974
2256.52429	0.03013
2255.23852	0.03031
2253.95275	0.03007
2252.66698	0.02940
2251.38122	0.02857
2250.09545	0.02802
2248.80968	0.02801
2247.52391	0.02842
2246.23814	0.02901
2244.95237	0.02945
2243.66660	0.02946
2242.38083	0.02911
2241.09507	0.02877
2239.80930	0.02874
2238.52353	0.02893
2237.23776	0.02907
2235.95199	0.02900
2234.66622	0.02867
2233.38045	0.02804
2232.09468	0.02720
2230.80891	0.02653
2229.52315	0.02630
2228.23738	0.02633
2226.95161	0.02625
2225.66584	0.02600
2224.38007	0.02589
2223.09430	0.02620
2221.80853	0.02691
2220.52276	0.02774
2219.23700	0.02840
2217.95123	0.02866
2216.66546	0.02839
2215.37969	0.02766
2214.09392	0.02678
2212.80815	0.02606
2211.52238	0.02547
2210.23661	0.02471
2208.95084	0.02359
2207.66508	0.02235
2206.37931	0.02147
2205.09354	0.02118
2203.80777	0.02135
2202.52200	0.02158
2201.23623	0.02148
2199.95046	0.02080
2198.66469	0.01973
2197.37893	0.01897
2196.09316	0.01917
2194.80739	0.02025
2193.52162	0.02146
2192.23585	0.02216
2190.95008	0.02226
2189.66431	0.02194
2188.37854	0.02144
2187.09277	0.02101
2185.80701	0.02085
2184.52124	0.02068
2183.23547	0.01993
2181.94970	0.01858
2180.66393	0.01729
2179.37816	0.01660
2178.09239	0.01639
2176.80662	0.01631
2175.52085	0.01646
2174.23509	0.01715
2172.94932	0.01829
2171.66355	0.01933
2170.37778	0.01983
2169.09201	0.01983
2167.80624	0.01980
2166.52047	0.02001
2165.23470	0.02021
2163.94894	0.01983
2162.66317	0.01855
2161.37740	0.01645
2160.09163	0.01393
2158.80586	0.01172
2157.52009	0.01067
2156.23432	0.01123
2154.94855	0.01299
2153.66278	0.01506
2152.37702	0.01685
2151.09125	0.01834
2149.80548	0.01976
2148.51971	0.02096
2147.23394	0.02141
2145.94817	0.02083
2144.66240	0.01962
2143.37663	0.01868
2142.09087	0.01867
2140.80510	0.01956
2139.51933	0.02080
2138.23356	0.02170
2136.94779	0.02189
2135.66202	0.02162
2134.37625	0.02148
2133.09048	0.02179
2131.80471	0.02232
2130.51895	0.02270
2129.23318	0.02293
2127.94741	0.02326
2126.66164	0.02372
2125.37587	0.02405
2124.09010	0.02411
2122.80433	0.02403
2121.51856	0.02407
2120.23280	0.02428
2118.94703	0.02451
2117.66126	0.02464
2116.37549	0.02473
2115.08972	0.02490
2113.80395	0.02508
2112.51818	0.02511
2111.23241	0.02489
2109.94664	0.02457
2108.66088	0.02439
2107.37511	0.02448
2106.08934	0.02473
2104.80357	0.02489
2103.51780	0.02489
2102.23203	0.02488
2100.94626	0.02486
2099.66049	0.02352
2098.37473	0.02242
2097.08896	0.02173
2095.80319	0.02142
2094.51742	0.02163
2093.23165	0.02219
2091.94588	0.02273
2090.66011	0.02295
2089.37434	0.02288
2088.08857	0.02269
2086.80281	0.02245
2085.51704	0.02206
2084.23127	0.02146
2082.94550	0.02080
2081.65973	0.02037
2080.37396	0.02033
2079.08819	0.02058
2077.80242	0.02080
2076.51666	0.02063
2075.23089	0.02006
2073.94512	0.01940
2072.65935	0.01911
2071.37358	0.01930
2070.08781	0.01977
2068.80204	0.02026
2067.51627	0.02054
2066.23050	0.02043
2064.94474	0.01979
2063.65897	0.01878
2062.37320	0.01794
2061.08743	0.01771
2059.80166	0.01798
2058.51589	0.01812
2057.23012	0.01767
2055.94435	0.01686
2054.65859	0.01637
2053.37282	0.01654
2052.08705	0.01699
2050.80128	0.01707
2049.51551	0.01646
2048.22974	0.01534
2046.94397	0.01431
2045.65820	0.01391
2044.37243	0.01419
2043.08667	0.01450
2041.80090	0.01406
2040.51513	0.01275
2039.22936	0.01131
2037.94359	0.01052
2036.65782	0.01055
2035.37205	0.01101
2034.08628	0.01156
2032.80052	0.01211
2031.51475	0.01261
2030.22898	0.01291
2028.94321	0.01297
2027.65744	0.01281
2026.37167	0.01245
2025.08590	0.01180
2023.80013	0.01099
2022.51436	0.01043
2021.22860	0.01046
2019.94283	0.01095
2018.65706	0.01143
2017.37129	0.01155
2016.08552	0.01130
2014.79975	0.01083
2013.51398	0.01036
2012.22821	0.01014
2010.94245	0.01040
2009.65668	0.01111
2008.37091	0.01205
2007.08514	0.01304
2005.79937	0.01412
2004.51360	0.01516
2003.22783	0.01582
2001.94206	0.01586
2000.65629	0.01548
1999.37053	0.01519
1998.08476	0.01541
1996.79899	0.01618
1995.51322	0.01720
1994.22745	0.01804
1992.94168	0.01832
1991.65591	0.01790
1990.37014	0.01706
1989.08438	0.01633
1987.79861	0.01607
1986.51284	0.01621
1985.22707	0.01632
1983.94130	0.01593
1982.65553	0.01497
1981.36976	0.01384
1980.08399	0.01312
1978.79822	0.01305
1977.51246	0.01330
1976.22669	0.01329
1974.94092	0.01285
1973.65515	0.01234
1972.36938	0.01224
1971.08361	0.01271
1969.79784	0.01353
1968.51207	0.01427
1967.22631	0.01452
1965.94054	0.01414
1964.65477	0.01338
1963.36900	0.01265
1962.08323	0.01224
1960.79746	0.01220
1959.51169	0.01258
1958.22592	0.01338
1956.94015	0.01447
1955.65439	0.01561
1954.36862	0.01657
1953.08285	0.01722
1951.79708	0.01750
1950.51131	0.01745
1949.22554	0.01713
1947.93977	0.01667
1946.65400	0.01620
1945.36823	0.01589
1944.08247	0.01587
1942.79670	0.01615
1941.51093	0.01653
1940.22516	0.01679
1938.93939	0.01695
1937.65362	0.01718
1936.36785	0.01751
1935.08208	0.01774
1933.79632	0.01768
1932.51055	0.01735
1931.22478	0.01699
1929.93901	0.01679
1928.65324	0.01681
1927.36747	0.01701
1926.08170	0.01735
1924.79593	0.01776
1923.51016	0.01810
1922.22440	0.01830
1920.93863	0.01845
1919.65286	0.01867
1918.36709	0.01900
1917.08132	0.01928
1915.79555	0.01942
1914.50978	0.01949
1913.22401	0.01964
1911.93825	0.01991
1910.65248	0.02015
1909.36671	0.02021
1908.08094	0.02005
1906.79517	0.01980
1905.50940	0.01957
1904.22363	0.01942
1902.93786	0.01935
1901.65209	0.01930
1900.36633	0.01921
1899.08056	0.01907
1897.79479	0.01891
1896.50902	0.01886
1895.22325	0.01901
1893.93748	0.01936
1892.65171	0.01979
1891.36594	0.02021
1890.08018	0.02051
1888.79441	0.02062
1887.50864	0.02053
1886.22287	0.02030
1884.93710	0.02002
1883.65133	0.01985
1882.36556	0.01983
1881.07979	0.01986
1879.79402	0.01981
1878.50826	0.01970
1877.22249	0.01966
1875.93672	0.01978
1874.65095	0.01998
1873.36518	0.02011
1872.07941	0.02006
1870.79364	0.01987
1869.50787	0.01965
1868.22211	0.01954
1866.93634	0.01961
1865.65057	0.01986
1864.36480	0.02018
1863.07903	0.02044
1861.79326	0.02050
1860.50749	0.02037
1859.22172	0.02014
1857.93595	0.01994
1856.65019	0.01984
1855.36442	0.01985
1854.07865	0.01999
1852.79288	0.02015
1851.50711	0.02021
1850.22134	0.02009
1848.93557	0.01988
1847.64980	0.01974
1846.36404	0.01978
1845.07827	0.01998
1843.79250	0.02017
1842.50673	0.02019
1841.22096	0.02009
1839.93519	0.02001
1838.64942	0.02003
1837.36365	0.02014
1836.07788	0.02022
1834.79212	0.02018
1833.50635	0.02009
1832.22058	0.02008
1830.93481	0.02014
1829.64904	0.02016
1828.36327	0.02003
1827.07750	0.01978
1825.79173	0.01952
1824.50597	0.01928
1823.22020	0.01909
1821.93443	0.01893
1820.64866	0.01878
1819.36289	0.01866
1818.07712	0.01867
1816.79135	0.01890
1815.50558	0.01936
1814.21981	0.01993
1812.93405	0.02043
1811.64828	0.02075
1810.36251	0.02088
1809.07674	0.02092
1807.79097	0.02095
1806.50520	0.02095
1805.21943	0.02085
1803.93366	0.02066
1802.64790	0.02042
1801.36213	0.02016
1800.07636	0.01996
1798.79059	0.01988
1797.50482	0.01996
1796.21905	0.02018
1794.93328	0.02047
1793.64751	0.02068
1792.36174	0.02071
1791.07598	0.02058
1789.79021	0.02040
1788.50444	0.02028
1787.21867	0.02023
1785.93290	0.02022
1784.64713	0.02021
1783.36136	0.02019
1782.07559	0.02018
1780.78983	0.02019
1779.50406	0.02018
1778.21829	0.02015
1776.93252	0.02010
1775.64675	0.02007
1774.36098	0.02010
1773.07521	0.02017
1771.78944	0.02021
1770.50367	0.02023
1769.21791	0.02024
1767.93214	0.02024
1766.64637	0.02023
1765.36060	0.02029
1764.07483	0.02046
1762.78906	0.02063
1761.50329	0.02069
1760.21752	0.02064
1758.93176	0.02058
1757.64599	0.02058
1756.36022	0.02058
1755.07445	0.02057
1753.78868	0.02059
1752.50291	0.02069
1751.21714	0.02084
1749.93137	0.02103
1748.64560	0.02128
1747.35984	0.02160
1746.07407	0.02193
1744.78830	0.02219
1743.50253	0.02237
1742.21676	0.02252
1740.93099	0.02268
1739.64522	0.02285
1738.35945	0.02300
1737.07369	0.02318
1735.78792	0.02340
1734.50215	0.02360
1733.21638	0.02372
1731.93061	0.02383
1730.64484	0.02407
1729.35907	0.02443
1728.07330	0.02480
1726.78753	0.02514
1725.50177	0.02544
1724.21600	0.02570
1722.93023	0.02591
1721.64446	0.02609
1720.35869	0.02637
1719.07292	0.02680
1717.78715	0.02733
1716.50138	0.02788
1715.21561	0.02849
1713.92985	0.02923
1712.64408	0.03011
1711.35831	0.03112
1710.07254	0.03223
1708.78677	0.03348
1707.50100	0.03490
1706.21523	0.03646
1704.92946	0.03812
1703.64370	0.03987
1702.35793	0.04183
1701.07216	0.04400
1699.78639	0.04627
1698.50062	0.04864
1697.21485	0.05120
1695.92908	0.05385
1694.64331	0.05639
1693.35754	0.05882
1692.07178	0.06131
1690.78601	0.06387
1689.50024	0.06638
1688.21447	0.06881
1686.92870	0.07127
1685.64293	0.07387
1684.35716	0.07653
1683.07139	0.07920
1681.78563	0.08195
1680.49986	0.08484
1679.21409	0.08778
1677.92832	0.09072
1676.64255	0.09367
1675.35678	0.09662
1674.07101	0.09955
1672.78524	0.10253
1671.49947	0.10561
1670.21371	0.10876
1668.92794	0.11191
1667.64217	0.11500
1666.35640	0.11807
1665.07063	0.12116
1663.78486	0.12426
1662.49909	0.12728
1661.21332	0.13015
1659.92756	0.13279
1658.64179	0.13516
1657.35602	0.13725
1656.07025	0.13924
1654.78448	0.14132
1653.49871	0.14344
1652.21294	0.14538
1650.92717	0.14705
1649.64140	0.14856
1648.35564	0.15000
1647.06987	0.15133
1645.78410	0.15246
1644.49833	0.15344
1643.21256	0.15431
1641.92679	0.15512
1640.64102	0.15582
1639.35525	0.15635
1638.06949	0.15675
1636.78372	0.15705
1635.49795	0.15724
1634.21218	0.15729
1632.92641	0.15718
1631.64064	0.15687
1630.35487	0.15623
1629.06910	0.15518
1627.78333	0.15370
1626.49757	0.15183
1625.21180	0.14971
1623.92603	0.14741
1622.64026	0.14495
1621.35449	0.14229
1620.06872	0.13944
1618.78295	0.13647
1617.49718	0.13342
1616.21142	0.13030
1614.92565	0.12718
1613.63988	0.12417
1612.35411	0.12125
1611.06834	0.11834
1609.78257	0.11542
1608.49680	0.11256
1607.21103	0.10982
1605.92526	0.10724
1604.63950	0.10483
1603.35373	0.10260
1602.06796	0.10055
1600.78219	0.09866
1599.49642	0.09692
1598.21065	0.09530
1596.92488	0.09385
1595.63911	0.09256
1594.35335	0.09142
1593.06758	0.09038
1591.78181	0.08945
1590.49604	0.08868
1589.21027	0.08812
1587.92450	0.08779
1586.63873	0.08764
1585.35296	0.08760
1584.06719	0.08766
1582.78143	0.08782
1581.49566	0.08806
1580.20989	0.08838
1578.92412	0.08883
1577.63835	0.08948
1576.35258	0.09032
1575.06681	0.09123
1573.78104	0.09224
1572.49528	0.09340
1571.20951	0.09473
1569.92374	0.09616
1568.63797	0.09765
1567.35220	0.09920
1566.06643	0.10079
1564.78066	0.10235
1563.49489	0.10384
1562.20912	0.10536
1560.92336	0.10701
1559.63759	0.10877
1558.35182	0.11053
1557.06605	0.11227
1555.78028	0.11403
1554.49451	0.11574
1553.20874	0.11732
1551.92297	0.11876
1550.63721	0.12012
1549.35144	0.12141
1548.06567	0.12258
1546.77990	0.12363
1545.49413	0.12455
1544.20836	0.12532
1542.92259	0.12598
1541.63682	0.12660
1540.35105	0.12719
1539.06529	0.12768
1537.77952	0.12802
1536.49375	0.12826
1535.20798	0.12850
1533.92221	0.12869
1532.63644	0.12874
1531.35067	0.12863
1530.06490	0.12840
1528.77914	0.12809
1527.49337	0.12773
1526.20760	0.12733
1524.92183	0.12693
1523.63606	0.12659
1522.35029	0.12629
1521.06452	0.12591
1519.77875	0.12538
1518.49298	0.12474
1517.20722	0.12401
1515.92145	0.12311
1514.63568	0.12201
1513.34991	0.12070
1512.06414	0.11918
1510.77837	0.11746
1509.49260	0.11560
1508.20683	0.11371
1506.92107	0.11180
1505.63530	0.10983
1504.34953	0.10779
1503.06376	0.10570
1501.77799	0.10358
1500.49222	0.10144
1499.20645	0.09930
1497.92068	0.09718
1496.63491	0.09502
1495.34915	0.09278
1494.06338	0.09050
1492.77761	0.08825
1491.49184	0.08609
1490.20607	0.08403
1488.92030	0.08212
1487.63453	0.08043
1486.34876	0.07893
1485.06299	0.07760
1483.77723	0.07641
1482.49146	0.07542
1481.20569	0.07466
1479.91992	0.07417
1478.63415	0.07394
1477.34838	0.07390
1476.06261	0.07400
1474.77684	0.07429
1473.49108	0.07479
1472.20531	0.07547
1470.91954	0.07626
1469.63377	0.07709
1468.34800	0.07788
1467.06223	0.07859
1465.77646	0.07923
1464.49069	0.07986
1463.20492	0.08054
1461.91916	0.08129
1460.63339	0.08213
1459.34762	0.08304
1458.06185	0.08400
1456.77608	0.08491
1455.49031	0.08572
1454.20454	0.08641
1452.91877	0.08697
1451.63301	0.08730
1450.34724	0.08739
1449.06147	0.08734
1447.77570	0.08725
1446.48993	0.08710
1445.20416	0.08687
1443.91839	0.08654
1442.63262	0.08613
1441.34685	0.08567
1440.06109	0.08521
1438.77532	0.08477
1437.48955	0.08432
1436.20378	0.08379
1434.91801	0.08316
1433.63224	0.08246
1432.34647	0.08171
1431.06070	0.08097
1429.77494	0.08030
1428.48917	0.07976
1427.20340	0.07935
1425.91763	0.07906
1424.63186	0.07887
1423.34609	0.07874
1422.06032	0.07870
1420.77455	0.07874
1419.48878	0.07880
1418.20302	0.07881
1416.91725	0.07876
1415.63148	0.07869
1414.34571	0.07863
1413.05994	0.07865
1411.77417	0.07876
1410.48840	0.07895
1409.20263	0.07914
1407.91687	0.07928
1406.63110	0.07940
1405.34533	0.07954
1404.05956	0.07972
1402.77379	0.07990
1401.48802	0.08002
1400.20225	0.08004
1398.91648	0.07993
1397.63071	0.07970
1396.34495	0.07945
1395.05918	0.07923
1393.77341	0.07905
1392.48764	0.07887
1391.20187	0.07865
1389.91610	0.07839
1388.63033	0.07808
1387.34456	0.07772
1386.05880	0.07731
1384.77303	0.07688
1383.48726	0.07647
1382.20149	0.07607
1380.91572	0.07566
1379.62995	0.07522
1378.34418	0.07470
1377.05841	0.07412
1375.77264	0.07348
1374.48688	0.07278
1373.20111	0.07206
1371.91534	0.07136
1370.62957	0.07070
1369.34380	0.07008
1368.05803	0.06941
1366.77226	0.06867
1365.48649	0.06787
1364.20073	0.06707
1362.91496	0.06633
1361.62919	0.06568
1360.34342	0.06515
1359.05765	0.06475
1357.77188	0.06447
1356.48611	0.06426
1355.20034	0.06411
1353.91457	0.06402
1352.62881	0.06404
1351.34304	0.06417
1350.05727	0.06440
1348.77150	0.06469
1347.48573	0.06498
1346.19996	0.06528
1344.91419	0.06559
1343.62842	0.06592
1342.34266	0.06625
1341.05689	0.06654
1339.77112	0.06674
1338.48535	0.06685
1337.19958	0.06689
1335.91381	0.06688
1334.62804	0.06679
1333.34227	0.06661
1332.05650	0.06636
1330.77074	0.06608
1329.48497	0.06578
1328.19920	0.06548
1326.91343	0.06518
1325.62766	0.06492
1324.34189	0.06470
1323.05612	0.06452
1321.77035	0.06438
1320.48459	0.06429
1319.19882	0.06427
1317.91305	0.06431
1316.62728	0.06436
1315.34151	0.06433
1314.05574	0.06420
1312.76997	0.06400
1311.48420	0.06378
1310.19843	0.06359
1308.91267	0.06342
1307.62690	0.06325
1306.34113	0.06301
1305.05536	0.06270
1303.76959	0.06239
1302.48382	0.06218
1301.19805	0.06212
1299.91228	0.06213
1298.62652	0.06214
1297.34075	0.06210
1296.05498	0.06202
1294.76921	0.06197
1293.48344	0.06201
1292.19767	0.06218
1290.91190	0.06246
1289.62613	0.06280
1288.34036	0.06314
1287.05460	0.06347
1285.76883	0.06380
1284.48306	0.06411
1283.19729	0.06436
1281.91152	0.06456
1280.62575	0.06474
1279.33998	0.06491
1278.05421	0.06511
1276.76845	0.06530
1275.48268	0.06548
1274.19691	0.06564
1272.91114	0.06579
1271.62537	0.06595
1270.33960	0.06613
1269.05383	0.06636
1267.76806	0.06663
1266.48229	0.06694
1265.19653	0.06724
1263.91076	0.06752
1262.62499	0.06780
1261.33922	0.06812
1260.05345	0.06848
1258.76768	0.06892
1257.48191	0.06943
1256.19614	0.07001
1254.91037	0.07060
1253.62461	0.07120
1252.33884	0.07181
1251.05307	0.07245
1249.76730	0.07312
1248.48153	0.07382
1247.19576	0.07451
1245.90999	0.07520
1244.62422	0.07586
1243.33846	0.07647
1242.05269	0.07698
1240.76692	0.07738
1239.48115	0.07772
1238.19538	0.07806
1236.90961	0.07839
1235.62384	0.07867
1234.33807	0.07883
1233.05230	0.07883
1231.76654	0.07867
1230.48077	0.07837
1229.19500	0.07793
1227.90923	0.07741
1226.62346	0.07683
1225.33769	0.07621
1224.05192	0.07554
1222.76615	0.07482
1221.48039	0.07406
1220.19462	0.07331
1218.90885	0.07259
1217.62308	0.07190
1216.33731	0.07126
1215.05154	0.07067
1213.76577	0.07014
1212.48000	0.06970
1211.19423	0.06937
1209.90847	0.06915
1208.62270	0.06902
1207.33693	0.06893
1206.05116	0.06883
1204.76539	0.06868
1203.47962	0.06845
1202.19385	0.06814
1200.90808	0.06781
1199.62232	0.06751
1198.33655	0.06697
1197.05078	0.06640
1195.76501	0.06583
1194.47924	0.06525
1193.19347	0.06467
1191.90770	0.06413
1190.62193	0.06367
1189.33616	0.06328
1188.05040	0.06292
1186.76463	0.06255
1185.47886	0.06217
1184.19309	0.06181
1182.90732	0.06154
1181.62155	0.06138
1180.33578	0.06131
1179.05001	0.06132
1177.76425	0.06134
1176.47848	0.06137
1175.19271	0.06142
1173.90694	0.06153
1172.62117	0.06171
1171.33540	0.06191
1170.04963	0.06213
1168.76386	0.06237
1167.47809	0.06266
1166.19233	0.06295
1164.90656	0.06320
1163.62079	0.06339
1162.33502	0.06357
1161.04925	0.06376
1159.76348	0.06397
1158.47771	0.06414
1157.19194	0.06423
1155.90618	0.06423
1154.62041	0.06416
1153.33464	0.06407
1152.04887	0.06398
1150.76310	0.06390
1149.47733	0.06380
1148.19156	0.06366
1146.90579	0.06348
1145.62002	0.06327
1144.33426	0.06304
1143.04849	0.06282
1141.76272	0.06263
1140.47695	0.06251
1139.19118	0.06249
1137.90541	0.06258
1136.61964	0.06276
1135.33387	0.06303
1134.04811	0.06342
1132.76234	0.06393
1131.47657	0.06453
1130.19080	0.06517
1128.90503	0.06586
1127.61926	0.06664
1126.33349	0.06756
1125.04772	0.06865
1123.76195	0.06988
1122.47619	0.07122
1121.19042	0.07265
1119.90465	0.07414
1118.61888	0.07570
1117.33311	0.07733
1116.04734	0.07902
1114.76157	0.08074
1113.47580	0.08241
1112.19004	0.08398
1110.90427	0.08546
1109.61850	0.08692
1108.33273	0.08839
1107.04696	0.08990
1105.76119	0.09140
1104.47542	0.09283
1103.18965	0.09413
1101.90388	0.09527
1100.61812	0.09623
1099.33235	0.09694
1098.04658	0.09744
1096.76081	0.09782
1095.47504	0.09816
1094.18927	0.09842
1092.90350	0.09849
1091.61773	0.09829
1090.33197	0.09793
1089.04620	0.09762
1087.76043	0.09759
1086.47466	0.09801
1085.18889	0.09889
1083.90312	0.10015
1082.61735	0.10160
1081.33158	0.10310
1080.04581	0.10456
1078.76005	0.10593
1077.47428	0.10718
1076.18851	0.10826
1074.90274	0.10915
1073.61697	0.10988
1072.33120	0.11055
1071.04543	0.11125
1069.75966	0.11205
1068.47390	0.11290
1067.18813	0.11370
1065.90236	0.11439
1064.61659	0.11497
1063.33082	0.11552
1062.04505	0.11613
1060.75928	0.11682
1059.47351	0.11752
1058.18774	0.11815
1056.90198	0.11870
1055.61621	0.11922
1054.33044	0.11978
1053.04467	0.12036
1051.75890	0.12090
1050.47313	0.12139
1049.18736	0.12186
1047.90159	0.12237
1046.61583	0.12300
1045.33006	0.12375
1044.04429	0.12461
1042.75852	0.12557
1041.47275	0.12663
1040.18698	0.12785
1038.90121	0.12926
1037.61544	0.13088
1036.32967	0.13263
1035.04391	0.13441
1033.75814	0.13612
1032.47237	0.13759
1031.18660	0.13861
1029.90083	0.13888
1028.61506	0.13823
1027.32929	0.13665
1026.04352	0.13441
1024.75775	0.13181
1023.47199	0.12901
1022.18622	0.12605
1020.90045	0.12286
1019.61468	0.11949
1018.32891	0.11602
1017.04314	0.11260
1015.75737	0.10935
1014.47160	0.10637
1013.18584	0.10368
1011.90007	0.10123
1010.61430	0.09894
1009.32853	0.09678
1008.04276	0.09475
1006.75699	0.09287
1005.47122	0.09111
1004.18545	0.08947
1002.89968	0.08791
1001.61392	0.08642
1000.32815	0.08498
999.04238	0.08358
997.75661	0.08221
996.47084	0.08087
995.18507	0.07957
993.89930	0.07833
992.61353	0.07719
991.32777	0.07616
990.04200	0.07517
988.75623	0.07420
987.47046	0.07323
986.18469	0.07229
984.89892	0.07144
983.61315	0.07072
982.32738	0.07010
981.04161	0.06951
979.75585	0.06889
978.47008	0.06826
977.18431	0.06768
975.89854	0.06718
974.61277	0.06673
973.32700	0.06628
972.04123	0.06589
970.75546	0.06567
969.46970	0.06572
968.18393	0.06597
966.89816	0.06623
965.61239	0.06629
964.32662	0.06601
963.04085	0.06545
961.75508	0.06475
960.46931	0.06411
959.18354	0.06356
957.89778	0.06303
956.61201	0.06242
955.32624	0.06178
954.04047	0.06116
952.75470	0.06062
951.46893	0.06014
950.18316	0.05966
948.89739	0.05916
947.61163	0.05869
946.32586	0.05834
945.04009	0.05810
943.75432	0.05788
942.46855	0.05756
941.18278	0.05715
939.89701	0.05671
938.61124	0.05629
937.32547	0.05590
936.03971	0.05555
934.75394	0.05520
933.46817	0.05481
932.18240	0.05435
930.89663	0.05383
929.61086	0.05328
928.32509	0.05276
927.03932	0.05226
925.75356	0.05178
924.46779	0.05132
923.18202	0.05090
921.89625	0.05057
920.61048	0.05032
919.32471	0.05005
918.03894	0.04971
916.75317	0.04932
915.46740	0.04896
914.18164	0.04870
912.89587	0.04851
911.61010	0.04828
910.32433	0.04793
909.03856	0.04752
907.75279	0.04716
906.46702	0.04690
905.18125	0.04669
903.89549	0.04644
902.60972	0.04613
901.32395	0.04589
900.03818	0.04582
898.75241	0.04587
897.46664	0.04587
896.18087	0.04571
894.89510	0.04542
893.60933	0.04514
892.32357	0.04497
891.03780	0.04491
889.75203	0.04493
888.46626	0.04498
887.18049	0.04506
885.89472	0.04519
884.60895	0.04538
883.32318	0.04557
882.03742	0.04570
880.75165	0.04573
879.46588	0.04571
878.18011	0.04568
876.89434	0.04567
875.60857	0.04570
874.32280	0.04575
873.03703	0.04576
871.75126	0.04566
870.46550	0.04543
869.17973	0.04511
867.89396	0.04477
866.60819	0.04451
865.32242	0.04435
864.03665	0.04431
862.75088	0.04435
861.46511	0.04436
860.17935	0.04424
858.89358	0.04399
857.60781	0.04372
856.32204	0.04351
855.03627	0.04336
853.75050	0.04325
852.46473	0.04312
851.17896	0.04299
849.89319	0.04287
848.60743	0.04272
847.32166	0.04251
846.03589	0.04223
844.75012	0.04196
843.46435	0.04177
842.17858	0.04169
840.89281	0.04165
839.60704	0.04159
838.32128	0.04147
837.03551	0.04132
835.74974	0.04119
834.46397	0.04108
833.17820	0.04100
831.89243	0.04097
830.60666	0.04099
829.32089	0.04102
828.03512	0.04102
826.74936	0.04100
825.46359	0.04098
824.17782	0.04098
822.89205	0.04097
821.60628	0.04096
820.32051	0.04098
819.03474	0.04106
817.74897	0.04115
816.46321	0.04122
815.17744	0.04125
813.89167	0.04126
812.60590	0.04128
811.32013	0.04135
810.03436	0.04146
808.74859	0.04156
807.46282	0.04162
806.17705	0.04163
804.89129	0.04165
803.60552	0.04171
802.31975	0.04185
801.03398	0.04202
799.74821	0.04214
798.46244	0.04216
797.17667	0.04210
795.89090	0.04208
794.60513	0.04214
793.31937	0.04222
792.03360	0.04225
790.74783	0.04223
789.46206	0.04226
788.17629	0.04236
786.89052	0.04250
785.60475	0.04267
784.31898	0.04285
783.03322	0.04303
781.74745	0.04320
780.46168	0.04338
779.17591	0.04354
777.89014	0.04365
776.60437	0.04371
775.31860	0.04373
774.03283	0.04374
772.74706	0.04375
771.46130	0.04379
770.17553	0.04388
768.88976	0.04404
767.60399	0.04427
766.31822	0.04452
765.03245	0.04473
763.74668	0.04487
762.46091	0.04498
761.17515	0.04515
759.88938	0.04540
758.60361	0.04567
757.31784	0.04590
756.03207	0.04609
754.74630	0.04623
753.46053	0.04633
752.17476	0.04641
750.88899	0.04650
749.60323	0.04662
748.31746	0.04677
747.03169	0.04690
745.74592	0.04703
744.46015	0.04714
743.17438	0.04726
741.88861	0.04739
740.60284	0.04752
739.31708	0.04762
738.03131	0.04772
736.74554	0.04781
735.45977	0.04789
734.17400	0.04789
732.88823	0.04783
731.60246	0.04778
730.31669	0.04784
729.03092	0.04805
727.74516	0.04835
726.45939	0.04866
725.17362	0.04891
723.88785	0.04912
722.60208	0.04939
721.31631	0.04969
720.03054	0.04996
718.74477	0.05014
717.45901	0.05024
716.17324	0.05028
714.88747	0.05031
713.60170	0.05038
712.31593	0.05051
711.03016	0.05070
709.74439	0.05094
708.45862	0.05122
707.17285	0.05150
705.88709	0.05176
704.60132	0.05198
703.31555	0.05212
702.02978	0.05221
700.74401	0.05228
699.45824	0.05239
698.17247	0.05252
696.88670	0.05267
695.60094	0.05278
694.31517	0.05283
693.02940	0.05286
691.74363	0.05286
690.45786	0.05285
689.17209	0.05285
687.88632	0.05289
686.60055	0.05300
685.31478	0.05317
684.02902	0.05335
682.74325	0.05347
681.45748	0.05349
680.17171	0.05345
678.88594	0.05341
677.60017	0.05345
676.31440	0.05354
675.02863	0.05365
673.74287	0.05371
672.45710	0.05373
671.17133	0.05375
669.88556	0.05381
668.59979	0.05393
667.31402	0.05404
666.02825	0.05410
664.74248	0.05416
663.45671	0.05422
662.17095	0.05427
660.88518	0.05431
659.59941	0.05436
658.31364	0.05445
657.02787	0.05456
655.74210	0.05465
654.45633	0.05466
653.17056	0.05457
651.88480	0.05444
650.59903	0.05436
649.31326	0.05435
648.02749	0.05440
646.74172	0.05445
645.45595	0.05445
644.17018	0.05438
642.88441	0.05425
641.59864	0.05411
640.31288	0.05400
639.02711	0.05392
637.74134	0.05388
636.45557	0.05386
635.16980	0.05388
633.88403	0.05395
632.59826	0.05408
631.31249	0.05411
630.02673	0.05333
628.74096	0.05197
627.45519	0.05237
626.16942	0.05003
624.88365	0.04593
623.59788	0.04257
622.31211	0.04136
621.02634	0.04237
619.74057	0.04460
618.45481	0.04720
617.16904	0.04994
615.88327	0.05296
614.59750	0.05617
613.31173	0.05920
612.02596	0.06167
610.74019	0.06373
609.45442	0.06579
608.16866	0.06772
606.88289	0.06894
605.59712	0.06924
604.31135	0.06916
603.02558	0.06930
601.73981	0.06965
600.45404	0.06969
599.16827	0.06905
597.88250	0.06783
596.59674	0.06644
595.31097	0.06529
594.02520	0.06456
592.73943	0.06423
591.45366	0.06415
590.16789	0.06416
588.88212	0.06415
587.59635	0.06411
586.31059	0.06418
585.02482	0.06450
583.73905	0.06513
582.45328	0.06609
581.16751	0.06737
579.88174	0.06883
578.59597	0.07022
577.31020	0.07126
576.02443	0.07185
574.73867	0.07215
573.45290	0.07243
572.16713	0.07286
570.88136	0.07352
569.59559	0.07445
568.30982	0.07572
567.02405	0.07731
565.73828	0.07900
564.45251	0.08040
563.16675	0.08116
561.88098	0.08121
560.59521	0.08072
559.30944	0.07991
558.02367	0.07887
556.73790	0.07763
555.45213	0.07628
554.16636	0.07499
552.88060	0.07393
551.59483	0.07316
550.30906	0.07261
549.02329	0.07215
547.73752	0.07168
546.45175	0.07115
545.16598	0.07061
543.88021	0.07013
542.59444	0.06976
541.30868	0.06952
540.02291	0.06941
538.73714	0.06934
537.45137	0.06918
536.16560	0.06883
534.87983	0.06835
533.59406	0.06792
532.30829	0.06764
531.02253	0.06748
529.73676	0.06736
528.45099	0.06724
527.16522	0.06708
525.87945	0.06690
524.59368	0.06670
523.30791	0.06649
522.02214	0.06627
520.73637	0.06601
519.45061	0.06569
518.16484	0.06531
516.87907	0.06488
515.59330	0.06444
514.30753	0.06410
513.02176	0.06389
511.73599	0.06377
510.45022	0.06364
509.16446	0.06344
507.87869	0.06315
506.59292	0.06275
505.30715	0.06228
504.02138	0.06176
502.73561	0.06124
501.44984	0.06075
500.16407	0.06029
498.87830	0.05987
497.59254	0.05948
496.30677	0.05912
495.02100	0.05878
493.73523	0.05844
492.44946	0.05808
491.16369	0.05765
489.87792	0.05717
488.59215	0.05667
487.30639	0.05622
486.02062	0.05586
484.73485	0.05558
483.44908	0.05536
482.16331	0.05514
480.87754	0.05486
479.59177	0.05456
478.30600	0.05430
477.02023	0.05410
475.73447	0.05390
474.44870	0.05362
473.16293	0.05324
471.87716	0.05283
470.59139	0.05249
469.30562	0.05226
468.01985	0.05209
466.73408	0.05188
465.44832	0.05158
464.16255	0.05118
462.87678	0.05074
461.59101	0.05031
460.30524	0.04993
459.01947	0.04958
457.73370	0.04928
456.44793	0.04905
455.16216	0.04891
453.87640	0.04880
452.59063	0.04864
451.30486	0.04835
450.01909	0.04795
448.73332	0.04751
447.44755	0.04712
446.16178	0.04683
444.87601	0.04665
443.59025	0.04655
442.30448	0.04644
441.01871	0.04628
439.73294	0.04605
438.44717	0.04580
437.16140	0.04554
435.87563	0.04530
434.58986	0.04508
433.30409	0.04487
432.01833	0.04466
430.73256	0.04448
429.44679	0.04435
428.16102	0.04425
426.87525	0.04412
425.58948	0.04391
424.30371	0.04363
423.01794	0.04332
421.73218	0.04307
420.44641	0.04293
419.16064	0.04287
417.87487	0.04277
416.58910	0.04256
415.30333	0.04229
414.01756	0.04203
412.73179	0.04182
411.44602	0.04162
410.16026	0.04142
408.87449	0.04123
407.58872	0.04107
406.30295	0.04092
405.01718	0.04076
403.73141	0.04057
402.44564	0.04039
401.15987	0.04020
399.87411	0.03999
