3997.45528	0.03353
3996.16951	0.03354
3994.88374	0.03375
3993.59798	0.03413
3992.31221	0.03445
3991.02644	0.03455
3989.74067	0.03448
3988.45490	0.03443
3987.16913	0.03454
3985.88336	0.03486
3984.59759	0.03528
3983.31183	0.03559
3982.02606	0.03555
3980.74029	0.03506
3979.45452	0.03425
3978.16875	0.03336
3976.88298	0.03266
3975.59721	0.03233
3974.31144	0.03236
3973.02567	0.03263
3971.73991	0.03291
3970.45414	0.03302
3969.16837	0.03295
3967.88260	0.03277
3966.59683	0.03264
3965.31106	0.03263
3964.02529	0.03271
3962.73952	0.03283
3961.45376	0.03300
3960.16799	0.03333
3958.88222	0.03376
3957.59645	0.03402
3956.31068	0.03393
3955.02491	0.03368
3953.73914	0.03364
3952.45337	0.03397
3951.16760	0.03441
3949.88184	0.03468
3948.59607	0.03476
3947.31030	0.03480
3946.02453	0.03483
3944.73876	0.03476
3943.45299	0.03458
3942.16722	0.03438
3940.88145	0.03424
3939.59569	0.03414
3938.30992	0.03397
3937.02415	0.03369
3935.73838	0.03335
3934.45261	0.03294
3933.16684	0.03241
3931.88107	0.03182
3930.59530	0.03140
3929.30953	0.03127
3928.02377	0.03134
3926.73800	0.03139
3925.45223	0.03139
3924.16646	0.03143
3922.88069	0.03159
3921.59492	0.03183
3920.30915	0.03203
3919.02338	0.03220
3917.73762	0.03236
3916.45185	0.03244
3915.16608	0.03238
3913.88031	0.03219
3912.59454	0.03195
3911.30877	0.03179
3910.02300	0.03175
3908.73723	0.03179
3907.45146	0.03178
3906.16570	0.03164
3904.87993	0.03143
3903.59416	0.03127
3902.30839	0.03126
3901.02262	0.03140
3899.73685	0.03162
3898.45108	0.03182
3897.16531	0.03201
3895.87955	0.03224
3894.59378	0.03253
3893.30801	0.03275
3892.02224	0.03266
3890.73647	0.03206
3889.45070	0.03117
3888.16493	0.03061
3886.87916	0.03079
3885.59339	0.03152
3884.30763	0.03244
3883.02186	0.03325
3881.73609	0.03374
3880.45032	0.03368
3879.16455	0.03314
3877.87878	0.03255
3876.59301	0.03227
3875.30724	0.03228
3874.02148	0.03240
3872.73571	0.03261
3871.44994	0.03290
3870.16417	0.03298
3868.87840	0.03250
3867.59263	0.03172
3866.30686	0.03120
3865.02109	0.03119
3863.73532	0.03152
3862.44956	0.03195
3861.16379	0.03225
3859.87802	0.03227
3858.59225	0.03194
3857.30648	0.03137
3856.02071	0.03078
3854.73494	0.03027
3853.44917	0.02977
3852.16341	0.02929
3850.87764	0.02903
3849.59187	0.02912
3848.30610	0.02955
3847.02033	0.03018
3845.73456	0.03078
3844.44879	0.03114
3843.16302	0.03122
3841.87725	0.03124
3840.59149	0.03140
3839.30572	0.03165
3838.01995	0.03165
3836.73418	0.03125
3835.44841	0.03060
3834.16264	0.02998
3832.87687	0.02955
3831.59110	0.02940
3830.30534	0.02959
3829.01957	0.03006
3827.73380	0.03060
3826.44803	0.03105
3825.16226	0.03135
3823.87649	0.03153
3822.59072	0.03142
3821.30495	0.03086
3820.01918	0.03014
3818.73342	0.02986
3817.44765	0.03018
3816.16188	0.03049
3814.87611	0.03032
3813.59034	0.02990
3812.30457	0.02962
3811.01880	0.02951
3809.73303	0.02959
3808.44726	0.02994
3807.16150	0.03042
3805.87573	0.03069
3804.58996	0.03070
3803.30419	0.03065
3802.01842	0.03051
3800.73265	0.03013
3799.44688	0.02972
3798.16111	0.02968
3796.87535	0.03006
3795.58958	0.03049
3794.30381	0.03063
3793.01804	0.03043
3791.73227	0.03007
3790.44650	0.02985
3789.16073	0.02988
3787.87496	0.03002
3786.58919	0.03007
3785.30343	0.03008
3784.01766	0.03028
3782.73189	0.03077
3781.44612	0.03123
3780.16035	0.03121
3778.87458	0.03058
3777.58881	0.02971
3776.30304	0.02903
3775.01728	0.02863
3773.73151	0.02835
3772.44574	0.02811
3771.15997	0.02794
3769.87420	0.02781
3768.58843	0.02775
3767.30266	0.02791
3766.01689	0.02824
3764.73112	0.02851
3763.44536	0.02858
3762.15959	0.02852
3760.87382	0.02841
3759.58805	0.02820
3758.30228	0.02788
3757.01651	0.02758
3755.73074	0.02749
3754.44497	0.02769
3753.15921	0.02797
3751.87344	0.02808
3750.58767	0.02801
3749.30190	0.02787
3748.01613	0.02767
3746.73036	0.02757
3745.44459	0.02756
3744.15882	0.02731
3742.87305	0.02680
3741.58729	0.02649
3740.30152	0.02660
3739.01575	0.02692
3737.72998	0.02718
3736.44421	0.02717
3735.15844	0.02686
3733.87267	0.02656
3732.58690	0.02665
3731.30114	0.02717
3730.01537	0.02795
3728.72960	0.02877
3727.44383	0.02931
3726.15806	0.02932
3724.87229	0.02891
3723.58652	0.02848
3722.30075	0.02837
3721.01498	0.02860
3719.72922	0.02882
3718.44345	0.02871
3717.15768	0.02820
3715.87191	0.02763
3714.58614	0.02737
3713.30037	0.02748
3712.01460	0.02772
3710.72883	0.02789
3709.44307	0.02801
3708.15730	0.02807
3706.87153	0.02799
3705.58576	0.02785
3704.29999	0.02779
3703.01422	0.02786
3701.72845	0.02797
3700.44268	0.02802
3699.15691	0.02810
3697.87115	0.02841
3696.58538	0.02887
3695.29961	0.02899
3694.01384	0.02849
3692.72807	0.02765
3691.44230	0.02708
3690.15653	0.02709
3688.87076	0.02743
3687.58500	0.02754
3686.29923	0.02733
3685.01346	0.02719
3683.72769	0.02739
3682.44192	0.02778
3681.15615	0.02803
3679.87038	0.02790
3678.58461	0.02751
3677.29884	0.02730
3676.01308	0.02740
3674.72731	0.02758
3673.44154	0.02768
3672.15577	0.02784
3670.87000	0.02810
3669.58423	0.02836
3668.29846	0.02856
3667.01269	0.02866
3665.72693	0.02855
3664.44116	0.02838
3663.15539	0.02849
3661.86962	0.02902
3660.58385	0.02968
3659.29808	0.02997
3658.01231	0.02964
3656.72654	0.02887
3655.44077	0.02815
3654.15501	0.02787
3652.86924	0.02801
3651.58347	0.02820
3650.29770	0.02818
3649.01193	0.02804
3647.72616	0.02796
3646.44039	0.02796
3645.15462	0.02797
3643.86886	0.02794
3642.58309	0.02786
3641.29732	0.02782
3640.01155	0.02804
3638.72578	0.02869
3637.44001	0.02966
3636.15424	0.03058
3634.86847	0.03103
3633.58270	0.03074
3632.29694	0.02992
3631.01117	0.02911
3629.72540	0.02873
3628.43963	0.02872
3627.15386	0.02881
3625.86809	0.02884
3624.58232	0.02878
3623.29655	0.02875
3622.01079	0.02893
3620.72502	0.02937
3619.43925	0.02989
3618.15348	0.03034
3616.86771	0.03076
3615.58194	0.03115
3614.29617	0.03140
3613.01040	0.03148
3611.72463	0.03159
3610.43887	0.03198
3609.15310	0.03257
3607.86733	0.03308
3606.58156	0.03336
3605.29579	0.03350
3604.01002	0.03365
3602.72425	0.03390
3601.43848	0.03427
3600.15272	0.03465
3598.86695	0.03486
3597.58118	0.03485
3596.29541	0.03481
3595.00964	0.03488
3593.72387	0.03503
3592.43810	0.03513
3591.15233	0.03513
3589.86656	0.03501
3588.58080	0.03475
3587.29503	0.03449
3586.00926	0.03452
3584.72349	0.03492
3583.43772	0.03542
3582.15195	0.03567
3580.86618	0.03562
3579.58041	0.03556
3578.29464	0.03575
3577.00888	0.03624
3575.72311	0.03692
3574.43734	0.03767
3573.15157	0.03845
3571.86580	0.03917
3570.58003	0.03973
3569.29426	0.03998
3568.00849	0.03983
3566.72273	0.03939
3565.43696	0.03894
3564.15119	0.03873
3562.86542	0.03882
3561.57965	0.03917
3560.29388	0.03978
3559.00811	0.04059
3557.72234	0.04139
3556.43657	0.04190
3555.15081	0.04197
3553.86504	0.04167
3552.57927	0.04116
3551.29350	0.04062
3550.00773	0.04017
3548.72196	0.04000
3547.43619	0.04029
3546.15042	0.04101
3544.86466	0.04188
3543.57889	0.04256
3542.29312	0.04296
3541.00735	0.04319
3539.72158	0.04341
3538.43581	0.04363
3537.15004	0.04380
3535.86427	0.04397
3534.57850	0.04423
3533.29274	0.04462
3532.00697	0.04501
3530.72120	0.04521
3529.43543	0.04514
3528.14966	0.04495
3526.86389	0.04493
3525.57812	0.04529
3524.29235	0.04601
3523.00659	0.04669
3521.72082	0.04691
3520.43505	0.04659
3519.14928	0.04605
3517.86351	0.04579
3516.57774	0.04604
3515.29197	0.04668
3514.00620	0.04734
3512.72043	0.04769
3511.43467	0.04769
3510.14890	0.04758
3508.86313	0.04766
3507.57736	0.04811
3506.29159	0.04882
3505.00582	0.04955
3503.72005	0.04998
3502.43428	0.04991
3501.14852	0.04938
3499.86275	0.04867
3498.57698	0.04812
3497.29121	0.04798
3496.00544	0.04828
3494.71967	0.04879
3493.43390	0.04932
3492.14813	0.04977
3490.86236	0.05015
3489.57660	0.05038
3488.29083	0.05039
3487.00506	0.05033
3485.71929	0.05044
3484.43352	0.05080
3483.14775	0.05119
3481.86198	0.05134
3480.57621	0.05125
3479.29045	0.05114
3478.00468	0.05118
3476.71891	0.05139
3475.43314	0.05164
3474.14737	0.05182
3472.86160	0.05192
3471.57583	0.05189
3470.29006	0.05169
3469.00429	0.05137
3467.71853	0.05112
3466.43276	0.05112
3465.14699	0.05144
3463.86122	0.05197
3462.57545	0.05248
3461.28968	0.05284
3460.00391	0.05310
3458.71814	0.05344
3457.43238	0.05395
3456.14661	0.05451
3454.86084	0.05486
3453.57507	0.05486
3452.28930	0.05459
3451.00353	0.05424
3449.71776	0.05392
3448.43199	0.05370
3447.14622	0.05364
3445.86046	0.05384
3444.57469	0.05429
3443.28892	0.05490
3442.00315	0.05548
3440.71738	0.05593
3439.43161	0.05627
3438.14584	0.05661
3436.86007	0.05705
3435.57431	0.05753
3434.28854	0.05790
3433.00277	0.05808
3431.71700	0.05817
3430.43123	0.05826
3429.14546	0.05834
3427.85969	0.05832
3426.57392	0.05822
3425.28815	0.05815
3424.00239	0.05824
3422.71662	0.05849
3421.43085	0.05886
3420.14508	0.05926
3418.85931	0.05956
3417.57354	0.05975
3416.28777	0.05992
3415.00200	0.06016
3413.71624	0.06039
3412.43047	0.06056
3411.14470	0.06073
3409.85893	0.06099
3408.57316	0.06127
3407.28739	0.06144
3406.00162	0.06153
3404.71585	0.06178
3403.43008	0.06234
3402.14432	0.06311
3400.85855	0.06375
3399.57278	0.06400
3398.28701	0.06386
3397.00124	0.06357
3395.71547	0.06345
3394.42970	0.06361
3393.14393	0.06400
3391.85817	0.06450
3390.57240	0.06496
3389.28663	0.06523
3388.00086	0.06519
3386.71509	0.06489
3385.42932	0.06461
3384.14355	0.06459
3382.85778	0.06486
3381.57201	0.06532
3380.28625	0.06584
3379.00048	0.06633
3377.71471	0.06668
3376.42894	0.06679
3375.14317	0.06675
3373.85740	0.06680
3372.57163	0.06710
3371.28586	0.06751
3370.00010	0.06772
3368.71433	0.06763
3367.42856	0.06746
3366.14279	0.06760
3364.85702	0.06818
3363.57125	0.06901
3362.28548	0.06974
3360.99971	0.07019
3359.71394	0.07046
3358.42818	0.07075
3357.14241	0.07117
3355.85664	0.07165
3354.57087	0.07205
3353.28510	0.07228
3351.99933	0.07238
3350.71356	0.07253
3349.42779	0.07289
3348.14202	0.07347
3346.85626	0.07405
3345.57049	0.07439
3344.28472	0.07441
3342.99895	0.07431
3341.71318	0.07433
3340.42741	0.07455
3339.14164	0.07494
3337.85587	0.07538
3336.57011	0.07570
3335.28434	0.07581
3333.99857	0.07580
3332.71280	0.07591
3331.42703	0.07633
3330.14126	0.07692
3328.85549	0.07741
3327.56972	0.07758
3326.28395	0.07748
3324.99819	0.07736
3323.71242	0.07758
3322.42665	0.07832
3321.14088	0.07939
3319.85511	0.08035
3318.56934	0.08080
3317.28357	0.08069
3315.99780	0.08024
3314.71204	0.07981
3313.42627	0.07961
3312.14050	0.07970
3310.85473	0.08002
3309.56896	0.08045
3308.28319	0.08094
3306.99742	0.08135
3305.71165	0.08153
3304.42588	0.08147
3303.14012	0.08136
3301.85435	0.08149
3300.56858	0.08193
3299.28281	0.08250
3297.99704	0.08290
3296.71127	0.08299
3295.42550	0.08282
3294.13973	0.08259
3292.85397	0.08248
3291.56820	0.08251
3290.28243	0.08255
3288.99666	0.08240
3287.71089	0.08202
3286.42512	0.08160
3285.13935	0.08141
3283.85358	0.08165
3282.56781	0.08215
3281.28205	0.08259
3279.99628	0.08267
3278.71051	0.08242
3277.42474	0.08211
3276.13897	0.08195
3274.85320	0.08195
3273.56743	0.08190
3272.28166	0.08164
3270.99590	0.08119
3269.71013	0.08073
3268.42436	0.08053
3267.13859	0.08073
3265.85282	0.08118
3264.56705	0.08154
3263.28128	0.08153
3261.99551	0.08113
3260.70974	0.08059
3259.42398	0.08017
3258.13821	0.07999
3256.85244	0.08002
3255.56667	0.08014
3254.28090	0.08023
3252.99513	0.08016
3251.70936	0.07986
3250.42359	0.07946
3249.13783	0.07914
3247.85206	0.07896
3246.56629	0.07884
3245.28052	0.07857
3243.99475	0.07812
3242.70898	0.07754
3241.42321	0.07694
3240.13744	0.07638
3238.85167	0.07598
3237.56591	0.07585
3236.28014	0.07599
3234.99437	0.07619
3233.70860	0.07622
3232.42283	0.07608
3231.13706	0.07593
3229.85129	0.07593
3228.56552	0.07605
3227.27976	0.07618
3225.99399	0.07624
3224.70822	0.07629
3223.42245	0.07629
3222.13668	0.07618
3220.85091	0.07592
3219.56514	0.07567
3218.27937	0.07566
3216.99360	0.07589
3215.70784	0.07609
3214.42207	0.07605
3213.13630	0.07574
3211.85053	0.07530
3210.56476	0.07486
3209.27899	0.07444
3207.99322	0.07402
3206.70745	0.07359
3205.42169	0.07317
3204.13592	0.07275
3202.85015	0.07227
3201.56438	0.07182
3200.27861	0.07155
3198.99284	0.07162
3197.70707	0.07197
3196.42130	0.07234
3195.13553	0.07245
3193.84977	0.07224
3192.56400	0.07187
3191.27823	0.07151
3189.99246	0.07125
3188.70669	0.07105
3187.42092	0.07084
3186.13515	0.07057
3184.84938	0.07020
3183.56362	0.06975
3182.27785	0.06932
3180.99208	0.06904
3179.70631	0.06901
3178.42054	0.06916
3177.13477	0.06934
3175.84900	0.06938
3174.56323	0.06925
3173.27746	0.06896
3171.99170	0.06856
3170.70593	0.06815
3169.42016	0.06782
3168.13439	0.06756
3166.84862	0.06733
3165.56285	0.06713
3164.27708	0.06703
3162.99131	0.06703
3161.70555	0.06702
3160.41978	0.06688
3159.13401	0.06660
3157.84824	0.06631
3156.56247	0.06610
3155.27670	0.06596
3153.99093	0.06580
3152.70516	0.06555
3151.41939	0.06517
3150.13363	0.06461
3148.84786	0.06395
3147.56209	0.06342
3146.27632	0.06318
3144.99055	0.06317
3143.70478	0.06311
3142.41901	0.06283
3141.13324	0.06240
3139.84748	0.06200
3138.56171	0.06172
3137.27594	0.06153
3135.99017	0.06135
3134.70440	0.06119
3133.41863	0.06114
3132.13286	0.06124
3130.84709	0.06140
3129.56132	0.06147
3128.27556	0.06140
3126.98979	0.06123
3125.70402	0.06098
3124.41825	0.06064
3123.13248	0.06027
3121.84671	0.06000
3120.56094	0.05992
3119.27517	0.05999
3117.98940	0.06001
3116.70364	0.05995
3115.41787	0.05991
3114.13210	0.06000
3112.84633	0.06019
3111.56056	0.06039
3110.27479	0.06058
3108.98902	0.06075
3107.70325	0.06085
3106.41749	0.06088
3105.13172	0.06089
3103.84595	0.06094
3102.56018	0.06103
3101.27441	0.06118
3099.98864	0.06141
3098.70287	0.06163
3097.41710	0.06171
3096.13133	0.06157
3094.84557	0.06128
3093.55980	0.06100
3092.27403	0.06082
3090.98826	0.06077
3089.70249	0.06084
3088.41672	0.06100
3087.13095	0.06122
3085.84518	0.06145
3084.55942	0.06164
3083.27365	0.06173
3081.98788	0.06169
3080.70211	0.06157
3079.41634	0.06150
3078.13057	0.06161
3076.84480	0.06192
3075.55903	0.06225
3074.27326	0.06234
3072.98750	0.06212
3071.70173	0.06170
3070.41596	0.06128
3069.13019	0.06098
3067.84442	0.06080
3066.55865	0.06076
3065.27288	0.06087
3063.98711	0.06108
3062.70135	0.06124
3061.41558	0.06124
3060.12981	0.06108
3058.84404	0.06086
3057.55827	0.06063
3056.27250	0.06041
3054.98673	0.06027
3053.70096	0.06023
3052.41519	0.06021
3051.12943	0.06007
3049.84366	0.05977
3048.55789	0.05943
3047.27212	0.05918
3045.98635	0.05903
3044.70058	0.05891
3043.41481	0.05876
3042.12904	0.05860
3040.84328	0.05840
3039.55751	0.05816
3038.27174	0.05791
3036.98597	0.05770
3035.70020	0.05755
3034.41443	0.05745
3033.12866	0.05738
3031.84289	0.05728
3030.55712	0.05706
3029.27136	0.05665
3027.98559	0.05612
3026.69982	0.05565
3025.41405	0.05539
3024.12828	0.05528
3022.84251	0.05522
3021.55674	0.05512
3020.27097	0.05501
3018.98521	0.05488
3017.69944	0.05473
3016.41367	0.05458
3015.12790	0.05451
3013.84213	0.05445
3012.55636	0.05431
3011.27059	0.05406
3009.98482	0.05384
3008.69905	0.05385
3007.41329	0.05408
3006.12752	0.05428
3004.84175	0.05424
3003.55598	0.05397
3002.27021	0.05365
3000.98444	0.05348
2999.69867	0.05349
2998.41290	0.05363
2997.12714	0.05374
2995.84137	0.05380
2994.55560	0.05385
2993.26983	0.05387
2991.98406	0.05382
2990.69829	0.05373
2989.41252	0.05367
2988.12675	0.05372
2986.84098	0.05395
2985.55522	0.05437
2984.26945	0.05492
2982.98368	0.05542
2981.69791	0.05571
2980.41214	0.05578
2979.12637	0.05574
2977.84060	0.05577
2976.55483	0.05598
2975.26907	0.05634
2973.98330	0.05672
2972.69753	0.05695
2971.41176	0.05702
2970.12599	0.05713
2968.84022	0.05742
2967.55445	0.05786
2966.26868	0.05824
2964.98291	0.05848
2963.69715	0.05863
2962.41138	0.05877
2961.12561	0.05893
2959.83984	0.05913
2958.55407	0.05936
2957.26830	0.05955
2955.98253	0.05952
2954.69676	0.05917
2953.41100	0.05862
2952.12523	0.05821
2950.83946	0.05821
2949.55369	0.05858
2948.26792	0.05902
2946.98215	0.05920
2945.69638	0.05909
2944.41061	0.05893
2943.12484	0.05897
2941.83908	0.05927
2940.55331	0.05972
2939.26754	0.06018
2937.98177	0.06052
2936.69600	0.06066
2935.41023	0.06060
2934.12446	0.06045
2932.83869	0.06039
2931.55293	0.06048
2930.26716	0.06070
2928.98139	0.06097
2927.69562	0.06118
2926.40985	0.06123
2925.12408	0.06108
2923.83831	0.06083
2922.55254	0.06064
2921.26677	0.06055
2919.98101	0.06038
2918.69524	0.06000
2917.40947	0.05946
2916.12370	0.05889
2914.83793	0.05837
2913.55216	0.05792
2912.26639	0.05759
2910.98062	0.05737
2909.69486	0.05719
2908.40909	0.05691
2907.12332	0.05646
2905.83755	0.05593
2904.55178	0.05551
2903.26601	0.05531
2901.98024	0.05526
2900.69447	0.05523
2899.40870	0.05520
2898.12294	0.05518
2896.83717	0.05512
2895.55140	0.05492
2894.26563	0.05456
2892.97986	0.05421
2891.69409	0.05400
2890.40832	0.05394
2889.12255	0.05390
2887.83678	0.05378
2886.55102	0.05354
2885.26525	0.05326
2883.97948	0.05305
2882.69371	0.05300
2881.40794	0.05308
2880.12217	0.05323
2878.83640	0.05336
2877.55063	0.05345
2876.26487	0.05354
2874.97910	0.05363
2873.69333	0.05366
2872.40756	0.05357
2871.12179	0.05340
2869.83602	0.05321
2868.55025	0.05302
2867.26448	0.05281
2865.97871	0.05259
2864.69295	0.05242
2863.40718	0.05235
2862.12141	0.05228
2860.83564	0.05212
2859.54987	0.05185
2858.26410	0.05160
2856.97833	0.05148
2855.69256	0.05148
2854.40680	0.05151
2853.12103	0.05154
2851.83526	0.05159
2850.54949	0.05163
2849.26372	0.05158
2847.97795	0.05135
2846.69218	0.05093
2845.40641	0.05035
2844.12064	0.04971
2842.83488	0.04918
2841.54911	0.04887
2840.26334	0.04874
2838.97757	0.04859
2837.69180	0.04827
2836.40603	0.04782
2835.12026	0.04740
2833.83449	0.04713
2832.54873	0.04690
2831.26296	0.04662
2829.97719	0.04630
2828.69142	0.04610
2827.40565	0.04609
2826.11988	0.04617
2824.83411	0.04623
2823.54834	0.04626
2822.26257	0.04628
2820.97681	0.04625
2819.69104	0.04612
2818.40527	0.04587
2817.11950	0.04557
2815.83373	0.04533
2814.54796	0.04523
2813.26219	0.04526
2811.97642	0.04532
2810.69066	0.04532
2809.40489	0.04519
2808.11912	0.04496
2806.83335	0.04472
2805.54758	0.04458
2804.26181	0.04457
2802.97604	0.04460
2801.69027	0.04461
2800.40450	0.04458
2799.11874	0.04452
2797.83297	0.04439
2796.54720	0.04419
2795.26143	0.04397
2793.97566	0.04376
2792.68989	0.04355
2791.40412	0.04332
2790.11835	0.04317
2788.83259	0.04319
2787.54682	0.04333
2786.26105	0.04345
2784.97528	0.04344
2783.68951	0.04328
2782.40374	0.04303
2781.11797	0.04275
2779.83220	0.04251
2778.54643	0.04241
2777.26067	0.04247
2775.97490	0.04260
2774.68913	0.04272
2773.40336	0.04275
2772.11759	0.04269
2770.83182	0.04261
2769.54605	0.04262
2768.26028	0.04271
2766.97452	0.04273
2765.68875	0.04254
2764.40298	0.04212
2763.11721	0.04171
2761.83144	0.04150
2760.54567	0.04152
2759.25990	0.04161
2757.97413	0.04160
2756.68836	0.04148
2755.40260	0.04133
2754.11683	0.04121
2752.83106	0.04111
2751.54529	0.04102
2750.25952	0.04095
2748.97375	0.04094
2747.68798	0.04094
2746.40221	0.04085
2745.11645	0.04062
2743.83068	0.04032
2742.54491	0.04007
2741.25914	0.03999
2739.97337	0.04005
2738.68760	0.04014
2737.40183	0.04012
2736.11606	0.03992
2734.83029	0.03968
2733.54453	0.03955
2732.25876	0.03956
2730.97299	0.03963
2729.68722	0.03965
2728.40145	0.03957
2727.11568	0.03941
2725.82991	0.03922
2724.54414	0.03902
2723.25838	0.03882
2721.97261	0.03864
2720.68684	0.03853
2719.40107	0.03853
2718.11530	0.03865
2716.82953	0.03885
2715.54376	0.03900
2714.25799	0.03899
2712.97222	0.03885
2711.68646	0.03868
2710.40069	0.03855
2709.11492	0.03843
2707.82915	0.03830
2706.54338	0.03821
2705.25761	0.03818
2703.97184	0.03817
2702.68607	0.03813
2701.40031	0.03806
2700.11454	0.03796
2698.82877	0.03781
2697.54300	0.03762
2696.25723	0.03745
2694.97146	0.03732
2693.68569	0.03731
2692.39992	0.03743
2691.11415	0.03756
2689.82839	0.03756
2688.54262	0.03739
2687.25685	0.03718
2685.97108	0.03705
2684.68531	0.03699
2683.39954	0.03691
2682.11377	0.03678
2680.82800	0.03664
2679.54224	0.03657
2678.25647	0.03658
2676.97070	0.03665
2675.68493	0.03671
2674.39916	0.03673
2673.11339	0.03667
2671.82762	0.03655
2670.54185	0.03637
2669.25608	0.03618
2667.97032	0.03606
2666.68455	0.03606
2665.39878	0.03618
2664.11301	0.03637
2662.82724	0.03657
2661.54147	0.03677
2660.25570	0.03695
2658.96993	0.03707
2657.68417	0.03705
2656.39840	0.03690
2655.11263	0.03670
2653.82686	0.03652
2652.54109	0.03639
2651.25532	0.03626
2649.96955	0.03614
2648.68378	0.03605
2647.39801	0.03594
2646.11225	0.03576
2644.82648	0.03555
2643.54071	0.03544
2642.25494	0.03545
2640.96917	0.03548
2639.68340	0.03539
2638.39763	0.03516
2637.11186	0.03482
2635.82609	0.03441
2634.54033	0.03399
2633.25456	0.03366
2631.96879	0.03353
2630.68302	0.03361
2629.39725	0.03379
2628.11148	0.03391
2626.82571	0.03390
2625.53994	0.03375
2624.25418	0.03356
2622.96841	0.03339
2621.68264	0.03326
2620.39687	0.03316
2619.11110	0.03305
2617.82533	0.03290
2616.53956	0.03273
2615.25379	0.03259
2613.96802	0.03256
2612.68226	0.03263
2611.39649	0.03272
2610.11072	0.03270
2608.82495	0.03251
2607.53918	0.03225
2606.25341	0.03203
2604.96764	0.03190
2603.68187	0.03178
2602.39611	0.03164
2601.11034	0.03154
2599.82457	0.03150
2598.53880	0.03150
2597.25303	0.03149
2595.96726	0.03147
2594.68149	0.03155
2593.39572	0.03175
2592.10995	0.03197
2590.82419	0.03202
2589.53842	0.03179
2588.25265	0.03135
2586.96688	0.03090
2585.68111	0.03063
2584.39534	0.03058
2583.10957	0.03062
2581.82380	0.03055
2580.53804	0.03032
2579.25227	0.03002
2577.96650	0.02981
2576.68073	0.02980
2575.39496	0.02999
2574.10919	0.03021
2572.82342	0.03023
2571.53765	0.02988
2570.25188	0.02930
2568.96612	0.02887
2567.68035	0.02885
2566.39458	0.02916
2565.10881	0.02950
2563.82304	0.02968
2562.53727	0.02971
2561.25150	0.02964
2559.96573	0.02945
2558.67997	0.02913
2557.39420	0.02872
2556.10843	0.02833
2554.82266	0.02806
2553.53689	0.02799
2552.25112	0.02808
2550.96535	0.02818
2549.67958	0.02818
2548.39381	0.02802
2547.10805	0.02772
2545.82228	0.02738
2544.53651	0.02721
2543.25074	0.02737
2541.96497	0.02785
2540.67920	0.02842
2539.39343	0.02877
2538.10766	0.02879
2536.82190	0.02862
2535.53613	0.02846
2534.25036	0.02835
2532.96459	0.02817
2531.67882	0.02782
2530.39305	0.02742
2529.10728	0.02710
2527.82151	0.02695
2526.53574	0.02696
2525.24998	0.02711
2523.96421	0.02732
2522.67844	0.02749
2521.39267	0.02759
2520.10690	0.02766
2518.82113	0.02769
2517.53536	0.02764
2516.24959	0.02753
2514.96383	0.02743
2513.67806	0.02739
2512.39229	0.02737
2511.10652	0.02729
2509.82075	0.02716
2508.53498	0.02702
2507.24921	0.02696
2505.96344	0.02708
2504.67767	0.02735
2503.39191	0.02753
2502.10614	0.02743
2500.82037	0.02710
2499.53460	0.02683
2498.24883	0.02681
2496.96306	0.02702
2495.67729	0.02727
2494.39152	0.02741
2493.10576	0.02734
2491.81999	0.02710
2490.53422	0.02675
2489.24845	0.02640
2487.96268	0.02616
2486.67691	0.02615
2485.39114	0.02637
2484.10537	0.02668
2482.81960	0.02688
2481.53384	0.02683
2480.24807	0.02656
2478.96230	0.02623
2477.67653	0.02608
2476.39076	0.02618
2475.10499	0.02641
2473.81922	0.02654
2472.53345	0.02647
2471.24769	0.02629
2469.96192	0.02619
2468.67615	0.02622
2467.39038	0.02629
2466.10461	0.02627
2464.81884	0.02618
2463.53307	0.02610
2462.24730	0.02610
2460.96153	0.02617
2459.67577	0.02626
2458.39000	0.02633
2457.10423	0.02631
2455.81846	0.02617
2454.53269	0.02593
2453.24692	0.02571
2451.96115	0.02564
2450.67538	0.02578
2449.38962	0.02598
2448.10385	0.02607
2446.81808	0.02595
2445.53231	0.02576
2444.24654	0.02565
2442.96077	0.02572
2441.67500	0.02588
2440.38923	0.02595
2439.10346	0.02580
2437.81770	0.02545
2436.53193	0.02507
2435.24616	0.02480
2433.96039	0.02466
2432.67462	0.02458
2431.38885	0.02450
2430.10308	0.02440
2428.81731	0.02429
2427.53155	0.02423
2426.24578	0.02426
2424.96001	0.02435
2423.67424	0.02444
2422.38847	0.02457
2421.10270	0.02472
2419.81693	0.02478
2418.53116	0.02466
2417.24539	0.02442
2415.95963	0.02430
2414.67386	0.02445
2413.38809	0.02478
2412.10232	0.02508
2410.81655	0.02518
2409.53078	0.02512
2408.24501	0.02506
2406.95924	0.02508
2405.67347	0.02507
2404.38771	0.02492
2403.10194	0.02468
2401.81617	0.02453
2400.53040	0.02458
2399.24463	0.02477
2397.95886	0.02493
2396.67309	0.02494
2395.38732	0.02481
2394.10156	0.02467
2392.81579	0.02463
2391.53002	0.02471
2390.24425	0.02482
2388.95848	0.02483
2387.67271	0.02461
2386.38694	0.02419
2385.10117	0.02379
2383.81540	0.02367
2382.52964	0.02384
2381.24387	0.02418
2379.95810	0.02454
2378.67233	0.02485
2377.38656	0.02508
2376.10079	0.02520
2374.81502	0.02516
2373.52925	0.02503
2372.24349	0.02493
2370.95772	0.02492
2369.67195	0.02490
2368.38618	0.02485
2367.10041	0.02474
2365.81464	0.02466
2364.52887	0.02457
2363.24310	0.02453
2361.95733	0.02461
2360.67157	0.02484
2359.38580	0.02496
2358.10003	0.02488
2356.81426	0.02468
2355.52849	0.02451
2354.24272	0.02445
2352.95695	0.02455
2351.67118	0.02490
2350.38542	0.02527
2349.09965	0.02535
2347.81388	0.02519
2346.52811	0.02526
2345.24234	0.02543
2343.95657	0.02518
2342.67080	0.02460
2341.38503	0.02461
2340.09926	0.02522
2338.81350	0.02515
2337.52773	0.02436
2336.24196	0.02447
2334.95619	0.02525
2333.67042	0.02508
2332.38465	0.02435
2331.09888	0.02472
2329.81311	0.02516
2328.52735	0.02469
2327.24158	0.02511
2325.95581	0.02605
2324.67004	0.02592
2323.38427	0.02561
2322.09850	0.02542
2320.81273	0.02441
2319.52696	0.02379
2318.24119	0.02378
2316.95543	0.02375
2315.66966	0.02425
2314.38389	0.02497
2313.09812	0.02533
2311.81235	0.02562
2310.52658	0.02554
2309.24081	0.02515
2307.95504	0.02475
2306.66928	0.02428
2305.38351	0.02398
2304.09774	0.02379
2302.81197	0.02357
2301.52620	0.02337
2300.24043	0.02316
2298.95466	0.02299
2297.66889	0.02277
2296.38312	0.02249
2295.09736	0.02221
2293.81159	0.02202
2292.52582	0.02199
2291.24005	0.02206
2289.95428	0.02217
2288.66851	0.02227
2287.38274	0.02234
2286.09697	0.02237
2284.81121	0.02239
2283.52544	0.02244
2282.23967	0.02254
2280.95390	0.02264
2279.66813	0.02260
2278.38236	0.02227
2277.09659	0.02161
2275.81082	0.02082
2274.52505	0.02019
2273.23929	0.01996
2271.95352	0.02022
2270.66775	0.02075
2269.38198	0.02115
2268.09621	0.02111
2266.81044	0.02072
2265.52467	0.02026
2264.23890	0.01991
2262.95314	0.01970
2261.66737	0.01968
2260.38160	0.01982
2259.09583	0.02002
2257.81006	0.02009
2256.52429	0.01992
2255.23852	0.01957
2253.95275	0.01923
2252.66698	0.01903
2251.38122	0.01889
2250.09545	0.01874
2248.80968	0.01853
2247.52391	0.01836
2246.23814	0.01845
2244.95237	0.01893
2243.66660	0.01956
2242.38083	0.01990
2241.09507	0.01966
2239.80930	0.01899
2238.52353	0.01819
2237.23776	0.01750
2235.95199	0.01709
2234.66622	0.01704
2233.38045	0.01730
2232.09468	0.01761
2230.80891	0.01770
2229.52315	0.01753
2228.23738	0.01730
2226.95161	0.01726
2225.66584	0.01744
2224.38007	0.01762
2223.09430	0.01755
2221.80853	0.01721
2220.52276	0.01685
2219.23700	0.01672
2217.95123	0.01676
2216.66546	0.01673
2215.37969	0.01646
2214.09392	0.01619
2212.80815	0.01628
2211.52238	0.01674
2210.23661	0.01711
2208.95084	0.01700
2207.66508	0.01654
2206.37931	0.01612
2205.09354	0.01609
2203.80777	0.01658
2202.52200	0.01749
2201.23623	0.01840
2199.95046	0.01873
2198.66469	0.01828
2197.37893	0.01743
2196.09316	0.01681
2194.80739	0.01674
2193.52162	0.01717
2192.23585	0.01787
2190.95008	0.01851
2189.66431	0.01861
2188.37854	0.01776
2187.09277	0.01611
2185.80701	0.01456
2184.52124	0.01413
2183.23547	0.01518
2181.94970	0.01706
2180.66393	0.01859
2179.37816	0.01891
2178.09239	0.01799
2176.80662	0.01642
2175.52085	0.01487
2174.23509	0.01369
2172.94932	0.01306
2171.66355	0.01312
2170.37778	0.01390
2169.09201	0.01503
2167.80624	0.01585
2166.52047	0.01589
2165.23470	0.01525
2163.94894	0.01431
2162.66317	0.01316
2161.37740	0.01162
2160.09163	0.00983
2158.80586	0.00844
2157.52009	0.00802
2156.23432	0.00851
2154.94855	0.00934
2153.66278	0.00993
2152.37702	0.01010
2151.09125	0.01008
2149.80548	0.01023
2148.51971	0.01066
2147.23394	0.01109
2145.94817	0.01123
2144.66240	0.01105
2143.37663	0.01085
2142.09087	0.01102
2140.80510	0.01173
2139.51933	0.01277
2138.23356	0.01374
2136.94779	0.01436
2135.66202	0.01455
2134.37625	0.01440
2133.09048	0.01417
2131.80471	0.01417
2130.51895	0.01453
2129.23318	0.01506
2127.94741	0.01548
2126.66164	0.01558
2125.37587	0.01536
2124.09010	0.01499
2122.80433	0.01482
2121.51856	0.01506
2120.23280	0.01564
2118.94703	0.01637
2117.66126	0.01712
2116.37549	0.01775
2115.08972	0.01801
2113.80395	0.01772
2112.51818	0.01697
2111.23241	0.01605
2109.94664	0.01526
2108.66088	0.01481
2107.37511	0.01484
2106.08934	0.01525
2104.80357	0.01572
2103.51780	0.01588
2102.23203	0.01566
2100.94626	0.01535
2099.66049	0.01635
2098.37473	0.01697
2097.08896	0.01700
2095.80319	0.01666
2094.51742	0.01603
2093.23165	0.01540
2091.94588	0.01511
2090.66011	0.01528
2089.37434	0.01570
2088.08857	0.01608
2086.80281	0.01628
2085.51704	0.01634
2084.23127	0.01636
2082.94550	0.01635
2081.65973	0.01627
2080.37396	0.01601
2079.08819	0.01569
2077.80242	0.01569
2076.51666	0.01632
2075.23089	0.01730
2073.94512	0.01794
2072.65935	0.01779
2071.37358	0.01703
2070.08781	0.01623
2068.80204	0.01568
2067.51627	0.01536
2066.23050	0.01509
2064.94474	0.01481
2063.65897	0.01449
2062.37320	0.01409
2061.08743	0.01365
2059.80166	0.01329
2058.51589	0.01316
2057.23012	0.01332
2055.94435	0.01362
2054.65859	0.01385
2053.37282	0.01397
2052.08705	0.01409
2050.80128	0.01433
2049.51551	0.01466
2048.22974	0.01506
2046.94397	0.01548
2045.65820	0.01579
2044.37243	0.01576
2043.08667	0.01532
2041.80090	0.01471
2040.51513	0.01432
2039.22936	0.01429
2037.94359	0.01435
2036.65782	0.01415
2035.37205	0.01368
2034.08628	0.01330
2032.80052	0.01332
2031.51475	0.01354
2030.22898	0.01343
2028.94321	0.01262
2027.65744	0.01116
2026.37167	0.00949
2025.08590	0.00825
2023.80013	0.00798
2022.51436	0.00882
2021.22860	0.01034
2019.94283	0.01184
2018.65706	0.01272
2017.37129	0.01292
2016.08552	0.01274
2014.79975	0.01264
2013.51398	0.01288
2012.22821	0.01338
2010.94245	0.01390
2009.65668	0.01428
2008.37091	0.01447
2007.08514	0.01448
2005.79937	0.01426
2004.51360	0.01377
2003.22783	0.01311
2001.94206	0.01247
2000.65629	0.01197
1999.37053	0.01149
1998.08476	0.01086
1996.79899	0.01019
1995.51322	0.00982
1994.22745	0.01000
1992.94168	0.01051
1991.65591	0.01094
1990.37014	0.01114
1989.08438	0.01133
1987.79861	0.01171
1986.51284	0.01212
1985.22707	0.01223
1983.94130	0.01196
1982.65553	0.01165
1981.36976	0.01171
1980.08399	0.01225
1978.79822	0.01304
1977.51246	0.01376
1976.22669	0.01429
1974.94092	0.01471
1973.65515	0.01500
1972.36938	0.01494
1971.08361	0.01432
1969.79784	0.01327
1968.51207	0.01236
1967.22631	0.01218
1965.94054	0.01283
1964.65477	0.01386
1963.36900	0.01468
1962.08323	0.01495
1960.79746	0.01466
1959.51169	0.01405
1958.22592	0.01343
1956.94015	0.01310
1955.65439	0.01321
1954.36862	0.01361
1953.08285	0.01394
1951.79708	0.01387
1950.51131	0.01344
1949.22554	0.01299
1947.93977	0.01289
1946.65400	0.01323
1945.36823	0.01389
1944.08247	0.01462
1942.79670	0.01509
1941.51093	0.01506
1940.22516	0.01461
1938.93939	0.01411
1937.65362	0.01393
1936.36785	0.01407
1935.08208	0.01424
1933.79632	0.01423
1932.51055	0.01412
1931.22478	0.01417
1929.93901	0.01447
1928.65324	0.01485
1927.36747	0.01502
1926.08170	0.01493
1924.79593	0.01475
1923.51016	0.01468
1922.22440	0.01469
1920.93863	0.01466
1919.65286	0.01453
1918.36709	0.01432
1917.08132	0.01411
1915.79555	0.01401
1914.50978	0.01408
1913.22401	0.01428
1911.93825	0.01450
1910.65248	0.01468
1909.36671	0.01483
1908.08094	0.01502
1906.79517	0.01525
1905.50940	0.01542
1904.22363	0.01541
1902.93786	0.01516
1901.65209	0.01481
1900.36633	0.01459
1899.08056	0.01461
1897.79479	0.01480
1896.50902	0.01497
1895.22325	0.01503
1893.93748	0.01504
1892.65171	0.01506
1891.36594	0.01502
1890.08018	0.01478
1888.79441	0.01436
1887.50864	0.01394
1886.22287	0.01374
1884.93710	0.01377
1883.65133	0.01391
1882.36556	0.01400
1881.07979	0.01399
1879.79402	0.01394
1878.50826	0.01393
1877.22249	0.01399
1875.93672	0.01407
1874.65095	0.01411
1873.36518	0.01410
1872.07941	0.01412
1870.79364	0.01423
1869.50787	0.01437
1868.22211	0.01439
1866.93634	0.01424
1865.65057	0.01407
1864.36480	0.01410
1863.07903	0.01433
1861.79326	0.01461
1860.50749	0.01476
1859.22172	0.01476
1857.93595	0.01472
1856.65019	0.01469
1855.36442	0.01466
1854.07865	0.01461
1852.79288	0.01457
1851.50711	0.01459
1850.22134	0.01464
1848.93557	0.01462
1847.64980	0.01448
1846.36404	0.01428
1845.07827	0.01411
1843.79250	0.01399
1842.50673	0.01396
1841.22096	0.01401
1839.93519	0.01411
1838.64942	0.01415
1837.36365	0.01409
1836.07788	0.01395
1834.79212	0.01379
1833.50635	0.01368
1832.22058	0.01370
1830.93481	0.01383
1829.64904	0.01398
1828.36327	0.01407
1827.07750	0.01407
1825.79173	0.01402
1824.50597	0.01395
1823.22020	0.01390
1821.93443	0.01391
1820.64866	0.01394
1819.36289	0.01391
1818.07712	0.01376
1816.79135	0.01350
1815.50558	0.01319
1814.21981	0.01290
1812.93405	0.01269
1811.64828	0.01259
1810.36251	0.01264
1809.07674	0.01279
1807.79097	0.01296
1806.50520	0.01308
1805.21943	0.01311
1803.93366	0.01308
1802.64790	0.01305
1801.36213	0.01307
1800.07636	0.01313
1798.79059	0.01316
1797.50482	0.01315
1796.21905	0.01311
1794.93328	0.01310
1793.64751	0.01313
1792.36174	0.01315
1791.07598	0.01312
1789.79021	0.01306
1788.50444	0.01306
1787.21867	0.01312
1785.93290	0.01316
1784.64713	0.01314
1783.36136	0.01305
1782.07559	0.01295
1780.78983	0.01287
1779.50406	0.01279
1778.21829	0.01269
1776.93252	0.01255
1775.64675	0.01244
1774.36098	0.01241
1773.07521	0.01247
1771.78944	0.01251
1770.50367	0.01254
1769.21791	0.01257
1767.93214	0.01257
1766.64637	0.01252
1765.36060	0.01243
1764.07483	0.01239
1762.78906	0.01239
1761.50329	0.01239
1760.21752	0.01240
1758.93176	0.01247
1757.64599	0.01256
1756.36022	0.01260
1755.07445	0.01257
1753.78868	0.01252
1752.50291	0.01248
1751.21714	0.01246
1749.93137	0.01250
1748.64560	0.01268
1747.35984	0.01296
1746.07407	0.01324
1744.78830	0.01342
1743.50253	0.01350
1742.21676	0.01355
1740.93099	0.01365
1739.64522	0.01375
1738.35945	0.01383
1737.07369	0.01392
1735.78792	0.01410
1734.50215	0.01429
1733.21638	0.01437
1731.93061	0.01442
1730.64484	0.01458
1729.35907	0.01488
1728.07330	0.01518
1726.78753	0.01540
1725.50177	0.01555
1724.21600	0.01569
1722.93023	0.01581
1721.64446	0.01591
1720.35869	0.01602
1719.07292	0.01617
1717.78715	0.01636
1716.50138	0.01658
1715.21561	0.01690
1713.92985	0.01737
1712.64408	0.01796
1711.35831	0.01862
1710.07254	0.01933
1708.78677	0.02007
1707.50100	0.02084
1706.21523	0.02163
1704.92946	0.02242
1703.64370	0.02325
1702.35793	0.02424
1701.07216	0.02542
1699.78639	0.02665
1698.50062	0.02798
1697.21485	0.02952
1695.92908	0.03116
1694.64331	0.03269
1693.35754	0.03411
1692.07178	0.03554
1690.78601	0.03689
1689.50024	0.03806
1688.21447	0.03911
1686.92870	0.04027
1685.64293	0.04167
1684.35716	0.04319
1683.07139	0.04469
1681.78563	0.04620
1680.49986	0.04776
1679.21409	0.04934
1677.92832	0.05093
1676.64255	0.05259
1675.35678	0.05430
1674.07101	0.05599
1672.78524	0.05770
1671.49947	0.05947
1670.21371	0.06124
1668.92794	0.06293
1667.64217	0.06454
1666.35640	0.06616
1665.07063	0.06785
1663.78486	0.06959
1662.49909	0.07129
1661.21332	0.07288
1659.92756	0.07434
1658.64179	0.07563
1657.35602	0.07670
1656.07025	0.07767
1654.78448	0.07875
1653.49871	0.07991
1652.21294	0.08095
1650.92717	0.08182
1649.64140	0.08266
1648.35564	0.08353
1647.06987	0.08435
1645.78410	0.08505
1644.49833	0.08568
1643.21256	0.08631
1641.92679	0.08692
1640.64102	0.08742
1639.35525	0.08779
1638.06949	0.08814
1636.78372	0.08856
1635.49795	0.08896
1634.21218	0.08923
1632.92641	0.08932
1631.64064	0.08925
1630.35487	0.08903
1629.06910	0.08864
1627.78333	0.08808
1626.49757	0.08738
1625.21180	0.08656
1623.92603	0.08559
1622.64026	0.08441
1621.35449	0.08302
1620.06872	0.08156
1618.78295	0.08015
1617.49718	0.07875
1616.21142	0.07727
1614.92565	0.07571
1613.63988	0.07417
1612.35411	0.07267
1611.06834	0.07114
1609.78257	0.06956
1608.49680	0.06800
1607.21103	0.06648
1605.92526	0.06500
1604.63950	0.06356
1603.35373	0.06218
1602.06796	0.06090
1600.78219	0.05971
1599.49642	0.05859
1598.21065	0.05753
1596.92488	0.05652
1595.63911	0.05560
1594.35335	0.05478
1593.06758	0.05405
1591.78181	0.05341
1590.49604	0.05287
1589.21027	0.05243
1587.92450	0.05209
1586.63873	0.05182
1585.35296	0.05161
1584.06719	0.05145
1582.78143	0.05137
1581.49566	0.05135
1580.20989	0.05137
1578.92412	0.05150
1577.63835	0.05180
1576.35258	0.05224
1575.06681	0.05270
1573.78104	0.05317
1572.49528	0.05374
1571.20951	0.05443
1569.92374	0.05523
1568.63797	0.05607
1567.35220	0.05696
1566.06643	0.05786
1564.78066	0.05866
1563.49489	0.05930
1562.20912	0.05991
1560.92336	0.06066
1559.63759	0.06156
1558.35182	0.06253
1557.06605	0.06358
1555.78028	0.06481
1554.49451	0.06612
1553.20874	0.06730
1551.92297	0.06828
1550.63721	0.06911
1549.35144	0.06984
1548.06567	0.07050
1546.77990	0.07113
1545.49413	0.07169
1544.20836	0.07215
1542.92259	0.07249
1541.63682	0.07282
1540.35105	0.07318
1539.06529	0.07353
1537.77952	0.07385
1536.49375	0.07419
1535.20798	0.07459
1533.92221	0.07497
1532.63644	0.07524
1531.35067	0.07542
1530.06490	0.07553
1528.77914	0.07560
1527.49337	0.07558
1526.20760	0.07547
1524.92183	0.07527
1523.63606	0.07507
1522.35029	0.07495
1521.06452	0.07488
1519.77875	0.07478
1518.49298	0.07468
1517.20722	0.07451
1515.92145	0.07422
1514.63568	0.07379
1513.34991	0.07327
1512.06414	0.07263
1510.77837	0.07183
1509.49260	0.07094
1508.20683	0.07005
1506.92107	0.06918
1505.63530	0.06824
1504.34953	0.06724
1503.06376	0.06623
1501.77799	0.06519
1500.49222	0.06406
1499.20645	0.06283
1497.92068	0.06159
1496.63491	0.06037
1495.34915	0.05916
1494.06338	0.05793
1492.77761	0.05672
1491.49184	0.05554
1490.20607	0.05434
1488.92030	0.05317
1487.63453	0.05208
1486.34876	0.05112
1485.06299	0.05029
1483.77723	0.04959
1482.49146	0.04899
1481.20569	0.04845
1479.91992	0.04796
1478.63415	0.04754
1477.34838	0.04724
1476.06261	0.04714
1474.77684	0.04727
1473.49108	0.04758
1472.20531	0.04793
1470.91954	0.04823
1469.63377	0.04853
1468.34800	0.04890
1467.06223	0.04936
1465.77646	0.04986
1464.49069	0.05033
1463.20492	0.05073
1461.91916	0.05108
1460.63339	0.05142
1459.34762	0.05186
1458.06185	0.05244
1456.77608	0.05310
1455.49031	0.05374
1454.20454	0.05435
1452.91877	0.05488
1451.63301	0.05524
1450.34724	0.05541
1449.06147	0.05546
1447.77570	0.05546
1446.48993	0.05539
1445.20416	0.05523
1443.91839	0.05503
1442.63262	0.05480
1441.34685	0.05454
1440.06109	0.05426
1438.77532	0.05396
1437.48955	0.05363
1436.20378	0.05321
1434.91801	0.05273
1433.63224	0.05226
1432.34647	0.05185
1431.06070	0.05146
1429.77494	0.05102
1428.48917	0.05056
1427.20340	0.05014
1425.91763	0.04983
1424.63186	0.04962
1423.34609	0.04943
1422.06032	0.04926
1420.77455	0.04914
1419.48878	0.04908
1418.20302	0.04907
1416.91725	0.04913
1415.63148	0.04924
1414.34571	0.04934
1413.05994	0.04937
1411.77417	0.04934
1410.48840	0.04930
1409.20263	0.04931
1407.91687	0.04937
1406.63110	0.04949
1405.34533	0.04964
1404.05956	0.04973
1402.77379	0.04975
1401.48802	0.04970
1400.20225	0.04964
1398.91648	0.04957
1397.63071	0.04950
1396.34495	0.04941
1395.05918	0.04932
1393.77341	0.04924
1392.48764	0.04918
1391.20187	0.04917
1389.91610	0.04918
1388.63033	0.04920
1387.34456	0.04918
1386.05880	0.04910
1384.77303	0.04896
1383.48726	0.04878
1382.20149	0.04854
1380.91572	0.04826
1379.62995	0.04798
1378.34418	0.04770
1377.05841	0.04742
1375.77264	0.04714
1374.48688	0.04684
1373.20111	0.04652
1371.91534	0.04616
1370.62957	0.04578
1369.34380	0.04539
1368.05803	0.04496
1366.77226	0.04451
1365.48649	0.04404
1364.20073	0.04358
1362.91496	0.04314
1361.62919	0.04275
1360.34342	0.04244
1359.05765	0.04223
1357.77188	0.04206
1356.48611	0.04190
1355.20034	0.04172
1353.91457	0.04158
1352.62881	0.04151
1351.34304	0.04151
1350.05727	0.04157
1348.77150	0.04167
1347.48573	0.04178
1346.19996	0.04193
1344.91419	0.04212
1343.62842	0.04236
1342.34266	0.04259
1341.05689	0.04277
1339.77112	0.04288
1338.48535	0.04297
1337.19958	0.04304
1335.91381	0.04309
1334.62804	0.04305
1333.34227	0.04292
1332.05650	0.04273
1330.77074	0.04253
1329.48497	0.04234
1328.19920	0.04215
1326.91343	0.04198
1325.62766	0.04183
1324.34189	0.04171
1323.05612	0.04163
1321.77035	0.04155
1320.48459	0.04146
1319.19882	0.04133
1317.91305	0.04116
1316.62728	0.04096
1315.34151	0.04079
1314.05574	0.04068
1312.76997	0.04063
1311.48420	0.04057
1310.19843	0.04047
1308.91267	0.04038
1307.62690	0.04031
1306.34113	0.04027
1305.05536	0.04017
1303.76959	0.03999
1302.48382	0.03974
1301.19805	0.03950
1299.91228	0.03933
1298.62652	0.03921
1297.34075	0.03912
1296.05498	0.03904
1294.76921	0.03900
1293.48344	0.03902
1292.19767	0.03912
1290.91190	0.03931
1289.62613	0.03954
1288.34036	0.03976
1287.05460	0.03991
1285.76883	0.04000
1284.48306	0.04008
1283.19729	0.04019
1281.91152	0.04034
1280.62575	0.04051
1279.33998	0.04065
1278.05421	0.04073
1276.76845	0.04077
1275.48268	0.04077
1274.19691	0.04077
1272.91114	0.04081
1271.62537	0.04090
1270.33960	0.04102
1269.05383	0.04119
1267.76806	0.04138
1266.48229	0.04159
1265.19653	0.04179
1263.91076	0.04194
1262.62499	0.04206
1261.33922	0.04219
1260.05345	0.04234
1258.76768	0.04253
1257.48191	0.04277
1256.19614	0.04304
1254.91037	0.04333
1253.62461	0.04362
1252.33884	0.04392
1251.05307	0.04424
1249.76730	0.04459
1248.48153	0.04499
1247.19576	0.04543
1245.90999	0.04590
1244.62422	0.04638
1243.33846	0.04684
1242.05269	0.04725
1240.76692	0.04761
1239.48115	0.04793
1238.19538	0.04824
1236.90961	0.04855
1235.62384	0.04882
1234.33807	0.04900
1233.05230	0.04905
1231.76654	0.04901
1230.48077	0.04892
1229.19500	0.04881
1227.90923	0.04863
1226.62346	0.04834
1225.33769	0.04796
1224.05192	0.04752
1222.76615	0.04706
1221.48039	0.04661
1220.19462	0.04616
1218.90885	0.04571
1217.62308	0.04527
1216.33731	0.04488
1215.05154	0.04454
1213.76577	0.04426
1212.48000	0.04403
1211.19423	0.04384
1209.90847	0.04370
1208.62270	0.04360
1207.33693	0.04352
1206.05116	0.04346
1204.76539	0.04340
1203.47962	0.04334
1202.19385	0.04325
1200.90808	0.04306
1199.62232	0.04274
1198.33655	0.04258
1197.05078	0.04239
1195.76501	0.04214
1194.47924	0.04180
1193.19347	0.04140
1191.90770	0.04096
1190.62193	0.04051
1189.33616	0.04009
1188.05040	0.03971
1186.76463	0.03940
1185.47886	0.03917
1184.19309	0.03904
1182.90732	0.03896
1181.62155	0.03889
1180.33578	0.03877
1179.05001	0.03861
1177.76425	0.03840
1176.47848	0.03818
1175.19271	0.03799
1173.90694	0.03788
1172.62117	0.03788
1171.33540	0.03800
1170.04963	0.03819
1168.76386	0.03837
1167.47809	0.03852
1166.19233	0.03862
1164.90656	0.03871
1163.62079	0.03878
1162.33502	0.03885
1161.04925	0.03889
1159.76348	0.03889
1158.47771	0.03885
1157.19194	0.03875
1155.90618	0.03860
1154.62041	0.03841
1153.33464	0.03820
1152.04887	0.03799
1150.76310	0.03776
1149.47733	0.03748
1148.19156	0.03716
1146.90579	0.03686
1145.62002	0.03660
1144.33426	0.03641
1143.04849	0.03624
1141.76272	0.03610
1140.47695	0.03602
1139.19118	0.03599
1137.90541	0.03601
1136.61964	0.03607
1135.33387	0.03616
1134.04811	0.03625
1132.76234	0.03631
1131.47657	0.03635
1130.19080	0.03641
1128.90503	0.03656
1127.61926	0.03681
1126.33349	0.03716
1125.04772	0.03761
1123.76195	0.03816
1122.47619	0.03878
1121.19042	0.03942
1119.90465	0.04008
1118.61888	0.04080
1117.33311	0.04157
1116.04734	0.04235
1114.76157	0.04309
1113.47580	0.04379
1112.19004	0.04449
1110.90427	0.04520
1109.61850	0.04588
1108.33273	0.04654
1107.04696	0.04722
1105.76119	0.04796
1104.47542	0.04868
1103.18965	0.04932
1101.90388	0.04983
1100.61812	0.05026
1099.33235	0.05066
1098.04658	0.05098
1096.76081	0.05118
1095.47504	0.05130
1094.18927	0.05141
1092.90350	0.05154
1091.61773	0.05165
1090.33197	0.05168
1089.04620	0.05168
1087.76043	0.05174
1086.47466	0.05195
1085.18889	0.05234
1083.90312	0.05289
1082.61735	0.05355
1081.33158	0.05425
1080.04581	0.05495
1078.76005	0.05558
1077.47428	0.05613
1076.18851	0.05660
1074.90274	0.05705
1073.61697	0.05753
1072.33120	0.05801
1071.04543	0.05845
1069.75966	0.05882
1068.47390	0.05913
1067.18813	0.05944
1065.90236	0.05976
1064.61659	0.06010
1063.33082	0.06047
1062.04505	0.06090
1060.75928	0.06139
1059.47351	0.06189
1058.18774	0.06235
1056.90198	0.06274
1055.61621	0.06312
1054.33044	0.06350
1053.04467	0.06385
1051.75890	0.06417
1050.47313	0.06446
1049.18736	0.06479
1047.90159	0.06516
1046.61583	0.06557
1045.33006	0.06603
1044.04429	0.06655
1042.75852	0.06710
1041.47275	0.06767
1040.18698	0.06821
1038.90121	0.06877
1037.61544	0.06937
1036.32967	0.07001
1035.04391	0.07067
1033.75814	0.07131
1032.47237	0.07190
1031.18660	0.07239
1029.90083	0.07267
1028.61506	0.07266
1027.32929	0.07232
1026.04352	0.07170
1024.75775	0.07093
1023.47199	0.07011
1022.18622	0.06923
1020.90045	0.06820
1019.61468	0.06695
1018.32891	0.06552
1017.04314	0.06409
1015.75737	0.06280
1014.47160	0.06164
1013.18584	0.06057
1011.90007	0.05953
1010.61430	0.05852
1009.32853	0.05753
1008.04276	0.05655
1006.75699	0.05563
1005.47122	0.05479
1004.18545	0.05401
1002.89968	0.05325
1001.61392	0.05246
1000.32815	0.05165
999.04238	0.05084
997.75661	0.05009
996.47084	0.04946
995.18507	0.04895
993.89930	0.04848
992.61353	0.04797
991.32777	0.04738
990.04200	0.04672
988.75623	0.04605
987.47046	0.04544
986.18469	0.04491
984.89892	0.04444
983.61315	0.04401
982.32738	0.04363
981.04161	0.04327
979.75585	0.04294
978.47008	0.04265
977.18431	0.04243
975.89854	0.04223
974.61277	0.04202
973.32700	0.04180
972.04123	0.04159
970.75546	0.04144
969.46970	0.04137
968.18393	0.04138
966.89816	0.04143
965.61239	0.04142
964.32662	0.04132
963.04085	0.04113
961.75508	0.04085
960.46931	0.04047
959.18354	0.03997
957.89778	0.03943
956.61201	0.03894
955.32624	0.03861
954.04047	0.03845
952.75470	0.03840
951.46893	0.03833
950.18316	0.03814
948.89739	0.03779
947.61163	0.03737
946.32586	0.03698
945.04009	0.03671
943.75432	0.03655
942.46855	0.03645
941.18278	0.03633
939.89701	0.03617
938.61124	0.03600
937.32547	0.03585
936.03971	0.03571
934.75394	0.03555
933.46817	0.03538
932.18240	0.03520
930.89663	0.03501
929.61086	0.03480
928.32509	0.03459
927.03932	0.03441
925.75356	0.03421
924.46779	0.03398
923.18202	0.03373
921.89625	0.03354
920.61048	0.03342
919.32471	0.03333
918.03894	0.03323
916.75317	0.03307
915.46740	0.03285
914.18164	0.03260
912.89587	0.03234
911.61010	0.03210
910.32433	0.03186
909.03856	0.03159
907.75279	0.03132
906.46702	0.03112
905.18125	0.03103
903.89549	0.03101
902.60972	0.03094
901.32395	0.03073
900.03818	0.03047
898.75241	0.03029
897.46664	0.03023
896.18087	0.03020
894.89510	0.03014
893.60933	0.03006
892.32357	0.02998
891.03780	0.02983
889.75203	0.02954
888.46626	0.02916
887.18049	0.02889
885.89472	0.02885
884.60895	0.02897
883.32318	0.02910
882.03742	0.02914
880.75165	0.02917
879.46588	0.02926
878.18011	0.02943
876.89434	0.02956
875.60857	0.02955
874.32280	0.02936
873.03703	0.02911
871.75126	0.02891
870.46550	0.02885
869.17973	0.02889
867.89396	0.02891
866.60819	0.02886
865.32242	0.02875
864.03665	0.02864
862.75088	0.02855
861.46511	0.02847
860.17935	0.02836
858.89358	0.02822
857.60781	0.02805
856.32204	0.02786
855.03627	0.02769
853.75050	0.02758
852.46473	0.02756
851.17896	0.02759
849.89319	0.02759
848.60743	0.02753
847.32166	0.02739
846.03589	0.02722
844.75012	0.02706
843.46435	0.02695
842.17858	0.02686
840.89281	0.02678
839.60704	0.02668
838.32128	0.02656
837.03551	0.02642
835.74974	0.02631
834.46397	0.02627
833.17820	0.02634
831.89243	0.02646
830.60666	0.02647
829.32089	0.02632
828.03512	0.02609
826.74936	0.02596
825.46359	0.02596
824.17782	0.02604
822.89205	0.02608
821.60628	0.02606
820.32051	0.02598
819.03474	0.02585
817.74897	0.02570
816.46321	0.02562
815.17744	0.02565
813.89167	0.02586
812.60590	0.02617
811.32013	0.02646
810.03436	0.02658
808.74859	0.02650
807.46282	0.02633
806.17705	0.02621
804.89129	0.02616
803.60552	0.02615
802.31975	0.02612
801.03398	0.02612
799.74821	0.02617
798.46244	0.02626
797.17667	0.02633
795.89090	0.02630
794.60513	0.02617
793.31937	0.02606
792.03360	0.02614
790.74783	0.02645
789.46206	0.02688
788.17629	0.02722
786.89052	0.02733
785.60475	0.02721
784.31898	0.02699
783.03322	0.02678
781.74745	0.02668
780.46168	0.02670
779.17591	0.02680
777.89014	0.02695
776.60437	0.02712
775.31860	0.02727
774.03283	0.02731
772.74706	0.02718
771.46130	0.02694
770.17553	0.02676
768.88976	0.02677
767.60399	0.02698
766.31822	0.02727
765.03245	0.02754
763.74668	0.02777
762.46091	0.02794
761.17515	0.02802
759.88938	0.02800
758.60361	0.02791
757.31784	0.02787
756.03207	0.02791
754.74630	0.02798
753.46053	0.02800
752.17476	0.02798
750.88899	0.02804
749.60323	0.02823
748.31746	0.02849
747.03169	0.02870
745.74592	0.02880
744.46015	0.02882
743.17438	0.02879
741.88861	0.02876
740.60284	0.02881
739.31708	0.02893
738.03131	0.02905
736.74554	0.02908
735.45977	0.02902
734.17400	0.02891
732.88823	0.02878
731.60246	0.02870
730.31669	0.02874
729.03092	0.02892
727.74516	0.02913
726.45939	0.02930
725.17362	0.02942
723.88785	0.02955
722.60208	0.02965
721.31631	0.02969
720.03054	0.02965
718.74477	0.02957
717.45901	0.02951
716.17324	0.02948
714.88747	0.02951
713.60170	0.02962
712.31593	0.02983
711.03016	0.03010
709.74439	0.03038
708.45862	0.03062
707.17285	0.03082
705.88709	0.03098
704.60132	0.03111
703.31555	0.03121
702.02978	0.03130
700.74401	0.03139
699.45824	0.03150
698.17247	0.03161
696.88670	0.03169
695.60094	0.03171
694.31517	0.03167
693.02940	0.03160
691.74363	0.03156
690.45786	0.03157
689.17209	0.03162
687.88632	0.03166
686.60055	0.03164
685.31478	0.03159
684.02902	0.03157
682.74325	0.03162
681.45748	0.03170
680.17171	0.03175
678.88594	0.03175
677.60017	0.03174
676.31440	0.03177
675.02863	0.03183
673.74287	0.03190
672.45710	0.03196
671.17133	0.03200
669.88556	0.03205
668.59979	0.03209
667.31402	0.03217
666.02825	0.03238
664.74248	0.03255
663.45671	0.03266
662.17095	0.03265
660.88518	0.03256
659.59941	0.03248
658.31364	0.03251
657.02787	0.03260
655.74210	0.03264
654.45633	0.03256
653.17056	0.03240
651.88480	0.03227
650.59903	0.03222
649.31326	0.03226
648.02749	0.03235
646.74172	0.03248
645.45595	0.03258
644.17018	0.03255
642.88441	0.03241
641.59864	0.03226
640.31288	0.03225
639.02711	0.03242
637.74134	0.03265
636.45557	0.03278
635.16980	0.03273
633.88403	0.03255
632.59826	0.03234
631.31249	0.03233
630.02673	0.03318
628.74096	0.03450
627.45519	0.03357
626.16942	0.03494
624.88365	0.03785
623.59788	0.04056
622.31211	0.04261
621.02634	0.04397
619.74057	0.04430
618.45481	0.04307
617.16904	0.04038
615.88327	0.03743
614.59750	0.03589
613.31173	0.03668
612.02596	0.03937
610.74019	0.04256
609.45442	0.04503
608.16866	0.04665
606.88289	0.04790
605.59712	0.04887
604.31135	0.04905
603.02558	0.04814
601.73981	0.04655
600.45404	0.04510
599.16827	0.04423
597.88250	0.04377
596.59674	0.04328
595.31097	0.04255
594.02520	0.04171
592.73943	0.04101
591.45366	0.04056
590.16789	0.04032
588.88212	0.04024
587.59635	0.04030
586.31059	0.04042
585.02482	0.04054
583.73905	0.04066
582.45328	0.04093
581.16751	0.04153
579.88174	0.04241
578.59597	0.04324
577.31020	0.04368
576.02443	0.04372
574.73867	0.04370
573.45290	0.04395
572.16713	0.04455
570.88136	0.04535
569.59559	0.04616
568.30982	0.04689
567.02405	0.04749
565.73828	0.04788
564.45251	0.04812
563.16675	0.04831
561.88098	0.04848
560.59521	0.04846
559.30944	0.04801
558.02367	0.04706
556.73790	0.04592
555.45213	0.04500
554.16636	0.04457
552.88060	0.04450
551.59483	0.04449
550.30906	0.04431
549.02329	0.04396
547.73752	0.04358
546.45175	0.04330
545.16598	0.04308
543.88021	0.04279
542.59444	0.04232
541.30868	0.04169
540.02291	0.04104
538.73714	0.04055
537.45137	0.04032
536.16560	0.04037
534.87983	0.04052
533.59406	0.04056
532.30829	0.04037
531.02253	0.04000
529.73676	0.03967
528.45099	0.03952
527.16522	0.03953
525.87945	0.03948
524.59368	0.03923
523.30791	0.03877
522.02214	0.03831
520.73637	0.03808
519.45061	0.03818
518.16484	0.03848
516.87907	0.03870
515.59330	0.03861
514.30753	0.03813
513.02176	0.03745
511.73599	0.03684
510.45022	0.03650
509.16446	0.03650
507.87869	0.03670
506.59292	0.03692
505.30715	0.03695
504.02138	0.03665
502.73561	0.03605
501.44984	0.03532
500.16407	0.03468
498.87830	0.03433
497.59254	0.03432
496.30677	0.03455
495.02100	0.03479
493.73523	0.03487
492.44946	0.03475
491.16369	0.03453
489.87792	0.03433
488.59215	0.03415
487.30639	0.03394
486.02062	0.03368
484.73485	0.03341
483.44908	0.03319
482.16331	0.03298
480.87754	0.03269
479.59177	0.03236
478.30600	0.03214
477.02023	0.03215
475.73447	0.03233
474.44870	0.03248
473.16293	0.03246
471.87716	0.03227
470.59139	0.03205
469.30562	0.03188
468.01985	0.03178
466.73408	0.03168
465.44832	0.03156
464.16255	0.03142
462.87678	0.03129
461.59101	0.03116
460.30524	0.03099
459.01947	0.03078
457.73370	0.03053
456.44793	0.03027
455.16216	0.02999
453.87640	0.02968
452.59063	0.02938
451.30486	0.02915
450.01909	0.02903
448.73332	0.02900
447.44755	0.02896
446.16178	0.02888
444.87601	0.02873
443.59025	0.02854
442.30448	0.02837
441.01871	0.02824
439.73294	0.02816
438.44717	0.02805
437.16140	0.02789
435.87563	0.02772
434.58986	0.02760
433.30409	0.02756
432.01833	0.02758
430.73256	0.02761
429.44679	0.02756
428.16102	0.02743
426.87525	0.02722
425.58948	0.02698
424.30371	0.02676
423.01794	0.02657
421.73218	0.02644
420.44641	0.02635
419.16064	0.02627
417.87487	0.02614
416.58910	0.02600
415.30333	0.02592
414.01756	0.02590
412.73179	0.02589
411.44602	0.02583
410.16026	0.02566
408.87449	0.02541
407.58872	0.02516
406.30295	0.02498
405.01718	0.02490
403.73141	0.02486
402.44564	0.02475
401.15987	0.02451
399.87411	0.02419
