3997.45528	0.01523
3996.16951	0.01493
3994.88374	0.01458
3993.59798	0.01429
3992.31221	0.01421
3991.02644	0.01440
3989.74067	0.01475
3988.45490	0.01516
3987.16913	0.01571
3985.88336	0.01647
3984.59759	0.01717
3983.31183	0.01736
3982.02606	0.01693
3980.74029	0.01630
3979.45452	0.01607
3978.16875	0.01637
3976.88298	0.01674
3975.59721	0.01660
3974.31144	0.01578
3973.02567	0.01460
3971.73991	0.01354
3970.45414	0.01288
3969.16837	0.01260
3967.88260	0.01254
3966.59683	0.01258
3965.31106	0.01260
3964.02529	0.01260
3962.73952	0.01265
3961.45376	0.01285
3960.16799	0.01327
3958.88222	0.01384
3957.59645	0.01444
3956.31068	0.01488
3955.02491	0.01500
3953.73914	0.01471
3952.45337	0.01416
3951.16760	0.01372
3949.88184	0.01365
3948.59607	0.01395
3947.31030	0.01442
3946.02453	0.01486
3944.73876	0.01519
3943.45299	0.01537
3942.16722	0.01537
3940.88145	0.01524
3939.59569	0.01503
3938.30992	0.01480
3937.02415	0.01455
3935.73838	0.01424
3934.45261	0.01389
3933.16684	0.01363
3931.88107	0.01355
3930.59530	0.01373
3929.30953	0.01416
3928.02377	0.01479
3926.73800	0.01541
3925.45223	0.01575
3924.16646	0.01573
3922.88069	0.01547
3921.59492	0.01523
3920.30915	0.01522
3919.02338	0.01555
3917.73762	0.01609
3916.45185	0.01647
3915.16608	0.01632
3913.88031	0.01560
3912.59454	0.01469
3911.30877	0.01413
3910.02300	0.01418
3908.73723	0.01472
3907.45146	0.01545
3906.16570	0.01615
3904.87993	0.01669
3903.59416	0.01687
3902.30839	0.01643
3901.02262	0.01537
3899.73685	0.01409
3898.45108	0.01320
3897.16531	0.01310
3895.87955	0.01379
3894.59378	0.01491
3893.30801	0.01589
3892.02224	0.01634
3890.73647	0.01637
3889.45070	0.01633
3888.16493	0.01640
3886.87916	0.01648
3885.59339	0.01649
3884.30763	0.01640
3883.02186	0.01619
3881.73609	0.01590
3880.45032	0.01555
3879.16455	0.01517
3877.87878	0.01487
3876.59301	0.01480
3875.30724	0.01507
3874.02148	0.01549
3872.73571	0.01561
3871.44994	0.01521
3870.16417	0.01460
3868.87840	0.01433
3867.59263	0.01455
3866.30686	0.01504
3865.02109	0.01557
3863.73532	0.01602
3862.44956	0.01620
3861.16379	0.01596
3859.87802	0.01539
3858.59225	0.01485
3857.30648	0.01463
3856.02071	0.01469
3854.73494	0.01487
3853.44917	0.01506
3852.16341	0.01516
3850.87764	0.01501
3849.59187	0.01468
3848.30610	0.01438
3847.02033	0.01412
3845.73456	0.01376
3844.44879	0.01334
3843.16302	0.01313
3841.87725	0.01336
3840.59149	0.01393
3839.30572	0.01457
3838.01995	0.01506
3836.73418	0.01531
3835.44841	0.01532
3834.16264	0.01520
3832.87687	0.01513
3831.59110	0.01515
3830.30534	0.01510
3829.01957	0.01484
3827.73380	0.01448
3826.44803	0.01419
3825.16226	0.01391
3823.87649	0.01334
3822.59072	0.01250
3821.30495	0.01193
3820.01918	0.01217
3818.73342	0.01310
3817.44765	0.01411
3816.16188	0.01469
3814.87611	0.01464
3813.59034	0.01410
3812.30457	0.01351
3811.01880	0.01335
3809.73303	0.01363
3808.44726	0.01405
3807.16150	0.01447
3805.87573	0.01482
3804.58996	0.01486
3803.30419	0.01444
3802.01842	0.01392
3800.73265	0.01389
3799.44688	0.01440
3798.16111	0.01494
3796.87535	0.01511
3795.58958	0.01488
3794.30381	0.01449
3793.01804	0.01420
3791.73227	0.01409
3790.44650	0.01409
3789.16073	0.01406
3787.87496	0.01388
3786.58919	0.01350
3785.30343	0.01312
3784.01766	0.01310
3782.73189	0.01365
3781.44612	0.01465
3780.16035	0.01570
3778.87458	0.01636
3777.58881	0.01633
3776.30304	0.01564
3775.01728	0.01464
3773.73151	0.01373
3772.44574	0.01307
3771.15997	0.01269
3769.87420	0.01265
3768.58843	0.01297
3767.30266	0.01353
3766.01689	0.01413
3764.73112	0.01457
3763.44536	0.01466
3762.15959	0.01439
3760.87382	0.01402
3759.58805	0.01392
3758.30228	0.01416
3757.01651	0.01463
3755.73074	0.01514
3754.44497	0.01548
3753.15921	0.01553
3751.87344	0.01523
3750.58767	0.01461
3749.30190	0.01382
3748.01613	0.01307
3746.73036	0.01250
3745.44459	0.01234
3744.15882	0.01278
3742.87305	0.01350
3741.58729	0.01390
3740.30152	0.01383
3739.01575	0.01362
3737.72998	0.01349
3736.44421	0.01355
3735.15844	0.01379
3733.87267	0.01406
3732.58690	0.01415
3731.30114	0.01413
3730.01537	0.01412
3728.72960	0.01415
3727.44383	0.01420
3726.15806	0.01433
3724.87229	0.01455
3723.58652	0.01483
3722.30075	0.01505
3721.01498	0.01509
3719.72922	0.01493
3718.44345	0.01463
3717.15768	0.01435
3715.87191	0.01414
3714.58614	0.01391
3713.30037	0.01355
3712.01460	0.01304
3710.72883	0.01251
3709.44307	0.01211
3708.15730	0.01193
3706.87153	0.01192
3705.58576	0.01194
3704.29999	0.01194
3703.01422	0.01199
3701.72845	0.01224
3700.44268	0.01265
3699.15691	0.01300
3697.87115	0.01311
3696.58538	0.01306
3695.29961	0.01299
3694.01384	0.01304
3692.72807	0.01333
3691.44230	0.01360
3690.15653	0.01343
3688.87076	0.01279
3687.58500	0.01202
3686.29923	0.01140
3685.01346	0.01111
3683.72769	0.01118
3682.44192	0.01151
3681.15615	0.01197
3679.87038	0.01247
3678.58461	0.01290
3677.29884	0.01323
3676.01308	0.01361
3674.72731	0.01420
3673.44154	0.01477
3672.15577	0.01492
3670.87000	0.01464
3669.58423	0.01432
3668.29846	0.01421
3667.01269	0.01424
3665.72693	0.01422
3664.44116	0.01407
3663.15539	0.01390
3661.86962	0.01398
3660.58385	0.01443
3659.29808	0.01497
3658.01231	0.01512
3656.72654	0.01466
3655.44077	0.01383
3654.15501	0.01306
3652.86924	0.01259
3651.58347	0.01248
3650.29770	0.01268
3649.01193	0.01307
3647.72616	0.01348
3646.44039	0.01382
3645.15462	0.01403
3643.86886	0.01414
3642.58309	0.01424
3641.29732	0.01446
3640.01155	0.01484
3638.72578	0.01522
3637.44001	0.01542
3636.15424	0.01538
3634.86847	0.01528
3633.58270	0.01534
3632.29694	0.01558
3631.01117	0.01575
3629.72540	0.01582
3628.43963	0.01600
3627.15386	0.01637
3625.86809	0.01671
3624.58232	0.01678
3623.29655	0.01656
3622.01079	0.01616
3620.72502	0.01575
3619.43925	0.01561
3618.15348	0.01592
3616.86771	0.01650
3615.58194	0.01700
3614.29617	0.01723
3613.01040	0.01739
3611.72463	0.01759
3610.43887	0.01770
3609.15310	0.01767
3607.86733	0.01776
3606.58156	0.01825
3605.29579	0.01898
3604.01002	0.01945
3602.72425	0.01943
3601.43848	0.01916
3600.15272	0.01897
3598.86695	0.01884
3597.58118	0.01846
3596.29541	0.01781
3595.00964	0.01726
3593.72387	0.01712
3592.43810	0.01735
3591.15233	0.01768
3589.86656	0.01784
3588.58080	0.01789
3587.29503	0.01808
3586.00926	0.01844
3584.72349	0.01884
3583.43772	0.01925
3582.15195	0.01972
3580.86618	0.02021
3579.58041	0.02063
3578.29464	0.02090
3577.00888	0.02100
3575.72311	0.02104
3574.43734	0.02113
3573.15157	0.02125
3571.86580	0.02132
3570.58003	0.02126
3569.29426	0.02118
3568.00849	0.02134
3566.72273	0.02188
3565.43696	0.02261
3564.15119	0.02312
3562.86542	0.02313
3561.57965	0.02278
3560.29388	0.02241
3559.00811	0.02226
3557.72234	0.02232
3556.43657	0.02243
3555.15081	0.02247
3553.86504	0.02251
3552.57927	0.02267
3551.29350	0.02298
3550.00773	0.02333
3548.72196	0.02352
3547.43619	0.02350
3546.15042	0.02343
3544.86466	0.02350
3543.57889	0.02371
3542.29312	0.02397
3541.00735	0.02420
3539.72158	0.02438
3538.43581	0.02448
3537.15004	0.02443
3535.86427	0.02428
3534.57850	0.02422
3533.29274	0.02444
3532.00697	0.02488
3530.72120	0.02534
3529.43543	0.02578
3528.14966	0.02622
3526.86389	0.02666
3525.57812	0.02697
3524.29235	0.02708
3523.00659	0.02706
3521.72082	0.02704
3520.43505	0.02708
3519.14928	0.02723
3517.86351	0.02741
3516.57774	0.02748
3515.29197	0.02732
3514.00620	0.02693
3512.72043	0.02646
3511.43467	0.02613
3510.14890	0.02615
3508.86313	0.02650
3507.57736	0.02695
3506.29159	0.02724
3505.00582	0.02734
3503.72005	0.02750
3502.43428	0.02784
3501.14852	0.02818
3499.86275	0.02819
3498.57698	0.02780
3497.29121	0.02737
3496.00544	0.02736
3494.71967	0.02784
3493.43390	0.02842
3492.14813	0.02866
3490.86236	0.02855
3489.57660	0.02844
3488.29083	0.02861
3487.00506	0.02894
3485.71929	0.02913
3484.43352	0.02920
3483.14775	0.02946
3481.86198	0.03015
3480.57621	0.03108
3479.29045	0.03181
3478.00468	0.03210
3476.71891	0.03207
3475.43314	0.03190
3474.14737	0.03165
3472.86160	0.03130
3471.57583	0.03094
3470.29006	0.03073
3469.00429	0.03077
3467.71853	0.03106
3466.43276	0.03156
3465.14699	0.03214
3463.86122	0.03256
3462.57545	0.03271
3461.28968	0.03267
3460.00391	0.03264
3458.71814	0.03264
3457.43238	0.03241
3456.14661	0.03184
3454.86084	0.03124
3453.57507	0.03108
3452.28930	0.03155
3451.00353	0.03232
3449.71776	0.03285
3448.43199	0.03292
3447.14622	0.03268
3445.86046	0.03250
3444.57469	0.03256
3443.28892	0.03287
3442.00315	0.03326
3440.71738	0.03359
3439.43161	0.03374
3438.14584	0.03367
3436.86007	0.03346
3435.57431	0.03329
3434.28854	0.03329
3433.00277	0.03346
3431.71700	0.03366
3430.43123	0.03376
3429.14546	0.03385
3427.85969	0.03406
3426.57392	0.03442
3425.28815	0.03476
3424.00239	0.03496
3422.71662	0.03507
3421.43085	0.03525
3420.14508	0.03559
3418.85931	0.03593
3417.57354	0.03596
3416.28777	0.03558
3415.00200	0.03504
3413.71624	0.03473
3412.43047	0.03485
3411.14470	0.03528
3409.85893	0.03578
3408.57316	0.03613
3407.28739	0.03622
3406.00162	0.03609
3404.71585	0.03591
3403.43008	0.03589
3402.14432	0.03607
3400.85855	0.03628
3399.57278	0.03636
3398.28701	0.03633
3397.00124	0.03634
3395.71547	0.03649
3394.42970	0.03679
3393.14393	0.03718
3391.85817	0.03760
3390.57240	0.03797
3389.28663	0.03826
3388.00086	0.03847
3386.71509	0.03859
3385.42932	0.03858
3384.14355	0.03846
3382.85778	0.03832
3381.57201	0.03822
3380.28625	0.03809
3379.00048	0.03789
3377.71471	0.03766
3376.42894	0.03747
3375.14317	0.03732
3373.85740	0.03723
3372.57163	0.03733
3371.28586	0.03769
3370.00010	0.03830
3368.71433	0.03901
3367.42856	0.03965
3366.14279	0.04008
3364.85702	0.04027
3363.57125	0.04028
3362.28548	0.04033
3360.99971	0.04054
3359.71394	0.04088
3358.42818	0.04119
3357.14241	0.04137
3355.85664	0.04140
3354.57087	0.04129
3353.28510	0.04102
3351.99933	0.04070
3350.71356	0.04056
3349.42779	0.04079
3348.14202	0.04130
3346.85626	0.04182
3345.57049	0.04220
3344.28472	0.04245
3342.99895	0.04260
3341.71318	0.04267
3340.42741	0.04274
3339.14164	0.04287
3337.85587	0.04309
3336.57011	0.04326
3335.28434	0.04321
3333.99857	0.04291
3332.71280	0.04248
3331.42703	0.04213
3330.14126	0.04204
3328.85549	0.04224
3327.56972	0.04266
3326.28395	0.04316
3324.99819	0.04358
3323.71242	0.04385
3322.42665	0.04404
3321.14088	0.04427
3319.85511	0.04458
3318.56934	0.04488
3317.28357	0.04506
3315.99780	0.04506
3314.71204	0.04500
3313.42627	0.04503
3312.14050	0.04522
3310.85473	0.04548
3309.56896	0.04566
3308.28319	0.04569
3306.99742	0.04567
3305.71165	0.04568
3304.42588	0.04570
3303.14012	0.04565
3301.85435	0.04550
3300.56858	0.04531
3299.28281	0.04515
3297.99704	0.04509
3296.71127	0.04525
3295.42550	0.04564
3294.13973	0.04612
3292.85397	0.04639
3291.56820	0.04627
3290.28243	0.04583
3288.99666	0.04537
3287.71089	0.04517
3286.42512	0.04532
3285.13935	0.04564
3283.85358	0.04588
3282.56781	0.04601
3281.28205	0.04616
3279.99628	0.04641
3278.71051	0.04659
3277.42474	0.04643
3276.13897	0.04588
3274.85320	0.04517
3273.56743	0.04468
3272.28166	0.04463
3270.99590	0.04497
3269.71013	0.04542
3268.42436	0.04568
3267.13859	0.04558
3265.85282	0.04522
3264.56705	0.04487
3263.28128	0.04472
3261.99551	0.04480
3260.70974	0.04501
3259.42398	0.04523
3258.13821	0.04537
3256.85244	0.04535
3255.56667	0.04512
3254.28090	0.04479
3252.99513	0.04451
3251.70936	0.04433
3250.42359	0.04413
3249.13783	0.04390
3247.85206	0.04376
3246.56629	0.04385
3245.28052	0.04404
3243.99475	0.04400
3242.70898	0.04358
3241.42321	0.04297
3240.13744	0.04254
3238.85167	0.04250
3237.56591	0.04278
3236.28014	0.04312
3234.99437	0.04334
3233.70860	0.04340
3232.42283	0.04340
3231.13706	0.04343
3229.85129	0.04355
3228.56552	0.04367
3227.27976	0.04365
3225.99399	0.04344
3224.70822	0.04315
3223.42245	0.04297
3222.13668	0.04292
3220.85091	0.04285
3219.56514	0.04259
3218.27937	0.04220
3216.99360	0.04178
3215.70784	0.04143
3214.42207	0.04115
3213.13630	0.04095
3211.85053	0.04086
3210.56476	0.04087
3209.27899	0.04089
3207.99322	0.04089
3206.70745	0.04093
3205.42169	0.04112
3204.13592	0.04142
3202.85015	0.04162
3201.56438	0.04160
3200.27861	0.04146
3198.99284	0.04137
3197.70707	0.04139
3196.42130	0.04137
3195.13553	0.04121
3193.84977	0.04091
3192.56400	0.04055
3191.27823	0.04024
3189.99246	0.04005
3188.70669	0.04008
3187.42092	0.04030
3186.13515	0.04051
3184.84938	0.04047
3183.56362	0.04010
3182.27785	0.03957
3180.99208	0.03913
3179.70631	0.03890
3178.42054	0.03883
3177.13477	0.03882
3175.84900	0.03883
3174.56323	0.03892
3173.27746	0.03914
3171.99170	0.03942
3170.70593	0.03957
3169.42016	0.03938
3168.13439	0.03885
3166.84862	0.03819
3165.56285	0.03760
3164.27708	0.03718
3162.99131	0.03693
3161.70555	0.03685
3160.41978	0.03690
3159.13401	0.03698
3157.84824	0.03700
3156.56247	0.03700
3155.27670	0.03706
3153.99093	0.03722
3152.70516	0.03740
3151.41939	0.03750
3150.13363	0.03744
3148.84786	0.03726
3147.56209	0.03709
3146.27632	0.03695
3144.99055	0.03675
3143.70478	0.03646
3142.41901	0.03616
3141.13324	0.03593
3139.84748	0.03581
3138.56171	0.03575
3137.27594	0.03573
3135.99017	0.03567
3134.70440	0.03548
3133.41863	0.03513
3132.13286	0.03475
3130.84709	0.03450
3129.56132	0.03442
3128.27556	0.03439
3126.98979	0.03429
3125.70402	0.03412
3124.41825	0.03398
3123.13248	0.03395
3121.84671	0.03411
3120.56094	0.03444
3119.27517	0.03483
3117.98940	0.03512
3116.70364	0.03525
3115.41787	0.03522
3114.13210	0.03510
3112.84633	0.03490
3111.56056	0.03468
3110.27479	0.03452
3108.98902	0.03447
3107.70325	0.03453
3106.41749	0.03463
3105.13172	0.03472
3103.84595	0.03479
3102.56018	0.03491
3101.27441	0.03510
3099.98864	0.03530
3098.70287	0.03534
3097.41710	0.03515
3096.13133	0.03482
3094.84557	0.03459
3093.55980	0.03461
3092.27403	0.03482
3090.98826	0.03504
3089.70249	0.03519
3088.41672	0.03529
3087.13095	0.03539
3085.84518	0.03546
3084.55942	0.03545
3083.27365	0.03530
3081.98788	0.03505
3080.70211	0.03476
3079.41634	0.03454
3078.13057	0.03448
3076.84480	0.03461
3075.55903	0.03484
3074.27326	0.03504
3072.98750	0.03511
3071.70173	0.03505
3070.41596	0.03495
3069.13019	0.03491
3067.84442	0.03500
3066.55865	0.03517
3065.27288	0.03533
3063.98711	0.03546
3062.70135	0.03550
3061.41558	0.03540
3060.12981	0.03517
3058.84404	0.03495
3057.55827	0.03485
3056.27250	0.03484
3054.98673	0.03473
3053.70096	0.03450
3052.41519	0.03428
3051.12943	0.03425
3049.84366	0.03441
3048.55789	0.03462
3047.27212	0.03476
3045.98635	0.03474
3044.70058	0.03451
3043.41481	0.03406
3042.12904	0.03341
3040.84328	0.03265
3039.55751	0.03197
3038.27174	0.03157
3036.98597	0.03155
3035.70020	0.03183
3034.41443	0.03215
3033.12866	0.03227
3031.84289	0.03214
3030.55712	0.03189
3029.27136	0.03167
3027.98559	0.03149
3026.69982	0.03130
3025.41405	0.03112
3024.12828	0.03105
3022.84251	0.03119
3021.55674	0.03144
3020.27097	0.03157
3018.98521	0.03151
3017.69944	0.03136
3016.41367	0.03126
3015.12790	0.03120
3013.84213	0.03113
3012.55636	0.03106
3011.27059	0.03103
3009.98482	0.03094
3008.69905	0.03070
3007.41329	0.03041
3006.12752	0.03025
3004.84175	0.03031
3003.55598	0.03047
3002.27021	0.03060
3000.98444	0.03069
2999.69867	0.03085
2998.41290	0.03105
2997.12714	0.03121
2995.84137	0.03132
2994.55560	0.03146
2993.26983	0.03162
2991.98406	0.03173
2990.69829	0.03174
2989.41252	0.03174
2988.12675	0.03177
2986.84098	0.03186
2985.55522	0.03198
2984.26945	0.03212
2982.98368	0.03228
2981.69791	0.03241
2980.41214	0.03247
2979.12637	0.03245
2977.84060	0.03243
2976.55483	0.03244
2975.26907	0.03248
2973.98330	0.03254
2972.69753	0.03259
2971.41176	0.03269
2970.12599	0.03292
2968.84022	0.03333
2967.55445	0.03387
2966.26868	0.03445
2964.98291	0.03491
2963.69715	0.03517
2962.41138	0.03515
2961.12561	0.03488
2959.83984	0.03454
2958.55407	0.03433
2957.26830	0.03428
2955.98253	0.03425
2954.69676	0.03407
2953.41100	0.03379
2952.12523	0.03357
2950.83946	0.03347
2949.55369	0.03338
2948.26792	0.03323
2946.98215	0.03316
2945.69638	0.03337
2944.41061	0.03379
2943.12484	0.03420
2941.83908	0.03442
2940.55331	0.03450
2939.26754	0.03453
2937.98177	0.03454
2936.69600	0.03453
2935.41023	0.03457
2934.12446	0.03469
2932.83869	0.03487
2931.55293	0.03500
2930.26716	0.03499
2928.98139	0.03482
2927.69562	0.03455
2926.40985	0.03430
2925.12408	0.03415
2923.83831	0.03411
2922.55254	0.03413
2921.26677	0.03413
2919.98101	0.03411
2918.69524	0.03408
2917.40947	0.03403
2916.12370	0.03390
2914.83793	0.03363
2913.55216	0.03324
2912.26639	0.03289
2910.98062	0.03268
2909.69486	0.03260
2908.40909	0.03254
2907.12332	0.03243
2905.83755	0.03228
2904.55178	0.03206
2903.26601	0.03174
2901.98024	0.03133
2900.69447	0.03094
2899.40870	0.03067
2898.12294	0.03052
2896.83717	0.03048
2895.55140	0.03053
2894.26563	0.03063
2892.97986	0.03071
2891.69409	0.03077
2890.40832	0.03084
2889.12255	0.03093
2887.83678	0.03094
2886.55102	0.03082
2885.26525	0.03063
2883.97948	0.03050
2882.69371	0.03050
2881.40794	0.03056
2880.12217	0.03055
2878.83640	0.03041
2877.55063	0.03025
2876.26487	0.03027
2874.97910	0.03053
2873.69333	0.03091
2872.40756	0.03118
2871.12179	0.03121
2869.83602	0.03097
2868.55025	0.03056
2867.26448	0.03011
2865.97871	0.02971
2864.69295	0.02939
2863.40718	0.02915
2862.12141	0.02906
2860.83564	0.02916
2859.54987	0.02941
2858.26410	0.02963
2856.97833	0.02962
2855.69256	0.02933
2854.40680	0.02896
2853.12103	0.02871
2851.83526	0.02867
2850.54949	0.02874
2849.26372	0.02877
2847.97795	0.02871
2846.69218	0.02860
2845.40641	0.02857
2844.12064	0.02865
2842.83488	0.02876
2841.54911	0.02875
2840.26334	0.02853
2838.97757	0.02818
2837.69180	0.02782
2836.40603	0.02753
2835.12026	0.02729
2833.83449	0.02706
2832.54873	0.02687
2831.26296	0.02676
2829.97719	0.02671
2828.69142	0.02665
2827.40565	0.02658
2826.11988	0.02657
2824.83411	0.02665
2823.54834	0.02669
2822.26257	0.02657
2820.97681	0.02631
2819.69104	0.02612
2818.40527	0.02606
2817.11950	0.02606
2815.83373	0.02598
2814.54796	0.02581
2813.26219	0.02565
2811.97642	0.02556
2810.69066	0.02554
2809.40489	0.02557
2808.11912	0.02569
2806.83335	0.02587
2805.54758	0.02597
2804.26181	0.02586
2802.97604	0.02555
2801.69027	0.02518
2800.40450	0.02486
2799.11874	0.02471
2797.83297	0.02478
2796.54720	0.02496
2795.26143	0.02507
2793.97566	0.02500
2792.68989	0.02487
2791.40412	0.02484
2790.11835	0.02497
2788.83259	0.02517
2787.54682	0.02534
2786.26105	0.02545
2784.97528	0.02552
2783.68951	0.02555
2782.40374	0.02551
2781.11797	0.02534
2779.83220	0.02501
2778.54643	0.02460
2777.26067	0.02425
2775.97490	0.02410
2774.68913	0.02419
2773.40336	0.02437
2772.11759	0.02450
2770.83182	0.02447
2769.54605	0.02436
2768.26028	0.02424
2766.97452	0.02418
2765.68875	0.02414
2764.40298	0.02410
2763.11721	0.02401
2761.83144	0.02384
2760.54567	0.02361
2759.25990	0.02340
2757.97413	0.02328
2756.68836	0.02325
2755.40260	0.02324
2754.11683	0.02319
2752.83106	0.02307
2751.54529	0.02290
2750.25952	0.02276
2748.97375	0.02274
2747.68798	0.02289
2746.40221	0.02314
2745.11645	0.02332
2743.83068	0.02327
2742.54491	0.02298
2741.25914	0.02263
2739.97337	0.02244
2738.68760	0.02246
2737.40183	0.02258
2736.11606	0.02265
2734.83029	0.02263
2733.54453	0.02260
2732.25876	0.02258
2730.97299	0.02254
2729.68722	0.02245
2728.40145	0.02238
2727.11568	0.02241
2725.82991	0.02254
2724.54414	0.02271
2723.25838	0.02282
2721.97261	0.02282
2720.68684	0.02274
2719.40107	0.02257
2718.11530	0.02234
2716.82953	0.02208
2715.54376	0.02186
2714.25799	0.02170
2712.97222	0.02160
2711.68646	0.02155
2710.40069	0.02156
2709.11492	0.02164
2707.82915	0.02175
2706.54338	0.02183
2705.25761	0.02180
2703.97184	0.02171
2702.68607	0.02167
2701.40031	0.02177
2700.11454	0.02197
2698.82877	0.02210
2697.54300	0.02207
2696.25723	0.02193
2694.97146	0.02181
2693.68569	0.02175
2692.39992	0.02166
2691.11415	0.02142
2689.82839	0.02113
2688.54262	0.02092
2687.25685	0.02086
2685.97108	0.02086
2684.68531	0.02083
2683.39954	0.02079
2682.11377	0.02076
2680.82800	0.02074
2679.54224	0.02072
2678.25647	0.02072
2676.97070	0.02072
2675.68493	0.02064
2674.39916	0.02046
2673.11339	0.02029
2671.82762	0.02024
2670.54185	0.02033
2669.25608	0.02047
2667.97032	0.02059
2666.68455	0.02066
2665.39878	0.02071
2664.11301	0.02069
2662.82724	0.02061
2661.54147	0.02054
2660.25570	0.02053
2658.96993	0.02056
2657.68417	0.02055
2656.39840	0.02049
2655.11263	0.02044
2653.82686	0.02046
2652.54109	0.02048
2651.25532	0.02044
2649.96955	0.02030
2648.68378	0.02012
2647.39801	0.01998
2646.11225	0.01989
2644.82648	0.01985
2643.54071	0.01983
2642.25494	0.01987
2640.96917	0.01999
2639.68340	0.02014
2638.39763	0.02021
2637.11186	0.02007
2635.82609	0.01977
2634.54033	0.01941
2633.25456	0.01911
2631.96879	0.01891
2630.68302	0.01884
2629.39725	0.01889
2628.11148	0.01899
2626.82571	0.01902
2625.53994	0.01892
2624.25418	0.01871
2622.96841	0.01843
2621.68264	0.01821
2620.39687	0.01822
2619.11110	0.01849
2617.82533	0.01884
2616.53956	0.01904
2615.25379	0.01898
2613.96802	0.01874
2612.68226	0.01839
2611.39649	0.01803
2610.11072	0.01779
2608.82495	0.01777
2607.53918	0.01791
2606.25341	0.01805
2604.96764	0.01807
2603.68187	0.01795
2602.39611	0.01771
2601.11034	0.01736
2599.82457	0.01704
2598.53880	0.01691
2597.25303	0.01703
2595.96726	0.01718
2594.68149	0.01712
2593.39572	0.01676
2592.10995	0.01628
2590.82419	0.01595
2589.53842	0.01598
2588.25265	0.01633
2586.96688	0.01673
2585.68111	0.01695
2584.39534	0.01696
2583.10957	0.01680
2581.82380	0.01651
2580.53804	0.01610
2579.25227	0.01570
2577.96650	0.01558
2576.68073	0.01585
2575.39496	0.01636
2574.10919	0.01678
2572.82342	0.01689
2571.53765	0.01675
2570.25188	0.01657
2568.96612	0.01647
2567.68035	0.01640
2566.39458	0.01624
2565.10881	0.01590
2563.82304	0.01545
2562.53727	0.01504
2561.25150	0.01482
2559.96573	0.01473
2558.67997	0.01465
2557.39420	0.01458
2556.10843	0.01462
2554.82266	0.01483
2553.53689	0.01511
2552.25112	0.01538
2550.96535	0.01563
2549.67958	0.01592
2548.39381	0.01620
2547.10805	0.01634
2545.82228	0.01628
2544.53651	0.01613
2543.25074	0.01607
2541.96497	0.01620
2540.67920	0.01643
2539.39343	0.01665
2538.10766	0.01673
2536.82190	0.01658
2535.53613	0.01623
2534.25036	0.01578
2532.96459	0.01538
2531.67882	0.01504
2530.39305	0.01468
2529.10728	0.01428
2527.82151	0.01402
2526.53574	0.01416
2525.24998	0.01479
2523.96421	0.01563
2522.67844	0.01618
2521.39267	0.01619
2520.10690	0.01574
2518.82113	0.01516
2517.53536	0.01471
2516.24959	0.01457
2514.96383	0.01469
2513.67806	0.01491
2512.39229	0.01506
2511.10652	0.01511
2509.82075	0.01518
2508.53498	0.01533
2507.24921	0.01555
2505.96344	0.01569
2504.67767	0.01562
2503.39191	0.01539
2502.10614	0.01517
2500.82037	0.01512
2499.53460	0.01521
2498.24883	0.01524
2496.96306	0.01510
2495.67729	0.01484
2494.39152	0.01463
2493.10576	0.01462
2491.81999	0.01483
2490.53422	0.01511
2489.24845	0.01527
2487.96268	0.01517
2486.67691	0.01480
2485.39114	0.01432
2484.10537	0.01390
2482.81960	0.01364
2481.53384	0.01360
2480.24807	0.01384
2478.96230	0.01429
2477.67653	0.01472
2476.39076	0.01495
2475.10499	0.01503
2473.81922	0.01518
2472.53345	0.01542
2471.24769	0.01561
2469.96192	0.01555
2468.67615	0.01519
2467.39038	0.01467
2466.10461	0.01423
2464.81884	0.01406
2463.53307	0.01420
2462.24730	0.01450
2460.96153	0.01476
2459.67577	0.01492
2458.39000	0.01500
2457.10423	0.01502
2455.81846	0.01494
2454.53269	0.01472
2453.24692	0.01445
2451.96115	0.01431
2450.67538	0.01442
2449.38962	0.01467
2448.10385	0.01487
2446.81808	0.01486
2445.53231	0.01464
2444.24654	0.01427
2442.96077	0.01391
2441.67500	0.01369
2440.38923	0.01364
2439.10346	0.01369
2437.81770	0.01380
2436.53193	0.01396
2435.24616	0.01410
2433.96039	0.01413
2432.67462	0.01406
2431.38885	0.01407
2430.10308	0.01426
2428.81731	0.01450
2427.53155	0.01459
2426.24578	0.01447
2424.96001	0.01427
2423.67424	0.01407
2422.38847	0.01385
2421.10270	0.01360
2419.81693	0.01346
2418.53116	0.01354
2417.24539	0.01378
2415.95963	0.01405
2414.67386	0.01433
2413.38809	0.01465
2412.10232	0.01496
2410.81655	0.01507
2409.53078	0.01484
2408.24501	0.01435
2406.95924	0.01387
2405.67347	0.01363
2404.38771	0.01362
2403.10194	0.01367
2401.81617	0.01368
2400.53040	0.01370
2399.24463	0.01375
2397.95886	0.01385
2396.67309	0.01390
2395.38732	0.01384
2394.10156	0.01372
2392.81579	0.01364
2391.53002	0.01368
2390.24425	0.01385
2388.95848	0.01402
2387.67271	0.01405
2386.38694	0.01390
2385.10117	0.01370
2383.81540	0.01367
2382.52964	0.01389
2381.24387	0.01422
2379.95810	0.01443
2378.67233	0.01437
2377.38656	0.01413
2376.10079	0.01387
2374.81502	0.01366
2373.52925	0.01358
2372.24349	0.01356
2370.95772	0.01365
2369.67195	0.01370
2368.38618	0.01380
2367.10041	0.01404
2365.81464	0.01445
2364.52887	0.01467
2363.24310	0.01473
2361.95733	0.01484
2360.67157	0.01521
2359.38580	0.01539
2358.10003	0.01530
2356.81426	0.01510
2355.52849	0.01497
2354.24272	0.01501
2352.95695	0.01511
2351.67118	0.01533
2350.38542	0.01545
2349.09965	0.01511
2347.81388	0.01451
2346.52811	0.01448
2345.24234	0.01488
2343.95657	0.01479
2342.67080	0.01416
2341.38503	0.01431
2340.09926	0.01528
2338.81350	0.01519
2337.52773	0.01405
2336.24196	0.01427
2334.95619	0.01546
2333.67042	0.01513
2332.38465	0.01385
2331.09888	0.01439
2329.81311	0.01514
2328.52735	0.01427
2327.24158	0.01476
2325.95581	0.01603
2324.67004	0.01570
2323.38427	0.01560
2322.09850	0.01617
2320.81273	0.01547
2319.52696	0.01527
2318.24119	0.01560
2316.95543	0.01523
2315.66966	0.01528
2314.38389	0.01543
2313.09812	0.01503
2311.81235	0.01484
2310.52658	0.01442
2309.24081	0.01392
2307.95504	0.01367
2306.66928	0.01337
2305.38351	0.01337
2304.09774	0.01348
2302.81197	0.01355
2301.52620	0.01368
2300.24043	0.01379
2298.95466	0.01399
2297.66889	0.01418
2296.38312	0.01427
2295.09736	0.01424
2293.81159	0.01408
2292.52582	0.01387
2291.24005	0.01357
2289.95428	0.01322
2288.66851	0.01298
2287.38274	0.01304
2286.09697	0.01340
2284.81121	0.01383
2283.52544	0.01401
2282.23967	0.01385
2280.95390	0.01353
2279.66813	0.01322
2278.38236	0.01299
2277.09659	0.01278
2275.81082	0.01252
2274.52505	0.01224
2273.23929	0.01210
2271.95352	0.01230
2270.66775	0.01283
2269.38198	0.01335
2268.09621	0.01354
2266.81044	0.01336
2265.52467	0.01300
2264.23890	0.01256
2262.95314	0.01212
2261.66737	0.01173
2260.38160	0.01140
2259.09583	0.01113
2257.81006	0.01095
2256.52429	0.01080
2255.23852	0.01055
2253.95275	0.01013
2252.66698	0.00967
2251.38122	0.00935
2250.09545	0.00935
2248.80968	0.00961
2247.52391	0.00979
2246.23814	0.01001
2244.95237	0.01019
2243.66660	0.01018
2242.38083	0.01005
2241.09507	0.01010
2239.80930	0.01046
2238.52353	0.01093
2237.23776	0.01115
2235.95199	0.01102
2234.66622	0.01075
2233.38045	0.01054
2232.09468	0.01047
2230.80891	0.01042
2229.52315	0.01025
2228.23738	0.00990
2226.95161	0.00950
2225.66584	0.00932
2224.38007	0.00959
2223.09430	0.01022
2221.80853	0.01080
2220.52276	0.01093
2219.23700	0.01054
2217.95123	0.00981
2216.66546	0.00901
2215.37969	0.00838
2214.09392	0.00812
2212.80815	0.00818
2211.52238	0.00820
2210.23661	0.00799
2208.95084	0.00780
2207.66508	0.00795
2206.37931	0.00826
2205.09354	0.00823
2203.80777	0.00769
2202.52200	0.00696
2201.23623	0.00646
2199.95046	0.00617
2198.66469	0.00582
2197.37893	0.00545
2196.09316	0.00558
2194.80739	0.00664
2193.52162	0.00838
2192.23585	0.01002
2190.95008	0.01082
2189.66431	0.01059
2188.37854	0.00969
2187.09277	0.00875
2185.80701	0.00827
2184.52124	0.00823
2183.23547	0.00828
2181.94970	0.00817
2180.66393	0.00785
2179.37816	0.00724
2178.09239	0.00634
2176.80662	0.00540
2175.52085	0.00487
2174.23509	0.00501
2172.94932	0.00567
2171.66355	0.00650
2170.37778	0.00723
2169.09201	0.00772
2167.80624	0.00789
2166.52047	0.00755
2165.23470	0.00651
2163.94894	0.00496
2162.66317	0.00342
2161.37740	0.00227
2160.09163	0.00140
2158.80586	0.00064
2157.52009	0.00033
2156.23432	0.00089
2154.94855	0.00216
2153.66278	0.00344
2152.37702	0.00432
2151.09125	0.00506
2149.80548	0.00601
2148.51971	0.00686
2147.23394	0.00686
2145.94817	0.00583
2144.66240	0.00445
2143.37663	0.00368
2142.09087	0.00388
2140.80510	0.00478
2139.51933	0.00577
2138.23356	0.00642
2136.94779	0.00661
2135.66202	0.00652
2134.37625	0.00641
2133.09048	0.00644
2131.80471	0.00659
2130.51895	0.00677
2129.23318	0.00695
2127.94741	0.00718
2126.66164	0.00758
2125.37587	0.00812
2124.09010	0.00860
2122.80433	0.00878
2121.51856	0.00859
2120.23280	0.00823
2118.94703	0.00798
2117.66126	0.00799
2116.37549	0.00823
2115.08972	0.00860
2113.80395	0.00897
2112.51818	0.00914
2111.23241	0.00893
2109.94664	0.00837
2108.66088	0.00776
2107.37511	0.00745
2106.08934	0.00754
2104.80357	0.00782
2103.51780	0.00806
2102.23203	0.00821
2100.94626	0.00831
2099.66049	0.00837
2098.37473	0.00807
2097.08896	0.00755
2095.80319	0.00724
2094.51742	0.00734
2093.23165	0.00769
2091.94588	0.00793
2090.66011	0.00790
2089.37434	0.00763
2088.08857	0.00728
2086.80281	0.00691
2085.51704	0.00655
2084.23127	0.00627
2082.94550	0.00617
2081.65973	0.00632
2080.37396	0.00668
2079.08819	0.00710
2077.80242	0.00742
2076.51666	0.00752
2075.23089	0.00741
2073.94512	0.00725
2072.65935	0.00724
2071.37358	0.00752
2070.08781	0.00806
2068.80204	0.00854
2067.51627	0.00858
2066.23050	0.00793
2064.94474	0.00678
2063.65897	0.00559
2062.37320	0.00476
2061.08743	0.00441
2059.80166	0.00444
2058.51589	0.00458
2057.23012	0.00458
2055.94435	0.00440
2054.65859	0.00438
2053.37282	0.00496
2052.08705	0.00618
2050.80128	0.00737
2049.51551	0.00768
2048.22974	0.00690
2046.94397	0.00573
2045.65820	0.00514
2044.37243	0.00546
2043.08667	0.00616
2041.80090	0.00644
2040.51513	0.00603
2039.22936	0.00525
2037.94359	0.00464
2036.65782	0.00444
2035.37205	0.00461
2034.08628	0.00500
2032.80052	0.00542
2031.51475	0.00551
2030.22898	0.00493
2028.94321	0.00375
2027.65744	0.00248
2026.37167	0.00161
2025.08590	0.00116
2023.80013	0.00095
2022.51436	0.00103
2021.22860	0.00161
2019.94283	0.00263
2018.65706	0.00354
2017.37129	0.00382
2016.08552	0.00346
2014.79975	0.00310
2013.51398	0.00345
2012.22821	0.00473
2010.94245	0.00632
2009.65668	0.00721
2008.37091	0.00679
2007.08514	0.00536
2005.79937	0.00384
2004.51360	0.00295
2003.22783	0.00287
2001.94206	0.00338
2000.65629	0.00420
1999.37053	0.00508
1998.08476	0.00587
1996.79899	0.00649
1995.51322	0.00695
1994.22745	0.00728
1992.94168	0.00747
1991.65591	0.00748
1990.37014	0.00729
1989.08438	0.00708
1987.79861	0.00712
1986.51284	0.00751
1985.22707	0.00798
1983.94130	0.00817
1982.65553	0.00798
1981.36976	0.00758
1980.08399	0.00714
1978.79822	0.00666
1977.51246	0.00600
1976.22669	0.00515
1974.94092	0.00429
1973.65515	0.00370
1972.36938	0.00360
1971.08361	0.00404
1969.79784	0.00487
1968.51207	0.00573
1967.22631	0.00620
1965.94054	0.00612
1964.65477	0.00578
1963.36900	0.00567
1962.08323	0.00596
1960.79746	0.00640
1959.51169	0.00660
1958.22592	0.00648
1956.94015	0.00623
1955.65439	0.00614
1954.36862	0.00636
1953.08285	0.00686
1951.79708	0.00739
1950.51131	0.00762
1949.22554	0.00732
1947.93977	0.00654
1946.65400	0.00558
1945.36823	0.00483
1944.08247	0.00456
1942.79670	0.00488
1941.51093	0.00561
1940.22516	0.00640
1938.93939	0.00691
1937.65362	0.00704
1936.36785	0.00686
1935.08208	0.00655
1933.79632	0.00634
1932.51055	0.00641
1931.22478	0.00676
1929.93901	0.00713
1928.65324	0.00729
1927.36747	0.00727
1926.08170	0.00729
1924.79593	0.00743
1923.51016	0.00750
1922.22440	0.00728
1920.93863	0.00676
1919.65286	0.00622
1918.36709	0.00601
1917.08132	0.00619
1915.79555	0.00658
1914.50978	0.00701
1913.22401	0.00743
1911.93825	0.00782
1910.65248	0.00808
1909.36671	0.00812
1908.08094	0.00800
1906.79517	0.00782
1905.50940	0.00765
1904.22363	0.00753
1902.93786	0.00750
1901.65209	0.00755
1900.36633	0.00758
1899.08056	0.00748
1897.79479	0.00725
1896.50902	0.00700
1895.22325	0.00679
1893.93748	0.00661
1892.65171	0.00646
1891.36594	0.00642
1890.08018	0.00660
1888.79441	0.00697
1887.50864	0.00734
1886.22287	0.00757
1884.93710	0.00765
1883.65133	0.00768
1882.36556	0.00774
1881.07979	0.00779
1879.79402	0.00782
1878.50826	0.00782
1877.22249	0.00781
1875.93672	0.00779
1874.65095	0.00781
1873.36518	0.00786
1872.07941	0.00795
1870.79364	0.00800
1869.50787	0.00796
1868.22211	0.00787
1866.93634	0.00781
1865.65057	0.00787
1864.36480	0.00800
1863.07903	0.00809
1861.79326	0.00801
1860.50749	0.00778
1859.22172	0.00757
1857.93595	0.00752
1856.65019	0.00760
1855.36442	0.00768
1854.07865	0.00767
1852.79288	0.00760
1851.50711	0.00758
1850.22134	0.00764
1848.93557	0.00777
1847.64980	0.00794
1846.36404	0.00806
1845.07827	0.00811
1843.79250	0.00812
1842.50673	0.00810
1841.22096	0.00805
1839.93519	0.00796
1838.64942	0.00786
1837.36365	0.00778
1836.07788	0.00772
1834.79212	0.00772
1833.50635	0.00781
1832.22058	0.00801
1830.93481	0.00821
1829.64904	0.00832
1828.36327	0.00828
1827.07750	0.00812
1825.79173	0.00793
1824.50597	0.00779
1823.22020	0.00773
1821.93443	0.00773
1820.64866	0.00773
1819.36289	0.00767
1818.07712	0.00752
1816.79135	0.00737
1815.50558	0.00736
1814.21981	0.00754
1812.93405	0.00782
1811.64828	0.00808
1810.36251	0.00825
1809.07674	0.00833
1807.79097	0.00835
1806.50520	0.00835
1805.21943	0.00832
1803.93366	0.00823
1802.64790	0.00808
1801.36213	0.00794
1800.07636	0.00789
1798.79059	0.00798
1797.50482	0.00820
1796.21905	0.00846
1794.93328	0.00867
1793.64751	0.00871
1792.36174	0.00861
1791.07598	0.00846
1789.79021	0.00837
1788.50444	0.00834
1787.21867	0.00836
1785.93290	0.00839
1784.64713	0.00842
1783.36136	0.00846
1782.07559	0.00853
1780.78983	0.00860
1779.50406	0.00865
1778.21829	0.00862
1776.93252	0.00853
1775.64675	0.00841
1774.36098	0.00829
1773.07521	0.00824
1771.78944	0.00830
1770.50367	0.00838
1769.21791	0.00836
1767.93214	0.00828
1766.64637	0.00826
1765.36060	0.00832
1764.07483	0.00843
1762.78906	0.00853
1761.50329	0.00861
1760.21752	0.00868
1758.93176	0.00870
1757.64599	0.00868
1756.36022	0.00865
1755.07445	0.00860
1753.78868	0.00852
1752.50291	0.00841
1751.21714	0.00840
1749.93137	0.00853
1748.64560	0.00873
1747.35984	0.00891
1746.07407	0.00904
1744.78830	0.00911
1743.50253	0.00917
1742.21676	0.00925
1740.93099	0.00935
1739.64522	0.00948
1738.35945	0.00964
1737.07369	0.00973
1735.78792	0.00966
1734.50215	0.00953
1733.21638	0.00949
1731.93061	0.00953
1730.64484	0.00956
1729.35907	0.00958
1728.07330	0.00963
1726.78753	0.00974
1725.50177	0.00986
1724.21600	0.00996
1722.93023	0.01008
1721.64446	0.01027
1720.35869	0.01051
1719.07292	0.01074
1717.78715	0.01097
1716.50138	0.01126
1715.21561	0.01156
1713.92985	0.01179
1712.64408	0.01196
1711.35831	0.01211
1710.07254	0.01237
1708.78677	0.01279
1707.50100	0.01334
1706.21523	0.01397
1704.92946	0.01465
1703.64370	0.01534
1702.35793	0.01600
1701.07216	0.01670
1699.78639	0.01755
1698.50062	0.01847
1697.21485	0.01928
1695.92908	0.02002
1694.64331	0.02082
1693.35754	0.02168
1692.07178	0.02246
1690.78601	0.02320
1689.50024	0.02400
1688.21447	0.02486
1686.92870	0.02568
1685.64293	0.02644
1684.35716	0.02725
1683.07139	0.02815
1681.78563	0.02906
1680.49986	0.02994
1679.21409	0.03084
1677.92832	0.03177
1676.64255	0.03264
1675.35678	0.03347
1674.07101	0.03431
1672.78524	0.03515
1671.49947	0.03598
1670.21371	0.03682
1668.92794	0.03770
1667.64217	0.03861
1666.35640	0.03950
1665.07063	0.04034
1663.78486	0.04120
1662.49909	0.04210
1661.21332	0.04298
1659.92756	0.04377
1658.64179	0.04448
1657.35602	0.04518
1656.07025	0.04588
1654.78448	0.04650
1653.49871	0.04704
1652.21294	0.04757
1650.92717	0.04804
1649.64140	0.04835
1648.35564	0.04852
1647.06987	0.04866
1645.78410	0.04887
1644.49833	0.04911
1643.21256	0.04933
1641.92679	0.04951
1640.64102	0.04967
1639.35525	0.04981
1638.06949	0.04985
1636.78372	0.04976
1635.49795	0.04959
1634.21218	0.04939
1632.92641	0.04913
1631.64064	0.04878
1630.35487	0.04835
1629.06910	0.04790
1627.78333	0.04742
1626.49757	0.04688
1625.21180	0.04623
1623.92603	0.04548
1622.64026	0.04470
1621.35449	0.04393
1620.06872	0.04314
1618.78295	0.04226
1617.49718	0.04130
1616.21142	0.04032
1614.92565	0.03934
1613.63988	0.03835
1612.35411	0.03735
1611.06834	0.03641
1609.78257	0.03557
1608.49680	0.03482
1607.21103	0.03413
1605.92526	0.03347
1604.63950	0.03286
1603.35373	0.03230
1602.06796	0.03181
1600.78219	0.03138
1599.49642	0.03096
1598.21065	0.03052
1596.92488	0.03006
1595.63911	0.02965
1594.35335	0.02930
1593.06758	0.02903
1591.78181	0.02880
1590.49604	0.02863
1589.21027	0.02855
1587.92450	0.02857
1586.63873	0.02867
1585.35296	0.02875
1584.06719	0.02878
1582.78143	0.02878
1581.49566	0.02884
1580.20989	0.02900
1578.92412	0.02921
1577.63835	0.02941
1576.35258	0.02965
1575.06681	0.02998
1573.78104	0.03034
1572.49528	0.03065
1571.20951	0.03093
1569.92374	0.03127
1568.63797	0.03168
1567.35220	0.03213
1566.06643	0.03258
1564.78066	0.03308
1563.49489	0.03363
1562.20912	0.03417
1560.92336	0.03463
1559.63759	0.03508
1558.35182	0.03559
1557.06605	0.03613
1555.78028	0.03656
1554.49451	0.03690
1553.20874	0.03724
1551.92297	0.03758
1550.63721	0.03789
1549.35144	0.03819
1548.06567	0.03848
1546.77990	0.03877
1545.49413	0.03907
1544.20836	0.03938
1542.92259	0.03966
1541.63682	0.03984
1540.35105	0.03993
1539.06529	0.03998
1537.77952	0.04003
1536.49375	0.04001
1535.20798	0.03991
1533.92221	0.03978
1532.63644	0.03971
1531.35067	0.03964
1530.06490	0.03952
1528.77914	0.03936
1527.49337	0.03923
1526.20760	0.03915
1524.92183	0.03913
1523.63606	0.03911
1522.35029	0.03902
1521.06452	0.03888
1519.77875	0.03869
1518.49298	0.03839
1517.20722	0.03803
1515.92145	0.03766
1514.63568	0.03732
1513.34991	0.03697
1512.06414	0.03659
1510.77837	0.03618
1509.49260	0.03570
1508.20683	0.03513
1506.92107	0.03452
1505.63530	0.03396
1504.34953	0.03343
1503.06376	0.03286
1501.77799	0.03224
1500.49222	0.03164
1499.20645	0.03107
1497.92068	0.03049
1496.63491	0.02989
1495.34915	0.02930
1494.06338	0.02872
1492.77761	0.02812
1491.49184	0.02751
1490.20607	0.02695
1488.92030	0.02645
1487.63453	0.02600
1486.34876	0.02557
1485.06299	0.02518
1483.77723	0.02483
1482.49146	0.02458
1481.20569	0.02448
1479.91992	0.02453
1478.63415	0.02468
1477.34838	0.02484
1476.06261	0.02494
1474.77684	0.02500
1473.49108	0.02508
1472.20531	0.02525
1470.91954	0.02553
1469.63377	0.02584
1468.34800	0.02610
1467.06223	0.02630
1465.77646	0.02649
1464.49069	0.02673
1463.20492	0.02706
1461.91916	0.02743
1460.63339	0.02778
1459.34762	0.02803
1458.06185	0.02818
1456.77608	0.02835
1455.49031	0.02858
1454.20454	0.02881
1452.91877	0.02892
1451.63301	0.02890
1450.34724	0.02879
1449.06147	0.02865
1447.77570	0.02850
1446.48993	0.02837
1445.20416	0.02825
1443.91839	0.02813
1442.63262	0.02803
1441.34685	0.02797
1440.06109	0.02792
1438.77532	0.02782
1437.48955	0.02768
1436.20378	0.02757
1434.91801	0.02755
1433.63224	0.02754
1432.34647	0.02746
1431.06070	0.02732
1429.77494	0.02715
1428.48917	0.02704
1427.20340	0.02701
1425.91763	0.02704
1424.63186	0.02712
1423.34609	0.02720
1422.06032	0.02724
1420.77455	0.02720
1419.48878	0.02710
1418.20302	0.02700
1416.91725	0.02689
1415.63148	0.02677
1414.34571	0.02666
1413.05994	0.02662
1411.77417	0.02662
1410.48840	0.02663
1409.20263	0.02660
1407.91687	0.02647
1406.63110	0.02626
1405.34533	0.02606
1404.05956	0.02596
1402.77379	0.02599
1401.48802	0.02604
1400.20225	0.02605
1398.91648	0.02598
1397.63071	0.02584
1396.34495	0.02566
1395.05918	0.02548
1393.77341	0.02535
1392.48764	0.02524
1391.20187	0.02510
1389.91610	0.02490
1388.63033	0.02467
1387.34456	0.02443
1386.05880	0.02421
1384.77303	0.02402
1383.48726	0.02388
1382.20149	0.02380
1380.91572	0.02374
1379.62995	0.02363
1378.34418	0.02345
1377.05841	0.02320
1375.77264	0.02290
1374.48688	0.02257
1373.20111	0.02225
1371.91534	0.02199
1370.62957	0.02180
1369.34380	0.02165
1368.05803	0.02150
1366.77226	0.02132
1365.48649	0.02113
1364.20073	0.02091
1362.91496	0.02066
1361.62919	0.02040
1360.34342	0.02015
1359.05765	0.01994
1357.77188	0.01980
1356.48611	0.01973
1355.20034	0.01971
1353.91457	0.01973
1352.62881	0.01977
1351.34304	0.01986
1350.05727	0.01995
1348.77150	0.02003
1347.48573	0.02007
1346.19996	0.02011
1344.91419	0.02019
1343.62842	0.02032
1342.34266	0.02044
1341.05689	0.02049
1339.77112	0.02045
1338.48535	0.02038
1337.19958	0.02032
1335.91381	0.02027
1334.62804	0.02023
1333.34227	0.02020
1332.05650	0.02018
1330.77074	0.02017
1329.48497	0.02016
1328.19920	0.02014
1326.91343	0.02009
1325.62766	0.02002
1324.34189	0.01994
1323.05612	0.01985
1321.77035	0.01978
1320.48459	0.01973
1319.19882	0.01972
1317.91305	0.01974
1316.62728	0.01977
1315.34151	0.01978
1314.05574	0.01974
1312.76997	0.01967
1311.48420	0.01958
1310.19843	0.01948
1308.91267	0.01938
1307.62690	0.01928
1306.34113	0.01916
1305.05536	0.01905
1303.76959	0.01897
1302.48382	0.01895
1301.19805	0.01898
1299.91228	0.01901
1298.62652	0.01901
1297.34075	0.01898
1296.05498	0.01896
1294.76921	0.01895
1293.48344	0.01896
1292.19767	0.01898
1290.91190	0.01902
1289.62613	0.01910
1288.34036	0.01919
1287.05460	0.01929
1285.76883	0.01940
1284.48306	0.01950
1283.19729	0.01960
1281.91152	0.01969
1280.62575	0.01978
1279.33998	0.01985
1278.05421	0.01991
1276.76845	0.01995
1275.48268	0.01998
1274.19691	0.02001
1272.91114	0.02004
1271.62537	0.02007
1270.33960	0.02011
1269.05383	0.02019
1267.76806	0.02032
1266.48229	0.02047
1265.19653	0.02062
1263.91076	0.02076
1262.62499	0.02089
1261.33922	0.02100
1260.05345	0.02107
1258.76768	0.02113
1257.48191	0.02119
1256.19614	0.02129
1254.91037	0.02143
1253.62461	0.02161
1252.33884	0.02181
1251.05307	0.02202
1249.76730	0.02223
1248.48153	0.02245
1247.19576	0.02268
1245.90999	0.02290
1244.62422	0.02307
1243.33846	0.02318
1242.05269	0.02325
1240.76692	0.02330
1239.48115	0.02336
1238.19538	0.02345
1236.90961	0.02358
1235.62384	0.02369
1234.33807	0.02374
1233.05230	0.02369
1231.76654	0.02355
1230.48077	0.02337
1229.19500	0.02319
1227.90923	0.02303
1226.62346	0.02289
1225.33769	0.02275
1224.05192	0.02260
1222.76615	0.02239
1221.48039	0.02212
1220.19462	0.02180
1218.90885	0.02151
1217.62308	0.02130
1216.33731	0.02119
1215.05154	0.02110
1213.76577	0.02099
1212.48000	0.02085
1211.19423	0.02071
1209.90847	0.02063
1208.62270	0.02058
1207.33693	0.02055
1206.05116	0.02053
1204.76539	0.02052
1203.47962	0.02051
1202.19385	0.02050
1200.90808	0.02046
1199.62232	0.02035
1198.33655	0.02018
1197.05078	0.01996
1195.76501	0.01971
1194.47924	0.01950
1193.19347	0.01934
1191.90770	0.01923
1190.62193	0.01915
1189.33616	0.01911
1188.05040	0.01910
1186.76463	0.01906
1185.47886	0.01898
1184.19309	0.01888
1182.90732	0.01879
1181.62155	0.01875
1180.33578	0.01879
1179.05001	0.01891
1177.76425	0.01907
1176.47848	0.01918
1175.19271	0.01924
1173.90694	0.01930
1172.62117	0.01941
1171.33540	0.01959
1170.04963	0.01981
1168.76386	0.02002
1167.47809	0.02019
1166.19233	0.02033
1164.90656	0.02046
1163.62079	0.02060
1162.33502	0.02076
1161.04925	0.02093
1159.76348	0.02111
1158.47771	0.02127
1157.19194	0.02141
1155.90618	0.02155
1154.62041	0.02168
1153.33464	0.02183
1152.04887	0.02200
1150.76310	0.02218
1149.47733	0.02231
1148.19156	0.02237
1146.90579	0.02240
1145.62002	0.02245
1144.33426	0.02254
1143.04849	0.02267
1141.76272	0.02277
1140.47695	0.02279
1139.19118	0.02279
1137.90541	0.02285
1136.61964	0.02304
1135.33387	0.02338
1134.04811	0.02385
1132.76234	0.02444
1131.47657	0.02510
1130.19080	0.02579
1128.90503	0.02648
1127.61926	0.02720
1126.33349	0.02802
1125.04772	0.02901
1123.76195	0.03014
1122.47619	0.03140
1121.19042	0.03271
1119.90465	0.03402
1118.61888	0.03532
1117.33311	0.03660
1116.04734	0.03790
1114.76157	0.03921
1113.47580	0.04055
1112.19004	0.04190
1110.90427	0.04322
1109.61850	0.04446
1108.33273	0.04562
1107.04696	0.04674
1105.76119	0.04787
1104.47542	0.04900
1103.18965	0.05008
1101.90388	0.05107
1100.61812	0.05195
1099.33235	0.05269
1098.04658	0.05331
1096.76081	0.05378
1095.47504	0.05411
1094.18927	0.05427
1092.90350	0.05428
1091.61773	0.05416
1090.33197	0.05393
1089.04620	0.05364
1087.76043	0.05339
1086.47466	0.05330
1085.18889	0.05350
1083.90312	0.05399
1082.61735	0.05475
1081.33158	0.05569
1080.04581	0.05673
1078.76005	0.05784
1077.47428	0.05894
1076.18851	0.05997
1074.90274	0.06091
1073.61697	0.06178
1072.33120	0.06262
1071.04543	0.06347
1069.75966	0.06436
1068.47390	0.06528
1067.18813	0.06619
1065.90236	0.06705
1064.61659	0.06787
1063.33082	0.06874
1062.04505	0.06970
1060.75928	0.07074
1059.47351	0.07174
1058.18774	0.07266
1056.90198	0.07351
1055.61621	0.07438
1054.33044	0.07534
1053.04467	0.07639
1051.75890	0.07746
1050.47313	0.07849
1049.18736	0.07951
1047.90159	0.08063
1046.61583	0.08187
1045.33006	0.08319
1044.04429	0.08450
1042.75852	0.08584
1041.47275	0.08724
1040.18698	0.08870
1038.90121	0.09018
1037.61544	0.09163
1036.32967	0.09307
1035.04391	0.09449
1033.75814	0.09588
1032.47237	0.09719
1031.18660	0.09829
1029.90083	0.09902
1028.61506	0.09921
1027.32929	0.09881
1026.04352	0.09790
1024.75775	0.09666
1023.47199	0.09522
1022.18622	0.09360
1020.90045	0.09179
1019.61468	0.08979
1018.32891	0.08765
1017.04314	0.08545
1015.75737	0.08327
1014.47160	0.08112
1013.18584	0.07904
1011.90007	0.07703
1010.61430	0.07513
1009.32853	0.07338
1008.04276	0.07178
1006.75699	0.07033
1005.47122	0.06898
1004.18545	0.06767
1002.89968	0.06642
1001.61392	0.06522
1000.32815	0.06406
999.04238	0.06292
997.75661	0.06179
996.47084	0.06067
995.18507	0.05957
993.89930	0.05851
992.61353	0.05749
991.32777	0.05652
990.04200	0.05564
988.75623	0.05482
987.47046	0.05403
986.18469	0.05319
984.89892	0.05231
983.61315	0.05145
982.32738	0.05068
981.04161	0.04998
979.75585	0.04931
978.47008	0.04863
977.18431	0.04797
975.89854	0.04735
974.61277	0.04677
973.32700	0.04624
972.04123	0.04582
970.75546	0.04562
969.46970	0.04570
968.18393	0.04603
966.89816	0.04647
965.61239	0.04678
964.32662	0.04676
963.04085	0.04637
961.75508	0.04577
960.46931	0.04517
959.18354	0.04466
957.89778	0.04418
956.61201	0.04364
955.32624	0.04302
954.04047	0.04236
952.75470	0.04171
951.46893	0.04110
950.18316	0.04056
948.89739	0.04013
947.61163	0.03982
946.32586	0.03957
945.04009	0.03927
943.75432	0.03881
942.46855	0.03825
941.18278	0.03770
939.89701	0.03725
938.61124	0.03689
937.32547	0.03651
936.03971	0.03607
934.75394	0.03560
933.46817	0.03516
932.18240	0.03479
930.89663	0.03446
929.61086	0.03411
928.32509	0.03373
927.03932	0.03335
925.75356	0.03298
924.46779	0.03263
923.18202	0.03231
921.89625	0.03208
920.61048	0.03190
919.32471	0.03167
918.03894	0.03133
916.75317	0.03093
915.46740	0.03059
914.18164	0.03035
912.89587	0.03014
911.61010	0.02988
910.32433	0.02959
909.03856	0.02935
907.75279	0.02917
906.46702	0.02898
905.18125	0.02874
903.89549	0.02845
902.60972	0.02818
901.32395	0.02798
900.03818	0.02785
898.75241	0.02778
897.46664	0.02769
896.18087	0.02752
894.89510	0.02731
893.60933	0.02715
892.32357	0.02708
891.03780	0.02703
889.75203	0.02694
888.46626	0.02681
887.18049	0.02669
885.89472	0.02664
884.60895	0.02664
883.32318	0.02666
882.03742	0.02665
880.75165	0.02661
879.46588	0.02657
878.18011	0.02659
876.89434	0.02673
875.60857	0.02694
874.32280	0.02713
873.03703	0.02722
871.75126	0.02724
870.46550	0.02722
869.17973	0.02716
867.89396	0.02705
866.60819	0.02689
865.32242	0.02674
864.03665	0.02668
862.75088	0.02671
861.46511	0.02670
860.17935	0.02655
858.89358	0.02623
857.60781	0.02586
856.32204	0.02555
855.03627	0.02530
853.75050	0.02512
852.46473	0.02500
851.17896	0.02492
849.89319	0.02484
848.60743	0.02471
847.32166	0.02456
846.03589	0.02440
844.75012	0.02424
843.46435	0.02406
842.17858	0.02385
840.89281	0.02365
839.60704	0.02347
838.32128	0.02330
837.03551	0.02312
835.74974	0.02294
834.46397	0.02279
833.17820	0.02265
831.89243	0.02256
830.60666	0.02251
829.32089	0.02248
828.03512	0.02238
826.74936	0.02224
825.46359	0.02214
824.17782	0.02212
822.89205	0.02212
821.60628	0.02207
820.32051	0.02197
819.03474	0.02187
817.74897	0.02177
816.46321	0.02167
815.17744	0.02157
813.89167	0.02148
812.60590	0.02142
811.32013	0.02139
810.03436	0.02142
808.74859	0.02149
807.46282	0.02158
806.17705	0.02165
804.89129	0.02166
803.60552	0.02159
802.31975	0.02146
801.03398	0.02133
799.74821	0.02123
798.46244	0.02115
797.17667	0.02109
795.89090	0.02102
794.60513	0.02096
793.31937	0.02088
792.03360	0.02080
790.74783	0.02076
789.46206	0.02074
788.17629	0.02071
786.89052	0.02068
785.60475	0.02067
784.31898	0.02068
783.03322	0.02071
781.74745	0.02075
780.46168	0.02078
779.17591	0.02078
777.89014	0.02071
776.60437	0.02059
775.31860	0.02049
774.03283	0.02043
772.74706	0.02037
771.46130	0.02030
770.17553	0.02027
768.88976	0.02033
767.60399	0.02046
766.31822	0.02055
765.03245	0.02057
763.74668	0.02059
762.46091	0.02066
761.17515	0.02075
759.88938	0.02080
758.60361	0.02077
757.31784	0.02074
756.03207	0.02075
754.74630	0.02078
753.46053	0.02078
752.17476	0.02073
750.88899	0.02066
749.60323	0.02060
748.31746	0.02055
747.03169	0.02053
745.74592	0.02053
744.46015	0.02051
743.17438	0.02044
741.88861	0.02034
740.60284	0.02026
739.31708	0.02021
738.03131	0.02017
736.74554	0.02015
735.45977	0.02017
734.17400	0.02021
732.88823	0.02022
731.60246	0.02023
730.31669	0.02029
729.03092	0.02044
727.74516	0.02059
726.45939	0.02069
725.17362	0.02071
723.88785	0.02069
722.60208	0.02084
721.31631	0.02110
720.03054	0.02131
718.74477	0.02136
717.45901	0.02125
716.17324	0.02110
714.88747	0.02097
713.60170	0.02089
712.31593	0.02085
711.03016	0.02083
709.74439	0.02084
708.45862	0.02086
707.17285	0.02089
705.88709	0.02090
704.60132	0.02088
703.31555	0.02082
702.02978	0.02076
700.74401	0.02071
699.45824	0.02069
698.17247	0.02069
696.88670	0.02071
695.60094	0.02075
694.31517	0.02079
693.02940	0.02077
691.74363	0.02069
690.45786	0.02060
689.17209	0.02054
687.88632	0.02053
686.60055	0.02052
685.31478	0.02050
684.02902	0.02048
682.74325	0.02047
681.45748	0.02044
680.17171	0.02037
678.88594	0.02029
677.60017	0.02025
676.31440	0.02028
675.02863	0.02032
673.74287	0.02032
672.45710	0.02029
671.17133	0.02030
669.88556	0.02035
668.59979	0.02023
667.31402	0.02015
666.02825	0.02032
664.74248	0.02023
663.45671	0.02012
662.17095	0.02008
660.88518	0.02004
659.59941	0.02000
658.31364	0.01997
657.02787	0.01994
655.74210	0.01989
654.45633	0.01983
653.17056	0.01977
651.88480	0.01974
650.59903	0.01971
649.31326	0.01967
648.02749	0.01963
646.74172	0.01961
645.45595	0.01963
644.17018	0.01962
642.88441	0.01955
641.59864	0.01940
640.31288	0.01922
639.02711	0.01906
637.74134	0.01893
636.45557	0.01879
635.16980	0.01867
633.88403	0.01862
632.59826	0.01871
631.31249	0.01892
630.02673	0.01926
628.74096	0.01957
627.45519	0.01947
626.16942	0.01963
624.88365	0.02014
623.59788	0.02096
622.31211	0.02199
621.02634	0.02287
619.74057	0.02336
618.45481	0.02372
617.16904	0.02451
615.88327	0.02610
614.59750	0.02861
613.31173	0.03193
612.02596	0.03576
610.74019	0.03952
609.45442	0.04234
608.16866	0.04358
606.88289	0.04333
605.59712	0.04249
604.31135	0.04204
603.02558	0.04232
601.73981	0.04284
600.45404	0.04284
599.16827	0.04192
597.88250	0.04026
596.59674	0.03836
595.31097	0.03667
594.02520	0.03544
592.73943	0.03469
591.45366	0.03430
590.16789	0.03407
588.88212	0.03389
587.59635	0.03378
586.31059	0.03378
585.02482	0.03402
583.73905	0.03464
582.45328	0.03578
581.16751	0.03740
579.88174	0.03922
578.59597	0.04082
577.31020	0.04197
576.02443	0.04273
574.73867	0.04332
573.45290	0.04393
572.16713	0.04463
570.88136	0.04542
569.59559	0.04633
568.30982	0.04740
567.02405	0.04863
565.73828	0.04991
564.45251	0.05102
563.16675	0.05173
561.88098	0.05189
560.59521	0.05146
559.30944	0.05054
558.02367	0.04927
556.73790	0.04788
555.45213	0.04654
554.16636	0.04538
552.88060	0.04444
551.59483	0.04363
550.30906	0.04287
549.02329	0.04208
547.73752	0.04128
546.45175	0.04050
545.16598	0.03980
543.88021	0.03916
542.59444	0.03856
541.30868	0.03799
540.02291	0.03749
538.73714	0.03705
537.45137	0.03666
536.16560	0.03629
534.87983	0.03590
533.59406	0.03552
532.30829	0.03517
531.02253	0.03486
529.73676	0.03460
528.45099	0.03435
527.16522	0.03408
525.87945	0.03377
524.59368	0.03342
523.30791	0.03305
522.02214	0.03263
520.73637	0.03218
519.45061	0.03172
518.16484	0.03126
516.87907	0.03084
515.59330	0.03048
514.30753	0.03020
513.02176	0.03002
511.73599	0.02990
510.45022	0.02978
509.16446	0.02954
507.87869	0.02914
506.59292	0.02863
505.30715	0.02812
504.02138	0.02773
502.73561	0.02748
501.44984	0.02729
500.16407	0.02709
498.87830	0.02681
497.59254	0.02645
496.30677	0.02611
495.02100	0.02583
493.73523	0.02561
492.44946	0.02538
491.16369	0.02511
489.87792	0.02487
488.59215	0.02470
487.30639	0.02458
486.02062	0.02442
484.73485	0.02419
483.44908	0.02394
482.16331	0.02373
480.87754	0.02359
479.59177	0.02351
478.30600	0.02343
477.02023	0.02332
475.73447	0.02317
474.44870	0.02297
473.16293	0.02277
471.87716	0.02260
470.59139	0.02249
469.30562	0.02242
468.01985	0.02236
466.73408	0.02226
465.44832	0.02209
464.16255	0.02184
462.87678	0.02156
461.59101	0.02132
460.30524	0.02115
459.01947	0.02103
457.73370	0.02093
456.44793	0.02082
455.16216	0.02068
453.87640	0.02045
452.59063	0.02012
451.30486	0.01977
450.01909	0.01947
448.73332	0.01926
447.44755	0.01912
446.16178	0.01900
444.87601	0.01889
443.59025	0.01879
442.30448	0.01875
441.01871	0.01871
439.73294	0.01862
438.44717	0.01845
437.16140	0.01821
435.87563	0.01798
434.58986	0.01781
433.30409	0.01769
432.01833	0.01762
430.73256	0.01757
429.44679	0.01756
428.16102	0.01754
426.87525	0.01748
425.58948	0.01733
424.30371	0.01714
423.01794	0.01697
421.73218	0.01686
420.44641	0.01678
419.16064	0.01669
417.87487	0.01656
416.58910	0.01641
415.30333	0.01630
414.01756	0.01627
412.73179	0.01626
411.44602	0.01621
410.16026	0.01609
408.87449	0.01595
407.58872	0.01583
406.30295	0.01574
405.01718	0.01565
403.73141	0.01556
402.44564	0.01548
401.15987	0.01542
399.87411	0.01539
