3997.45528	0.04265
3996.16951	0.04259
3994.88374	0.04248
3993.59798	0.04233
3992.31221	0.04220
3991.02644	0.04210
3989.74067	0.04207
3988.45490	0.04220
3987.16913	0.04248
3985.88336	0.04276
3984.59759	0.04281
3983.31183	0.04263
3982.02606	0.04235
3980.74029	0.04208
3979.45452	0.04180
3978.16875	0.04154
3976.88298	0.04140
3975.59721	0.04146
3974.31144	0.04166
3973.02567	0.04194
3971.73991	0.04225
3970.45414	0.04252
3969.16837	0.04267
3967.88260	0.04269
3966.59683	0.04271
3965.31106	0.04276
3964.02529	0.04274
3962.73952	0.04245
3961.45376	0.04186
3960.16799	0.04129
3958.88222	0.04124
3957.59645	0.04190
3956.31068	0.04293
3955.02491	0.04366
3953.73914	0.04369
3952.45337	0.04318
3951.16760	0.04256
3949.88184	0.04210
3948.59607	0.04169
3947.31030	0.04112
3946.02453	0.04039
3944.73876	0.03977
3943.45299	0.03955
3942.16722	0.03982
3940.88145	0.04042
3939.59569	0.04113
3938.30992	0.04168
3937.02415	0.04187
3935.73838	0.04169
3934.45261	0.04138
3933.16684	0.04123
3931.88107	0.04131
3930.59530	0.04142
3929.30953	0.04132
3928.02377	0.04093
3926.73800	0.04048
3925.45223	0.04032
3924.16646	0.04060
3922.88069	0.04114
3921.59492	0.04160
3920.30915	0.04172
3919.02338	0.04143
3917.73762	0.04087
3916.45185	0.04028
3915.16608	0.03999
3913.88031	0.04011
3912.59454	0.04038
3911.30877	0.04048
3910.02300	0.04031
3908.73723	0.03996
3907.45146	0.03952
3906.16570	0.03910
3904.87993	0.03898
3903.59416	0.03934
3902.30839	0.04002
3901.02262	0.04055
3899.73685	0.04054
3898.45108	0.03990
3897.16531	0.03884
3895.87955	0.03778
3894.59378	0.03712
3893.30801	0.03712
3892.02224	0.03772
3890.73647	0.03863
3889.45070	0.03949
3888.16493	0.04006
3886.87916	0.04023
3885.59339	0.04011
3884.30763	0.03998
3883.02186	0.04007
3881.73609	0.04035
3880.45032	0.04047
3879.16455	0.04012
3877.87878	0.03940
3876.59301	0.03878
3875.30724	0.03865
3874.02148	0.03906
3872.73571	0.03975
3871.44994	0.04044
3870.16417	0.04101
3868.87840	0.04148
3867.59263	0.04175
3866.30686	0.04167
3865.02109	0.04124
3863.73532	0.04074
3862.44956	0.04049
3861.16379	0.04045
3859.87802	0.04027
3858.59225	0.03973
3857.30648	0.03900
3856.02071	0.03852
3854.73494	0.03853
3853.44917	0.03886
3852.16341	0.03913
3850.87764	0.03914
3849.59187	0.03896
3848.30610	0.03871
3847.02033	0.03844
3845.73456	0.03820
3844.44879	0.03809
3843.16302	0.03819
3841.87725	0.03846
3840.59149	0.03879
3839.30572	0.03896
3838.01995	0.03879
3836.73418	0.03827
3835.44841	0.03773
3834.16264	0.03758
3832.87687	0.03787
3831.59110	0.03821
3830.30534	0.03816
3829.01957	0.03773
3827.73380	0.03726
3826.44803	0.03712
3825.16226	0.03743
3823.87649	0.03809
3822.59072	0.03889
3821.30495	0.03949
3820.01918	0.03955
3818.73342	0.03902
3817.44765	0.03822
3816.16188	0.03752
3814.87611	0.03708
3813.59034	0.03683
3812.30457	0.03674
3811.01880	0.03693
3809.73303	0.03745
3808.44726	0.03802
3807.16150	0.03828
3805.87573	0.03814
3804.58996	0.03788
3803.30419	0.03782
3802.01842	0.03802
3800.73265	0.03826
3799.44688	0.03832
3798.16111	0.03808
3796.87535	0.03766
3795.58958	0.03725
3794.30381	0.03711
3793.01804	0.03740
3791.73227	0.03799
3790.44650	0.03853
3789.16073	0.03868
3787.87496	0.03834
3786.58919	0.03766
3785.30343	0.03695
3784.01766	0.03655
3782.73189	0.03667
3781.44612	0.03721
3780.16035	0.03778
3778.87458	0.03792
3777.58881	0.03754
3776.30304	0.03688
3775.01728	0.03633
3773.73151	0.03607
3772.44574	0.03607
3771.15997	0.03630
3769.87420	0.03677
3768.58843	0.03736
3767.30266	0.03778
3766.01689	0.03774
3764.73112	0.03718
3763.44536	0.03633
3762.15959	0.03552
3760.87382	0.03505
3759.58805	0.03496
3758.30228	0.03504
3757.01651	0.03513
3755.73074	0.03531
3754.44497	0.03576
3753.15921	0.03640
3751.87344	0.03692
3750.58767	0.03723
3749.30190	0.03760
3748.01613	0.03835
3746.73036	0.03938
3745.44459	0.04015
3744.15882	0.04014
3742.87305	0.03936
3741.58729	0.03820
3740.30152	0.03704
3739.01575	0.03609
3737.72998	0.03539
3736.44421	0.03491
3735.15844	0.03465
3733.87267	0.03469
3732.58690	0.03513
3731.30114	0.03591
3730.01537	0.03673
3728.72960	0.03722
3727.44383	0.03711
3726.15806	0.03641
3724.87229	0.03543
3723.58652	0.03460
3722.30075	0.03415
3721.01498	0.03408
3719.72922	0.03423
3718.44345	0.03452
3717.15768	0.03490
3715.87191	0.03534
3714.58614	0.03579
3713.30037	0.03613
3712.01460	0.03619
3710.72883	0.03596
3709.44307	0.03565
3708.15730	0.03552
3706.87153	0.03567
3705.58576	0.03598
3704.29999	0.03623
3703.01422	0.03624
3701.72845	0.03597
3700.44268	0.03549
3699.15691	0.03497
3697.87115	0.03468
3696.58538	0.03477
3695.29961	0.03501
3694.01384	0.03491
3692.72807	0.03426
3691.44230	0.03335
3690.15653	0.03276
3688.87076	0.03283
3687.58500	0.03328
3686.29923	0.03355
3685.01346	0.03347
3683.72769	0.03336
3682.44192	0.03358
3681.15615	0.03417
3679.87038	0.03484
3678.58461	0.03538
3677.29884	0.03570
3676.01308	0.03575
3674.72731	0.03546
3673.44154	0.03500
3672.15577	0.03465
3670.87000	0.03466
3669.58423	0.03500
3668.29846	0.03544
3667.01269	0.03571
3665.72693	0.03570
3664.44116	0.03544
3663.15539	0.03502
3661.86962	0.03457
3660.58385	0.03421
3659.29808	0.03402
3658.01231	0.03393
3656.72654	0.03381
3655.44077	0.03371
3654.15501	0.03389
3652.86924	0.03462
3651.58347	0.03578
3650.29770	0.03689
3649.01193	0.03742
3647.72616	0.03734
3646.44039	0.03702
3645.15462	0.03677
3643.86886	0.03656
3642.58309	0.03613
3641.29732	0.03546
3640.01155	0.03483
3638.72578	0.03458
3637.44001	0.03484
3636.15424	0.03540
3634.86847	0.03585
3633.58270	0.03585
3632.29694	0.03540
3631.01117	0.03476
3629.72540	0.03429
3628.43963	0.03418
3627.15386	0.03450
3625.86809	0.03522
3624.58232	0.03633
3623.29655	0.03774
3622.01079	0.03915
3620.72502	0.04011
3619.43925	0.04024
3618.15348	0.03947
3616.86771	0.03822
3615.58194	0.03717
3614.29617	0.03680
3613.01040	0.03715
3611.72463	0.03786
3610.43887	0.03855
3609.15310	0.03909
3607.86733	0.03973
3606.58156	0.04075
3605.29579	0.04200
3604.01002	0.04298
3602.72425	0.04326
3601.43848	0.04280
3600.15272	0.04198
3598.86695	0.04128
3597.58118	0.04110
3596.29541	0.04153
3595.00964	0.04224
3593.72387	0.04277
3592.43810	0.04300
3591.15233	0.04316
3589.86656	0.04337
3588.58080	0.04342
3587.29503	0.04310
3586.00926	0.04251
3584.72349	0.04210
3583.43772	0.04228
3582.15195	0.04304
3580.86618	0.04406
3579.58041	0.04498
3578.29464	0.04562
3577.00888	0.04596
3575.72311	0.04605
3574.43734	0.04602
3573.15157	0.04609
3571.86580	0.04642
3570.58003	0.04687
3569.29426	0.04715
3568.00849	0.04717
3566.72273	0.04721
3565.43696	0.04758
3564.15119	0.04824
3562.86542	0.04877
3561.57965	0.04876
3560.29388	0.04824
3559.00811	0.04761
3557.72234	0.04725
3556.43657	0.04719
3555.15081	0.04719
3553.86504	0.04707
3552.57927	0.04696
3551.29350	0.04720
3550.00773	0.04795
3548.72196	0.04901
3547.43619	0.04994
3546.15042	0.05049
3544.86466	0.05062
3543.57889	0.05048
3542.29312	0.05026
3541.00735	0.05020
3539.72158	0.05050
3538.43581	0.05109
3537.15004	0.05158
3535.86427	0.05176
3534.57850	0.05178
3533.29274	0.05197
3532.00697	0.05243
3530.72120	0.05297
3529.43543	0.05341
3528.14966	0.05372
3526.86389	0.05394
3525.57812	0.05405
3524.29235	0.05400
3523.00659	0.05389
3521.72082	0.05391
3520.43505	0.05420
3519.14928	0.05470
3517.86351	0.05524
3516.57774	0.05569
3515.29197	0.05602
3514.00620	0.05630
3512.72043	0.05656
3511.43467	0.05674
3510.14890	0.05674
3508.86313	0.05656
3507.57736	0.05642
3506.29159	0.05658
3505.00582	0.05703
3503.72005	0.05751
3502.43428	0.05779
3501.14852	0.05788
3499.86275	0.05790
3498.57698	0.05796
3497.29121	0.05810
3496.00544	0.05837
3494.71967	0.05881
3493.43390	0.05945
3492.14813	0.06017
3490.86236	0.06079
3489.57660	0.06110
3488.29083	0.06105
3487.00506	0.06074
3485.71929	0.06042
3484.43352	0.06041
3483.14775	0.06088
3481.86198	0.06170
3480.57621	0.06248
3479.29045	0.06284
3478.00468	0.06279
3476.71891	0.06259
3475.43314	0.06246
3474.14737	0.06233
3472.86160	0.06216
3471.57583	0.06208
3470.29006	0.06239
3469.00429	0.06315
3467.71853	0.06406
3466.43276	0.06475
3465.14699	0.06500
3463.86122	0.06486
3462.57545	0.06448
3461.28968	0.06408
3460.00391	0.06388
3458.71814	0.06406
3457.43238	0.06451
3456.14661	0.06490
3454.86084	0.06485
3453.57507	0.06441
3452.28930	0.06399
3451.00353	0.06402
3449.71776	0.06458
3448.43199	0.06545
3447.14622	0.06631
3445.86046	0.06695
3444.57469	0.06728
3443.28892	0.06740
3442.00315	0.06753
3440.71738	0.06780
3439.43161	0.06809
3438.14584	0.06820
3436.86007	0.06811
3435.57431	0.06805
3434.28854	0.06822
3433.00277	0.06863
3431.71700	0.06907
3430.43123	0.06936
3429.14546	0.06946
3427.85969	0.06944
3426.57392	0.06934
3425.28815	0.06920
3424.00239	0.06910
3422.71662	0.06914
3421.43085	0.06933
3420.14508	0.06950
3418.85931	0.06952
3417.57354	0.06943
3416.28777	0.06944
3415.00200	0.06974
3413.71624	0.07037
3412.43047	0.07119
3411.14470	0.07202
3409.85893	0.07272
3408.57316	0.07320
3407.28739	0.07350
3406.00162	0.07378
3404.71585	0.07421
3403.43008	0.07481
3402.14432	0.07532
3400.85855	0.07542
3399.57278	0.07506
3398.28701	0.07451
3397.00124	0.07414
3395.71547	0.07415
3394.42970	0.07441
3393.14393	0.07473
3391.85817	0.07494
3390.57240	0.07502
3389.28663	0.07501
3388.00086	0.07499
3386.71509	0.07512
3385.42932	0.07551
3384.14355	0.07614
3382.85778	0.07677
3381.57201	0.07720
3380.28625	0.07740
3379.00048	0.07748
3377.71471	0.07757
3376.42894	0.07768
3375.14317	0.07784
3373.85740	0.07811
3372.57163	0.07850
3371.28586	0.07891
3370.00010	0.07921
3368.71433	0.07942
3367.42856	0.07973
3366.14279	0.08028
3364.85702	0.08097
3363.57125	0.08162
3362.28548	0.08217
3360.99971	0.08271
3359.71394	0.08334
3358.42818	0.08402
3357.14241	0.08460
3355.85664	0.08496
3354.57087	0.08514
3353.28510	0.08519
3351.99933	0.08520
3350.71356	0.08525
3349.42779	0.08547
3348.14202	0.08596
3346.85626	0.08662
3345.57049	0.08722
3344.28472	0.08763
3342.99895	0.08784
3341.71318	0.08795
3340.42741	0.08804
3339.14164	0.08820
3337.85587	0.08854
3336.57011	0.08910
3335.28434	0.08984
3333.99857	0.09066
3332.71280	0.09140
3331.42703	0.09189
3330.14126	0.09198
3328.85549	0.09172
3327.56972	0.09136
3326.28395	0.09125
3324.99819	0.09159
3323.71242	0.09226
3322.42665	0.09293
3321.14088	0.09335
3319.85511	0.09352
3318.56934	0.09362
3317.28357	0.09379
3315.99780	0.09402
3314.71204	0.09424
3313.42627	0.09452
3312.14050	0.09501
3310.85473	0.09570
3309.56896	0.09636
3308.28319	0.09675
3306.99742	0.09684
3305.71165	0.09685
3304.42588	0.09704
3303.14012	0.09750
3301.85435	0.09815
3300.56858	0.09875
3299.28281	0.09906
3297.99704	0.09902
3296.71127	0.09878
3295.42550	0.09860
3294.13973	0.09873
3292.85397	0.09917
3291.56820	0.09968
3290.28243	0.09996
3288.99666	0.09989
3287.71089	0.09966
3286.42512	0.09947
3285.13935	0.09940
3283.85358	0.09936
3282.56781	0.09933
3281.28205	0.09931
3279.99628	0.09931
3278.71051	0.09932
3277.42474	0.09934
3276.13897	0.09938
3274.85320	0.09938
3273.56743	0.09927
3272.28166	0.09908
3270.99590	0.09895
3269.71013	0.09899
3268.42436	0.09914
3267.13859	0.09920
3265.85282	0.09896
3264.56705	0.09842
3263.28128	0.09776
3261.99551	0.09718
3260.70974	0.09672
3259.42398	0.09636
3258.13821	0.09610
3256.85244	0.09589
3255.56667	0.09570
3254.28090	0.09545
3252.99513	0.09515
3251.70936	0.09486
3250.42359	0.09467
3249.13783	0.09456
3247.85206	0.09440
3246.56629	0.09405
3245.28052	0.09348
3243.99475	0.09278
3242.70898	0.09208
3241.42321	0.09150
3240.13744	0.09119
3238.85167	0.09127
3237.56591	0.09163
3236.28014	0.09195
3234.99437	0.09195
3233.70860	0.09161
3232.42283	0.09112
3231.13706	0.09067
3229.85129	0.09022
3228.56552	0.08969
3227.27976	0.08905
3225.99399	0.08842
3224.70822	0.08796
3223.42245	0.08786
3222.13668	0.08816
3220.85091	0.08865
3219.56514	0.08896
3218.27937	0.08886
3216.99360	0.08841
3215.70784	0.08788
3214.42207	0.08752
3213.13630	0.08740
3211.85053	0.08745
3210.56476	0.08756
3209.27899	0.08764
3207.99322	0.08772
3206.70745	0.08778
3205.42169	0.08776
3204.13592	0.08757
3202.85015	0.08723
3201.56438	0.08686
3200.27861	0.08652
3198.99284	0.08622
3197.70707	0.08592
3196.42130	0.08562
3195.13553	0.08532
3193.84977	0.08503
3192.56400	0.08471
3191.27823	0.08436
3189.99246	0.08402
3188.70669	0.08376
3187.42092	0.08356
3186.13515	0.08343
3184.84938	0.08335
3183.56362	0.08328
3182.27785	0.08310
3180.99208	0.08269
3179.70631	0.08207
3178.42054	0.08137
3177.13477	0.08071
3175.84900	0.08015
3174.56323	0.07972
3173.27746	0.07943
3171.99170	0.07927
3170.70593	0.07922
3169.42016	0.07916
3168.13439	0.07898
3166.84862	0.07865
3165.56285	0.07830
3164.27708	0.07813
3162.99131	0.07820
3161.70555	0.07838
3160.41978	0.07845
3159.13401	0.07831
3157.84824	0.07797
3156.56247	0.07751
3155.27670	0.07704
3153.99093	0.07663
3152.70516	0.07628
3151.41939	0.07588
3150.13363	0.07535
3148.84786	0.07477
3147.56209	0.07429
3146.27632	0.07404
3144.99055	0.07393
3143.70478	0.07379
3142.41901	0.07344
3141.13324	0.07288
3139.84748	0.07227
3138.56171	0.07188
3137.27594	0.07183
3135.99017	0.07199
3134.70440	0.07218
3133.41863	0.07223
3132.13286	0.07211
3130.84709	0.07186
3129.56132	0.07156
3128.27556	0.07127
3126.98979	0.07096
3125.70402	0.07061
3124.41825	0.07032
3123.13248	0.07023
3121.84671	0.07030
3120.56094	0.07028
3119.27517	0.06995
3117.98940	0.06941
3116.70364	0.06898
3115.41787	0.06891
3114.13210	0.06915
3112.84633	0.06949
3111.56056	0.06978
3110.27479	0.06993
3108.98902	0.06995
3107.70325	0.06986
3106.41749	0.06982
3105.13172	0.06996
3103.84595	0.07029
3102.56018	0.07062
3101.27441	0.07072
3099.98864	0.07056
3098.70287	0.07038
3097.41710	0.07041
3096.13133	0.07064
3094.84557	0.07085
3093.55980	0.07084
3092.27403	0.07065
3090.98826	0.07049
3089.70249	0.07050
3088.41672	0.07071
3087.13095	0.07096
3085.84518	0.07107
3084.55942	0.07100
3083.27365	0.07085
3081.98788	0.07074
3080.70211	0.07066
3079.41634	0.07053
3078.13057	0.07035
3076.84480	0.07022
3075.55903	0.07025
3074.27326	0.07044
3072.98750	0.07061
3071.70173	0.07058
3070.41596	0.07037
3069.13019	0.07023
3067.84442	0.07041
3066.55865	0.07091
3065.27288	0.07147
3063.98711	0.07180
3062.70135	0.07170
3061.41558	0.07116
3060.12981	0.07031
3058.84404	0.06940
3057.55827	0.06867
3056.27250	0.06825
3054.98673	0.06812
3053.70096	0.06826
3052.41519	0.06861
3051.12943	0.06902
3049.84366	0.06922
3048.55789	0.06902
3047.27212	0.06848
3045.98635	0.06789
3044.70058	0.06744
3043.41481	0.06714
3042.12904	0.06689
3040.84328	0.06662
3039.55751	0.06633
3038.27174	0.06606
3036.98597	0.06579
3035.70020	0.06550
3034.41443	0.06522
3033.12866	0.06499
3031.84289	0.06486
3030.55712	0.06484
3029.27136	0.06488
3027.98559	0.06491
3026.69982	0.06489
3025.41405	0.06482
3024.12828	0.06470
3022.84251	0.06449
3021.55674	0.06418
3020.27097	0.06373
3018.98521	0.06311
3017.69944	0.06235
3016.41367	0.06164
3015.12790	0.06118
3013.84213	0.06106
3012.55636	0.06118
3011.27059	0.06144
3009.98482	0.06170
3008.69905	0.06190
3007.41329	0.06195
3006.12752	0.06179
3004.84175	0.06144
3003.55598	0.06103
3002.27021	0.06073
3000.98444	0.06068
2999.69867	0.06089
2998.41290	0.06120
2997.12714	0.06141
2995.84137	0.06143
2994.55560	0.06135
2993.26983	0.06133
2991.98406	0.06139
2990.69829	0.06149
2989.41252	0.06162
2988.12675	0.06186
2986.84098	0.06223
2985.55522	0.06261
2984.26945	0.06291
2982.98368	0.06320
2981.69791	0.06355
2980.41214	0.06401
2979.12637	0.06455
2977.84060	0.06515
2976.55483	0.06575
2975.26907	0.06631
2973.98330	0.06680
2972.69753	0.06719
2971.41176	0.06752
2970.12599	0.06789
2968.84022	0.06836
2967.55445	0.06889
2966.26868	0.06936
2964.98291	0.06972
2963.69715	0.06999
2962.41138	0.07027
2961.12561	0.07062
2959.83984	0.07099
2958.55407	0.07130
2957.26830	0.07149
2955.98253	0.07165
2954.69676	0.07187
2953.41100	0.07211
2952.12523	0.07227
2950.83946	0.07228
2949.55369	0.07222
2948.26792	0.07229
2946.98215	0.07258
2945.69638	0.07294
2944.41061	0.07315
2943.12484	0.07316
2941.83908	0.07312
2940.55331	0.07327
2939.26754	0.07369
2937.98177	0.07429
2936.69600	0.07490
2935.41023	0.07538
2934.12446	0.07572
2932.83869	0.07599
2931.55293	0.07629
2930.26716	0.07674
2928.98139	0.07730
2927.69562	0.07783
2926.40985	0.07818
2925.12408	0.07834
2923.83831	0.07839
2922.55254	0.07838
2921.26677	0.07826
2919.98101	0.07796
2918.69524	0.07751
2917.40947	0.07697
2916.12370	0.07643
2914.83793	0.07592
2913.55216	0.07538
2912.26639	0.07475
2910.98062	0.07405
2909.69486	0.07334
2908.40909	0.07267
2907.12332	0.07201
2905.83755	0.07135
2904.55178	0.07077
2903.26601	0.07034
2901.98024	0.07007
2900.69447	0.06981
2899.40870	0.06939
2898.12294	0.06879
2896.83717	0.06820
2895.55140	0.06781
2894.26563	0.06766
2892.97986	0.06759
2891.69409	0.06746
2890.40832	0.06722
2889.12255	0.06689
2887.83678	0.06652
2886.55102	0.06619
2885.26525	0.06598
2883.97948	0.06594
2882.69371	0.06607
2881.40794	0.06631
2880.12217	0.06658
2878.83640	0.06679
2877.55063	0.06692
2876.26487	0.06701
2874.97910	0.06708
2873.69333	0.06708
2872.40756	0.06694
2871.12179	0.06666
2869.83602	0.06629
2868.55025	0.06593
2867.26448	0.06558
2865.97871	0.06523
2864.69295	0.06490
2863.40718	0.06467
2862.12141	0.06462
2860.83564	0.06478
2859.54987	0.06507
2858.26410	0.06541
2856.97833	0.06578
2855.69256	0.06621
2854.40680	0.06670
2853.12103	0.06716
2851.83526	0.06740
2850.54949	0.06731
2849.26372	0.06687
2847.97795	0.06616
2846.69218	0.06521
2845.40641	0.06408
2844.12064	0.06294
2842.83488	0.06200
2841.54911	0.06138
2840.26334	0.06099
2838.97757	0.06068
2837.69180	0.06025
2836.40603	0.05963
2835.12026	0.05893
2833.83449	0.05837
2832.54873	0.05807
2831.26296	0.05791
2829.97719	0.05775
2828.69142	0.05757
2827.40565	0.05738
2826.11988	0.05719
2824.83411	0.05693
2823.54834	0.05663
2822.26257	0.05630
2820.97681	0.05596
2819.69104	0.05563
2818.40527	0.05540
2817.11950	0.05532
2815.83373	0.05534
2814.54796	0.05530
2813.26219	0.05511
2811.97642	0.05486
2810.69066	0.05465
2809.40489	0.05455
2808.11912	0.05452
2806.83335	0.05449
2805.54758	0.05444
2804.26181	0.05435
2802.97604	0.05418
2801.69027	0.05391
2800.40450	0.05358
2799.11874	0.05334
2797.83297	0.05325
2796.54720	0.05319
2795.26143	0.05305
2793.97566	0.05280
2792.68989	0.05252
2791.40412	0.05227
2790.11835	0.05205
2788.83259	0.05181
2787.54682	0.05156
2786.26105	0.05138
2784.97528	0.05139
2783.68951	0.05165
2782.40374	0.05205
2781.11797	0.05237
2779.83220	0.05244
2778.54643	0.05226
2777.26067	0.05202
2775.97490	0.05186
2774.68913	0.05179
2773.40336	0.05170
2772.11759	0.05152
2770.83182	0.05129
2769.54605	0.05113
2768.26028	0.05111
2766.97452	0.05119
2765.68875	0.05124
2764.40298	0.05116
2763.11721	0.05096
2761.83144	0.05072
2760.54567	0.05054
2759.25990	0.05050
2757.97413	0.05055
2756.68836	0.05059
2755.40260	0.05053
2754.11683	0.05038
2752.83106	0.05019
2751.54529	0.04994
2750.25952	0.04968
2748.97375	0.04945
2747.68798	0.04932
2746.40221	0.04930
2745.11645	0.04934
2743.83068	0.04943
2742.54491	0.04956
2741.25914	0.04965
2739.97337	0.04958
2738.68760	0.04933
2737.40183	0.04899
2736.11606	0.04872
2734.83029	0.04855
2733.54453	0.04849
2732.25876	0.04847
2730.97299	0.04843
2729.68722	0.04832
2728.40145	0.04814
2727.11568	0.04794
2725.82991	0.04778
2724.54414	0.04762
2723.25838	0.04740
2721.97261	0.04714
2720.68684	0.04690
2719.40107	0.04674
2718.11530	0.04666
2716.82953	0.04665
2715.54376	0.04668
2714.25799	0.04666
2712.97222	0.04657
2711.68646	0.04646
2710.40069	0.04644
2709.11492	0.04649
2707.82915	0.04651
2706.54338	0.04641
2705.25761	0.04625
2703.97184	0.04616
2702.68607	0.04616
2701.40031	0.04618
2700.11454	0.04616
2698.82877	0.04612
2697.54300	0.04608
2696.25723	0.04605
2694.97146	0.04598
2693.68569	0.04590
2692.39992	0.04587
2691.11415	0.04590
2689.82839	0.04594
2688.54262	0.04591
2687.25685	0.04585
2685.97108	0.04583
2684.68531	0.04583
2683.39954	0.04575
2682.11377	0.04553
2680.82800	0.04529
2679.54224	0.04522
2678.25647	0.04536
2676.97070	0.04558
2675.68493	0.04565
2674.39916	0.04552
2673.11339	0.04527
2671.82762	0.04509
2670.54185	0.04508
2669.25608	0.04520
2667.97032	0.04528
2666.68455	0.04522
2665.39878	0.04509
2664.11301	0.04506
2662.82724	0.04517
2661.54147	0.04531
2660.25570	0.04535
2658.96993	0.04525
2657.68417	0.04506
2656.39840	0.04485
2655.11263	0.04463
2653.82686	0.04439
2652.54109	0.04413
2651.25532	0.04389
2649.96955	0.04372
2648.68378	0.04364
2647.39801	0.04359
2646.11225	0.04352
2644.82648	0.04345
2643.54071	0.04335
2642.25494	0.04319
2640.96917	0.04291
2639.68340	0.04258
2638.39763	0.04225
2637.11186	0.04196
2635.82609	0.04171
2634.54033	0.04155
2633.25456	0.04152
2631.96879	0.04159
2630.68302	0.04170
2629.39725	0.04183
2628.11148	0.04195
2626.82571	0.04196
2625.53994	0.04173
2624.25418	0.04128
2622.96841	0.04079
2621.68264	0.04045
2620.39687	0.04036
2619.11110	0.04041
2617.82533	0.04045
2616.53956	0.04042
2615.25379	0.04036
2613.96802	0.04031
2612.68226	0.04027
2611.39649	0.04020
2610.11072	0.04001
2608.82495	0.03964
2607.53918	0.03914
2606.25341	0.03869
2604.96764	0.03841
2603.68187	0.03820
2602.39611	0.03796
2601.11034	0.03777
2599.82457	0.03772
2598.53880	0.03781
2597.25303	0.03791
2595.96726	0.03795
2594.68149	0.03792
2593.39572	0.03795
2592.10995	0.03815
2590.82419	0.03855
2589.53842	0.03894
2588.25265	0.03908
2586.96688	0.03892
2585.68111	0.03858
2584.39534	0.03823
2583.10957	0.03796
2581.82380	0.03778
2580.53804	0.03769
2579.25227	0.03768
2577.96650	0.03776
2576.68073	0.03793
2575.39496	0.03812
2574.10919	0.03822
2572.82342	0.03811
2571.53765	0.03778
2570.25188	0.03736
2568.96612	0.03707
2567.68035	0.03700
2566.39458	0.03707
2565.10881	0.03716
2563.82304	0.03718
2562.53727	0.03717
2561.25150	0.03712
2559.96573	0.03695
2558.67997	0.03653
2557.39420	0.03588
2556.10843	0.03527
2554.82266	0.03498
2553.53689	0.03503
2552.25112	0.03520
2550.96535	0.03531
2549.67958	0.03532
2548.39381	0.03533
2547.10805	0.03539
2545.82228	0.03545
2544.53651	0.03546
2543.25074	0.03545
2541.96497	0.03542
2540.67920	0.03535
2539.39343	0.03516
2538.10766	0.03484
2536.82190	0.03442
2535.53613	0.03395
2534.25036	0.03355
2532.96459	0.03339
2531.67882	0.03351
2530.39305	0.03376
2529.10728	0.03395
2527.82151	0.03400
2526.53574	0.03402
2525.24998	0.03413
2523.96421	0.03423
2522.67844	0.03409
2521.39267	0.03366
2520.10690	0.03318
2518.82113	0.03296
2517.53536	0.03311
2516.24959	0.03352
2514.96383	0.03396
2513.67806	0.03425
2512.39229	0.03427
2511.10652	0.03402
2509.82075	0.03367
2508.53498	0.03344
2507.24921	0.03340
2505.96344	0.03343
2504.67767	0.03335
2503.39191	0.03308
2502.10614	0.03272
2500.82037	0.03249
2499.53460	0.03256
2498.24883	0.03287
2496.96306	0.03316
2495.67729	0.03320
2494.39152	0.03303
2493.10576	0.03283
2491.81999	0.03275
2490.53422	0.03270
2489.24845	0.03257
2487.96268	0.03232
2486.67691	0.03210
2485.39114	0.03201
2484.10537	0.03210
2482.81960	0.03232
2481.53384	0.03255
2480.24807	0.03271
2478.96230	0.03279
2477.67653	0.03287
2476.39076	0.03300
2475.10499	0.03307
2473.81922	0.03299
2472.53345	0.03281
2471.24769	0.03265
2469.96192	0.03252
2468.67615	0.03233
2467.39038	0.03203
2466.10461	0.03182
2464.81884	0.03189
2463.53307	0.03220
2462.24730	0.03246
2460.96153	0.03242
2459.67577	0.03214
2458.39000	0.03184
2457.10423	0.03169
2455.81846	0.03170
2454.53269	0.03175
2453.24692	0.03179
2451.96115	0.03184
2450.67538	0.03188
2449.38962	0.03188
2448.10385	0.03178
2446.81808	0.03159
2445.53231	0.03133
2444.24654	0.03107
2442.96077	0.03094
2441.67500	0.03098
2440.38923	0.03109
2439.10346	0.03118
2437.81770	0.03127
2436.53193	0.03143
2435.24616	0.03161
2433.96039	0.03173
2432.67462	0.03172
2431.38885	0.03164
2430.10308	0.03152
2428.81731	0.03135
2427.53155	0.03110
2426.24578	0.03080
2424.96001	0.03054
2423.67424	0.03042
2422.38847	0.03049
2421.10270	0.03077
2419.81693	0.03119
2418.53116	0.03159
2417.24539	0.03184
2415.95963	0.03188
2414.67386	0.03178
2413.38809	0.03162
2412.10232	0.03145
2410.81655	0.03126
2409.53078	0.03104
2408.24501	0.03079
2406.95924	0.03049
2405.67347	0.03024
2404.38771	0.03010
2403.10194	0.03011
2401.81617	0.03024
2400.53040	0.03041
2399.24463	0.03049
2397.95886	0.03047
2396.67309	0.03035
2395.38732	0.03024
2394.10156	0.03025
2392.81579	0.03035
2391.53002	0.03043
2390.24425	0.03044
2388.95848	0.03042
2387.67271	0.03042
2386.38694	0.03047
2385.10117	0.03055
2383.81540	0.03059
2382.52964	0.03060
2381.24387	0.03060
2379.95810	0.03062
2378.67233	0.03068
2377.38656	0.03080
2376.10079	0.03093
2374.81502	0.03097
2373.52925	0.03095
2372.24349	0.03093
2370.95772	0.03109
2369.67195	0.03130
2368.38618	0.03151
2367.10041	0.03172
2365.81464	0.03188
2364.52887	0.03171
2363.24310	0.03141
2361.95733	0.03136
2360.67157	0.03168
2359.38580	0.03191
2358.10003	0.03194
2356.81426	0.03183
2355.52849	0.03172
2354.24272	0.03171
2352.95695	0.03175
2351.67118	0.03201
2350.38542	0.03246
2349.09965	0.03261
2347.81388	0.03221
2346.52811	0.03177
2345.24234	0.03153
2343.95657	0.03123
2342.67080	0.03068
2341.38503	0.03049
2340.09926	0.03081
2338.81350	0.03091
2337.52773	0.03070
2336.24196	0.03077
2334.95619	0.03105
2333.67042	0.03090
2332.38465	0.03035
2331.09888	0.03046
2329.81311	0.03070
2328.52735	0.03030
2327.24158	0.03057
2325.95581	0.03124
2324.67004	0.03123
2323.38427	0.03131
2322.09850	0.03156
2320.81273	0.03111
2319.52696	0.03083
2318.24119	0.03071
2316.95543	0.03022
2315.66966	0.02995
2314.38389	0.02980
2313.09812	0.02947
2311.81235	0.02929
2310.52658	0.02907
2309.24081	0.02896
2307.95504	0.02909
2306.66928	0.02917
2305.38351	0.02930
2304.09774	0.02938
2302.81197	0.02932
2301.52620	0.02910
2300.24043	0.02862
2298.95466	0.02803
2297.66889	0.02745
2296.38312	0.02702
2295.09736	0.02680
2293.81159	0.02679
2292.52582	0.02693
2291.24005	0.02703
2289.95428	0.02693
2288.66851	0.02660
2287.38274	0.02620
2286.09697	0.02592
2284.81121	0.02577
2283.52544	0.02560
2282.23967	0.02537
2280.95390	0.02521
2279.66813	0.02525
2278.38236	0.02553
2277.09659	0.02594
2275.81082	0.02626
2274.52505	0.02623
2273.23929	0.02573
2271.95352	0.02498
2270.66775	0.02430
2269.38198	0.02385
2268.09621	0.02347
2266.81044	0.02309
2265.52467	0.02275
2264.23890	0.02257
2262.95314	0.02262
2261.66737	0.02287
2260.38160	0.02324
2259.09583	0.02354
2257.81006	0.02361
2256.52429	0.02334
2255.23852	0.02279
2253.95275	0.02220
2252.66698	0.02178
2251.38122	0.02168
2250.09545	0.02195
2248.80968	0.02246
2247.52391	0.02264
2246.23814	0.02274
2244.95237	0.02290
2243.66660	0.02311
2242.38083	0.02318
2241.09507	0.02309
2239.80930	0.02313
2238.52353	0.02350
2237.23776	0.02391
2235.95199	0.02390
2234.66622	0.02345
2233.38045	0.02292
2232.09468	0.02263
2230.80891	0.02252
2229.52315	0.02240
2228.23738	0.02231
2226.95161	0.02236
2225.66584	0.02253
2224.38007	0.02253
2223.09430	0.02219
2221.80853	0.02173
2220.52276	0.02141
2219.23700	0.02115
2217.95123	0.02068
2216.66546	0.01995
2215.37969	0.01922
2214.09392	0.01881
2212.80815	0.01888
2211.52238	0.01947
2210.23661	0.02039
2208.95084	0.02122
2207.66508	0.02153
2206.37931	0.02129
2205.09354	0.02090
2203.80777	0.02070
2202.52200	0.02053
2201.23623	0.01992
2199.95046	0.01878
2198.66469	0.01763
2197.37893	0.01712
2196.09316	0.01733
2194.80739	0.01783
2193.52162	0.01820
2192.23585	0.01835
2190.95008	0.01830
2189.66431	0.01794
2188.37854	0.01716
2187.09277	0.01616
2185.80701	0.01525
2184.52124	0.01459
2183.23547	0.01430
2181.94970	0.01457
2180.66393	0.01546
2179.37816	0.01661
2178.09239	0.01739
2176.80662	0.01751
2175.52085	0.01726
2174.23509	0.01704
2172.94932	0.01692
2171.66355	0.01659
2170.37778	0.01589
2169.09201	0.01498
2167.80624	0.01421
2166.52047	0.01376
2165.23470	0.01352
2163.94894	0.01323
2162.66317	0.01287
2161.37740	0.01265
2160.09163	0.01288
2158.80586	0.01343
2157.52009	0.01373
2156.23432	0.01340
2154.94855	0.01288
2153.66278	0.01288
2152.37702	0.01351
2151.09125	0.01427
2149.80548	0.01490
2148.51971	0.01556
2147.23394	0.01619
2145.94817	0.01632
2144.66240	0.01578
2143.37663	0.01510
2142.09087	0.01491
2140.80510	0.01524
2139.51933	0.01568
2138.23356	0.01608
2136.94779	0.01663
2135.66202	0.01740
2134.37625	0.01806
2133.09048	0.01830
2131.80471	0.01821
2130.51895	0.01810
2129.23318	0.01812
2127.94741	0.01813
2126.66164	0.01812
2125.37587	0.01830
2124.09010	0.01878
2122.80433	0.01940
2121.51856	0.01987
2120.23280	0.02015
2118.94703	0.02035
2117.66126	0.02053
2116.37549	0.02064
2115.08972	0.02053
2113.80395	0.02014
2112.51818	0.01961
2111.23241	0.01923
2109.94664	0.01926
2108.66088	0.01971
2107.37511	0.02031
2106.08934	0.02074
2104.80357	0.02083
2103.51780	0.02063
2102.23203	0.02032
2100.94626	0.02004
2099.66049	0.01970
2098.37473	0.01922
2097.08896	0.01868
2095.80319	0.01830
2094.51742	0.01833
2093.23165	0.01877
2091.94588	0.01932
2090.66011	0.01952
2089.37434	0.01919
2088.08857	0.01860
2086.80281	0.01821
2085.51704	0.01825
2084.23127	0.01862
2082.94550	0.01904
2081.65973	0.01932
2080.37396	0.01935
2079.08819	0.01904
2077.80242	0.01849
2076.51666	0.01794
2075.23089	0.01765
2073.94512	0.01766
2072.65935	0.01788
2071.37358	0.01809
2070.08781	0.01803
2068.80204	0.01753
2067.51627	0.01675
2066.23050	0.01619
2064.94474	0.01618
2063.65897	0.01660
2062.37320	0.01697
2061.08743	0.01691
2059.80166	0.01645
2058.51589	0.01590
2057.23012	0.01554
2055.94435	0.01536
2054.65859	0.01518
2053.37282	0.01478
2052.08705	0.01422
2050.80128	0.01376
2049.51551	0.01364
2048.22974	0.01382
2046.94397	0.01402
2045.65820	0.01403
2044.37243	0.01398
2043.08667	0.01402
2041.80090	0.01412
2040.51513	0.01405
2039.22936	0.01366
2037.94359	0.01311
2036.65782	0.01270
2035.37205	0.01266
2034.08628	0.01287
2032.80052	0.01293
2031.51475	0.01256
2030.22898	0.01201
2028.94321	0.01187
2027.65744	0.01251
2026.37167	0.01372
2025.08590	0.01498
2023.80013	0.01588
2022.51436	0.01610
2021.22860	0.01548
2019.94283	0.01426
2018.65706	0.01305
2017.37129	0.01239
2016.08552	0.01240
2014.79975	0.01293
2013.51398	0.01377
2012.22821	0.01462
2010.94245	0.01515
2009.65668	0.01518
2008.37091	0.01486
2007.08514	0.01438
2005.79937	0.01387
2004.51360	0.01350
2003.22783	0.01347
2001.94206	0.01379
2000.65629	0.01420
1999.37053	0.01447
1998.08476	0.01460
1996.79899	0.01474
1995.51322	0.01503
1994.22745	0.01550
1992.94168	0.01600
1991.65591	0.01631
1990.37014	0.01638
1989.08438	0.01644
1987.79861	0.01667
1986.51284	0.01691
1985.22707	0.01681
1983.94130	0.01628
1982.65553	0.01557
1981.36976	0.01503
1980.08399	0.01477
1978.79822	0.01464
1977.51246	0.01441
1976.22669	0.01393
1974.94092	0.01336
1973.65515	0.01305
1972.36938	0.01326
1971.08361	0.01393
1969.79784	0.01475
1968.51207	0.01535
1967.22631	0.01552
1965.94054	0.01523
1964.65477	0.01462
1963.36900	0.01389
1962.08323	0.01332
1960.79746	0.01320
1959.51169	0.01363
1958.22592	0.01438
1956.94015	0.01507
1955.65439	0.01545
1954.36862	0.01551
1953.08285	0.01540
1951.79708	0.01527
1950.51131	0.01525
1949.22554	0.01532
1947.93977	0.01539
1946.65400	0.01537
1945.36823	0.01533
1944.08247	0.01537
1942.79670	0.01555
1941.51093	0.01585
1940.22516	0.01619
1938.93939	0.01649
1937.65362	0.01669
1936.36785	0.01678
1935.08208	0.01673
1933.79632	0.01648
1932.51055	0.01602
1931.22478	0.01557
1929.93901	0.01545
1928.65324	0.01573
1927.36747	0.01622
1926.08170	0.01663
1924.79593	0.01684
1923.51016	0.01694
1922.22440	0.01701
1920.93863	0.01709
1919.65286	0.01714
1918.36709	0.01717
1917.08132	0.01718
1915.79555	0.01722
1914.50978	0.01726
1913.22401	0.01726
1911.93825	0.01723
1910.65248	0.01719
1909.36671	0.01720
1908.08094	0.01725
1906.79517	0.01732
1905.50940	0.01740
1904.22363	0.01750
1902.93786	0.01763
1901.65209	0.01772
1900.36633	0.01771
1899.08056	0.01762
1897.79479	0.01751
1896.50902	0.01742
1895.22325	0.01736
1893.93748	0.01733
1892.65171	0.01733
1891.36594	0.01732
1890.08018	0.01724
1888.79441	0.01708
1887.50864	0.01694
1886.22287	0.01695
1884.93710	0.01710
1883.65133	0.01727
1882.36556	0.01728
1881.07979	0.01705
1879.79402	0.01670
1878.50826	0.01648
1877.22249	0.01652
1875.93672	0.01683
1874.65095	0.01725
1873.36518	0.01762
1872.07941	0.01783
1870.79364	0.01785
1869.50787	0.01772
1868.22211	0.01756
1866.93634	0.01744
1865.65057	0.01735
1864.36480	0.01720
1863.07903	0.01701
1861.79326	0.01687
1860.50749	0.01684
1859.22172	0.01684
1857.93595	0.01676
1856.65019	0.01665
1855.36442	0.01664
1854.07865	0.01675
1852.79288	0.01687
1851.50711	0.01693
1850.22134	0.01696
1848.93557	0.01702
1847.64980	0.01711
1846.36404	0.01712
1845.07827	0.01702
1843.79250	0.01688
1842.50673	0.01674
1841.22096	0.01664
1839.93519	0.01655
1838.64942	0.01647
1837.36365	0.01638
1836.07788	0.01632
1834.79212	0.01631
1833.50635	0.01638
1832.22058	0.01649
1830.93481	0.01664
1829.64904	0.01680
1828.36327	0.01696
1827.07750	0.01709
1825.79173	0.01715
1824.50597	0.01711
1823.22020	0.01698
1821.93443	0.01680
1820.64866	0.01660
1819.36289	0.01642
1818.07712	0.01629
1816.79135	0.01626
1815.50558	0.01635
1814.21981	0.01653
1812.93405	0.01669
1811.64828	0.01674
1810.36251	0.01668
1809.07674	0.01653
1807.79097	0.01634
1806.50520	0.01618
1805.21943	0.01604
1803.93366	0.01598
1802.64790	0.01601
1801.36213	0.01613
1800.07636	0.01626
1798.79059	0.01632
1797.50482	0.01632
1796.21905	0.01634
1794.93328	0.01644
1793.64751	0.01661
1792.36174	0.01674
1791.07598	0.01675
1789.79021	0.01664
1788.50444	0.01646
1787.21867	0.01631
1785.93290	0.01624
1784.64713	0.01624
1783.36136	0.01627
1782.07559	0.01630
1780.78983	0.01632
1779.50406	0.01635
1778.21829	0.01639
1776.93252	0.01642
1775.64675	0.01644
1774.36098	0.01646
1773.07521	0.01649
1771.78944	0.01653
1770.50367	0.01658
1769.21791	0.01662
1767.93214	0.01662
1766.64637	0.01661
1765.36060	0.01661
1764.07483	0.01666
1762.78906	0.01673
1761.50329	0.01681
1760.21752	0.01689
1758.93176	0.01700
1757.64599	0.01715
1756.36022	0.01736
1755.07445	0.01764
1753.78868	0.01795
1752.50291	0.01828
1751.21714	0.01860
1749.93137	0.01891
1748.64560	0.01922
1747.35984	0.01952
1746.07407	0.01984
1744.78830	0.02019
1743.50253	0.02061
1742.21676	0.02112
1740.93099	0.02168
1739.64522	0.02223
1738.35945	0.02272
1737.07369	0.02315
1735.78792	0.02353
1734.50215	0.02384
1733.21638	0.02413
1731.93061	0.02441
1730.64484	0.02472
1729.35907	0.02502
1728.07330	0.02527
1726.78753	0.02552
1725.50177	0.02587
1724.21600	0.02630
1722.93023	0.02673
1721.64446	0.02708
1720.35869	0.02739
1719.07292	0.02773
1717.78715	0.02810
1716.50138	0.02843
1715.21561	0.02870
1713.92985	0.02896
1712.64408	0.02931
1711.35831	0.02978
1710.07254	0.03036
1708.78677	0.03100
1707.50100	0.03170
1706.21523	0.03248
1704.92946	0.03335
1703.64370	0.03436
1702.35793	0.03557
1701.07216	0.03696
1699.78639	0.03846
1698.50062	0.04002
1697.21485	0.04160
1695.92908	0.04319
1694.64331	0.04474
1693.35754	0.04625
1692.07178	0.04774
1690.78601	0.04929
1689.50024	0.05092
1688.21447	0.05269
1686.92870	0.05458
1685.64293	0.05656
1684.35716	0.05851
1683.07139	0.06034
1681.78563	0.06209
1680.49986	0.06392
1679.21409	0.06592
1677.92832	0.06813
1676.64255	0.07046
1675.35678	0.07283
1674.07101	0.07517
1672.78524	0.07750
1671.49947	0.07991
1670.21371	0.08241
1668.92794	0.08491
1667.64217	0.08728
1666.35640	0.08951
1665.07063	0.09169
1663.78486	0.09390
1662.49909	0.09612
1661.21332	0.09825
1659.92756	0.10025
1658.64179	0.10211
1657.35602	0.10393
1656.07025	0.10578
1654.78448	0.10766
1653.49871	0.10944
1652.21294	0.11092
1650.92717	0.11203
1649.64140	0.11289
1648.35564	0.11366
1647.06987	0.11437
1645.78410	0.11502
1644.49833	0.11559
1643.21256	0.11615
1641.92679	0.11672
1640.64102	0.11734
1639.35525	0.11797
1638.06949	0.11859
1636.78372	0.11913
1635.49795	0.11954
1634.21218	0.11981
1632.92641	0.11997
1631.64064	0.12002
1630.35487	0.11994
1629.06910	0.11965
1627.78333	0.11914
1626.49757	0.11840
1625.21180	0.11744
1623.92603	0.11623
1622.64026	0.11472
1621.35449	0.11290
1620.06872	0.11082
1618.78295	0.10857
1617.49718	0.10621
1616.21142	0.10373
1614.92565	0.10110
1613.63988	0.09834
1612.35411	0.09553
1611.06834	0.09278
1609.78257	0.09014
1608.49680	0.08760
1607.21103	0.08514
1605.92526	0.08278
1604.63950	0.08051
1603.35373	0.07833
1602.06796	0.07624
1600.78219	0.07427
1599.49642	0.07243
1598.21065	0.07073
1596.92488	0.06920
1595.63911	0.06783
1594.35335	0.06656
1593.06758	0.06539
1591.78181	0.06429
1590.49604	0.06330
1589.21027	0.06245
1587.92450	0.06174
1586.63873	0.06120
1585.35296	0.06081
1584.06719	0.06053
1582.78143	0.06034
1581.49566	0.06024
1580.20989	0.06028
1578.92412	0.06053
1577.63835	0.06100
1576.35258	0.06165
1575.06681	0.06238
1573.78104	0.06316
1572.49528	0.06397
1571.20951	0.06487
1569.92374	0.06588
1568.63797	0.06702
1567.35220	0.06825
1566.06643	0.06957
1564.78066	0.07097
1563.49489	0.07248
1562.20912	0.07413
1560.92336	0.07590
1559.63759	0.07771
1558.35182	0.07943
1557.06605	0.08100
1555.78028	0.08243
1554.49451	0.08381
1553.20874	0.08517
1551.92297	0.08651
1550.63721	0.08783
1549.35144	0.08910
1548.06567	0.09034
1546.77990	0.09153
1545.49413	0.09266
1544.20836	0.09370
1542.92259	0.09465
1541.63682	0.09549
1540.35105	0.09619
1539.06529	0.09670
1537.77952	0.09703
1536.49375	0.09726
1535.20798	0.09747
1533.92221	0.09769
1532.63644	0.09786
1531.35067	0.09793
1530.06490	0.09789
1528.77914	0.09777
1527.49337	0.09762
1526.20760	0.09747
1524.92183	0.09733
1523.63606	0.09720
1522.35029	0.09702
1521.06452	0.09677
1519.77875	0.09645
1518.49298	0.09610
1517.20722	0.09570
1515.92145	0.09518
1514.63568	0.09444
1513.34991	0.09345
1512.06414	0.09226
1510.77837	0.09094
1509.49260	0.08953
1508.20683	0.08806
1506.92107	0.08651
1505.63530	0.08483
1504.34953	0.08303
1503.06376	0.08118
1501.77799	0.07939
1500.49222	0.07774
1499.20645	0.07616
1497.92068	0.07457
1496.63491	0.07287
1495.34915	0.07107
1494.06338	0.06926
1492.77761	0.06750
1491.49184	0.06582
1490.20607	0.06422
1488.92030	0.06271
1487.63453	0.06133
1486.34876	0.06011
1485.06299	0.05902
1483.77723	0.05807
1482.49146	0.05727
1481.20569	0.05662
1479.91992	0.05615
1478.63415	0.05588
1477.34838	0.05580
1476.06261	0.05596
1474.77684	0.05636
1473.49108	0.05696
1472.20531	0.05771
1470.91954	0.05851
1469.63377	0.05927
1468.34800	0.05997
1467.06223	0.06059
1465.77646	0.06115
1464.49069	0.06167
1463.20492	0.06218
1461.91916	0.06275
1460.63339	0.06340
1459.34762	0.06416
1458.06185	0.06496
1456.77608	0.06569
1455.49031	0.06627
1454.20454	0.06669
1452.91877	0.06699
1451.63301	0.06721
1450.34724	0.06735
1449.06147	0.06741
1447.77570	0.06736
1446.48993	0.06719
1445.20416	0.06694
1443.91839	0.06661
1442.63262	0.06624
1441.34685	0.06583
1440.06109	0.06539
1438.77532	0.06492
1437.48955	0.06440
1436.20378	0.06380
1434.91801	0.06313
1433.63224	0.06243
1432.34647	0.06174
1431.06070	0.06109
1429.77494	0.06048
1428.48917	0.05992
1427.20340	0.05946
1425.91763	0.05911
1424.63186	0.05887
1423.34609	0.05872
1422.06032	0.05865
1420.77455	0.05869
1419.48878	0.05881
1418.20302	0.05895
1416.91725	0.05905
1415.63148	0.05912
1414.34571	0.05919
1413.05994	0.05929
1411.77417	0.05939
1410.48840	0.05947
1409.20263	0.05949
1407.91687	0.05945
1406.63110	0.05938
1405.34533	0.05930
1404.05956	0.05926
1402.77379	0.05926
1401.48802	0.05928
1400.20225	0.05924
1398.91648	0.05914
1397.63071	0.05900
1396.34495	0.05890
1395.05918	0.05887
1393.77341	0.05887
1392.48764	0.05887
1391.20187	0.05887
1389.91610	0.05890
1388.63033	0.05895
1387.34456	0.05899
1386.05880	0.05895
1384.77303	0.05882
1383.48726	0.05865
1382.20149	0.05851
1380.91572	0.05841
1379.62995	0.05833
1378.34418	0.05824
1377.05841	0.05811
1375.77264	0.05791
1374.48688	0.05762
1373.20111	0.05724
1371.91534	0.05682
1370.62957	0.05640
1369.34380	0.05599
1368.05803	0.05556
1366.77226	0.05510
1365.48649	0.05461
1364.20073	0.05414
1362.91496	0.05370
1361.62919	0.05328
1360.34342	0.05287
1359.05765	0.05249
1357.77188	0.05219
1356.48611	0.05198
1355.20034	0.05186
1353.91457	0.05184
1352.62881	0.05190
1351.34304	0.05200
1350.05727	0.05213
1348.77150	0.05228
1347.48573	0.05248
1346.19996	0.05269
1344.91419	0.05291
1343.62842	0.05312
1342.34266	0.05333
1341.05689	0.05355
1339.77112	0.05378
1338.48535	0.05396
1337.19958	0.05406
1335.91381	0.05407
1334.62804	0.05397
1333.34227	0.05375
1332.05650	0.05345
1330.77074	0.05310
1329.48497	0.05277
1328.19920	0.05249
1326.91343	0.05228
1325.62766	0.05211
1324.34189	0.05195
1323.05612	0.05178
1321.77035	0.05159
1320.48459	0.05140
1319.19882	0.05124
1317.91305	0.05112
1316.62728	0.05108
1315.34151	0.05108
1314.05574	0.05108
1312.76997	0.05105
1311.48420	0.05099
1310.19843	0.05092
1308.91267	0.05083
1307.62690	0.05071
1306.34113	0.05057
1305.05536	0.05046
1303.76959	0.05041
1302.48382	0.05040
1301.19805	0.05040
1299.91228	0.05040
1298.62652	0.05036
1297.34075	0.05032
1296.05498	0.05030
1294.76921	0.05035
1293.48344	0.05047
1292.19767	0.05064
1290.91190	0.05083
1289.62613	0.05103
1288.34036	0.05128
1287.05460	0.05156
1285.76883	0.05188
1284.48306	0.05220
1283.19729	0.05250
1281.91152	0.05274
1280.62575	0.05290
1279.33998	0.05299
1278.05421	0.05307
1276.76845	0.05316
1275.48268	0.05327
1274.19691	0.05337
1272.91114	0.05346
1271.62537	0.05357
1270.33960	0.05373
1269.05383	0.05393
1267.76806	0.05418
1266.48229	0.05445
1265.19653	0.05472
1263.91076	0.05498
1262.62499	0.05527
1261.33922	0.05560
1260.05345	0.05598
1258.76768	0.05638
1257.48191	0.05677
1256.19614	0.05713
1254.91037	0.05746
1253.62461	0.05779
1252.33884	0.05814
1251.05307	0.05857
1249.76730	0.05908
1248.48153	0.05966
1247.19576	0.06026
1245.90999	0.06088
1244.62422	0.06149
1243.33846	0.06208
1242.05269	0.06265
1240.76692	0.06317
1239.48115	0.06360
1238.19538	0.06392
1236.90961	0.06413
1235.62384	0.06427
1234.33807	0.06439
1233.05230	0.06452
1231.76654	0.06461
1230.48077	0.06463
1229.19500	0.06453
1227.90923	0.06431
1226.62346	0.06398
1225.33769	0.06359
1224.05192	0.06317
1222.76615	0.06272
1221.48039	0.06223
1220.19462	0.06171
1218.90885	0.06115
1217.62308	0.06060
1216.33731	0.06009
1215.05154	0.05968
1213.76577	0.05939
1212.48000	0.05922
1211.19423	0.05909
1209.90847	0.05894
1208.62270	0.05879
1207.33693	0.05864
1206.05116	0.05851
1204.76539	0.05839
1203.47962	0.05825
1202.19385	0.05806
1200.90808	0.05781
1199.62232	0.05749
1198.33655	0.05709
1197.05078	0.05666
1195.76501	0.05622
1194.47924	0.05580
1193.19347	0.05541
1191.90770	0.05504
1190.62193	0.05467
1189.33616	0.05429
1188.05040	0.05392
1186.76463	0.05357
1185.47886	0.05328
1184.19309	0.05305
1182.90732	0.05285
1181.62155	0.05270
1180.33578	0.05265
1179.05001	0.05269
1177.76425	0.05274
1176.47848	0.05270
1175.19271	0.05259
1173.90694	0.05248
1172.62117	0.05245
1171.33540	0.05250
1170.04963	0.05256
1168.76386	0.05255
1167.47809	0.05244
1166.19233	0.05228
1164.90656	0.05212
1163.62079	0.05201
1162.33502	0.05193
1161.04925	0.05188
1159.76348	0.05185
1158.47771	0.05180
1157.19194	0.05167
1155.90618	0.05140
1154.62041	0.05106
1153.33464	0.05072
1152.04887	0.05042
1150.76310	0.05008
1149.47733	0.04962
1148.19156	0.04904
1146.90579	0.04845
1145.62002	0.04795
1144.33426	0.04760
1143.04849	0.04734
1141.76272	0.04711
1140.47695	0.04687
1139.19118	0.04659
1137.90541	0.04626
1136.61964	0.04594
1135.33387	0.04570
1134.04811	0.04556
1132.76234	0.04549
1131.47657	0.04539
1130.19080	0.04522
1128.90503	0.04505
1127.61926	0.04493
1126.33349	0.04486
1125.04772	0.04480
1123.76195	0.04472
1122.47619	0.04462
1121.19042	0.04452
1119.90465	0.04443
1118.61888	0.04436
1117.33311	0.04435
1116.04734	0.04438
1114.76157	0.04444
1113.47580	0.04450
1112.19004	0.04455
1110.90427	0.04459
1109.61850	0.04464
1108.33273	0.04471
1107.04696	0.04480
1105.76119	0.04492
1104.47542	0.04503
1103.18965	0.04517
1101.90388	0.04539
1100.61812	0.04571
1099.33235	0.04608
1098.04658	0.04639
1096.76081	0.04659
1095.47504	0.04675
1094.18927	0.04694
1092.90350	0.04723
1091.61773	0.04764
1090.33197	0.04814
1089.04620	0.04871
1087.76043	0.04933
1086.47466	0.04998
1085.18889	0.05058
1083.90312	0.05107
1082.61735	0.05143
1081.33158	0.05169
1080.04581	0.05192
1078.76005	0.05214
1077.47428	0.05231
1076.18851	0.05242
1074.90274	0.05247
1073.61697	0.05251
1072.33120	0.05255
1071.04543	0.05259
1069.75966	0.05266
1068.47390	0.05276
1067.18813	0.05289
1065.90236	0.05302
1064.61659	0.05314
1063.33082	0.05323
1062.04505	0.05326
1060.75928	0.05321
1059.47351	0.05310
1058.18774	0.05303
1056.90198	0.05301
1055.61621	0.05301
1054.33044	0.05297
1053.04467	0.05291
1051.75890	0.05283
1050.47313	0.05269
1049.18736	0.05249
1047.90159	0.05231
1046.61583	0.05223
1045.33006	0.05224
1044.04429	0.05225
1042.75852	0.05221
1041.47275	0.05213
1040.18698	0.05208
1038.90121	0.05208
1037.61544	0.05207
1036.32967	0.05203
1035.04391	0.05192
1033.75814	0.05180
1032.47237	0.05168
1031.18660	0.05155
1029.90083	0.05140
1028.61506	0.05120
1027.32929	0.05093
1026.04352	0.05056
1024.75775	0.05008
1023.47199	0.04952
1022.18622	0.04896
1020.90045	0.04844
1019.61468	0.04801
1018.32891	0.04767
1017.04314	0.04741
1015.75737	0.04716
1014.47160	0.04684
1013.18584	0.04642
1011.90007	0.04594
1010.61430	0.04545
1009.32853	0.04501
1008.04276	0.04462
1006.75699	0.04427
1005.47122	0.04392
1004.18545	0.04357
1002.89968	0.04318
1001.61392	0.04276
1000.32815	0.04233
999.04238	0.04193
997.75661	0.04159
996.47084	0.04135
995.18507	0.04115
993.89930	0.04093
992.61353	0.04066
991.32777	0.04029
990.04200	0.03986
988.75623	0.03942
987.47046	0.03906
986.18469	0.03880
984.89892	0.03857
983.61315	0.03829
982.32738	0.03795
981.04161	0.03767
979.75585	0.03755
978.47008	0.03759
977.18431	0.03770
975.89854	0.03777
974.61277	0.03775
973.32700	0.03763
972.04123	0.03745
970.75546	0.03726
969.46970	0.03705
968.18393	0.03680
966.89816	0.03654
965.61239	0.03630
964.32662	0.03614
963.04085	0.03608
961.75508	0.03608
960.46931	0.03607
959.18354	0.03596
957.89778	0.03572
956.61201	0.03541
955.32624	0.03514
954.04047	0.03497
952.75470	0.03488
951.46893	0.03480
950.18316	0.03472
948.89739	0.03467
947.61163	0.03465
946.32586	0.03460
945.04009	0.03446
943.75432	0.03426
942.46855	0.03405
941.18278	0.03389
939.89701	0.03380
938.61124	0.03378
937.32547	0.03383
936.03971	0.03391
934.75394	0.03398
933.46817	0.03400
932.18240	0.03395
930.89663	0.03381
929.61086	0.03360
928.32509	0.03341
927.03932	0.03330
925.75356	0.03327
924.46779	0.03325
923.18202	0.03316
921.89625	0.03301
920.61048	0.03284
919.32471	0.03272
918.03894	0.03263
916.75317	0.03252
915.46740	0.03237
914.18164	0.03217
912.89587	0.03195
911.61010	0.03172
910.32433	0.03156
909.03856	0.03153
907.75279	0.03159
906.46702	0.03165
905.18125	0.03163
903.89549	0.03152
902.60972	0.03137
901.32395	0.03118
900.03818	0.03098
898.75241	0.03076
897.46664	0.03056
896.18087	0.03037
894.89510	0.03020
893.60933	0.03006
892.32357	0.02995
891.03780	0.02985
889.75203	0.02976
888.46626	0.02969
887.18049	0.02966
885.89472	0.02967
884.60895	0.02969
883.32318	0.02969
882.03742	0.02961
880.75165	0.02944
879.46588	0.02920
878.18011	0.02903
876.89434	0.02903
875.60857	0.02915
874.32280	0.02922
873.03703	0.02915
871.75126	0.02896
870.46550	0.02879
869.17973	0.02872
867.89396	0.02874
866.60819	0.02878
865.32242	0.02880
864.03665	0.02876
862.75088	0.02865
861.46511	0.02852
860.17935	0.02843
858.89358	0.02838
857.60781	0.02835
856.32204	0.02831
855.03627	0.02830
853.75050	0.02832
852.46473	0.02836
851.17896	0.02839
849.89319	0.02843
848.60743	0.02846
847.32166	0.02846
846.03589	0.02843
844.75012	0.02838
843.46435	0.02833
842.17858	0.02830
840.89281	0.02828
839.60704	0.02828
838.32128	0.02831
837.03551	0.02837
835.74974	0.02841
834.46397	0.02841
833.17820	0.02839
831.89243	0.02839
830.60666	0.02842
829.32089	0.02847
828.03512	0.02852
826.74936	0.02859
825.46359	0.02868
824.17782	0.02875
822.89205	0.02880
821.60628	0.02888
820.32051	0.02897
819.03474	0.02904
817.74897	0.02909
816.46321	0.02914
815.17744	0.02920
813.89167	0.02924
812.60590	0.02927
811.32013	0.02934
810.03436	0.02946
808.74859	0.02958
807.46282	0.02969
806.17705	0.02980
804.89129	0.02990
803.60552	0.02997
802.31975	0.03002
801.03398	0.03003
799.74821	0.03001
798.46244	0.02994
797.17667	0.02989
795.89090	0.02992
794.60513	0.03006
793.31937	0.03029
792.03360	0.03056
790.74783	0.03077
789.46206	0.03087
788.17629	0.03087
786.89052	0.03086
785.60475	0.03091
784.31898	0.03101
783.03322	0.03106
781.74745	0.03105
780.46168	0.03103
779.17591	0.03107
777.89014	0.03119
776.60437	0.03129
775.31860	0.03133
774.03283	0.03137
772.74706	0.03151
771.46130	0.03171
770.17553	0.03190
768.88976	0.03205
767.60399	0.03221
766.31822	0.03240
765.03245	0.03258
763.74668	0.03271
762.46091	0.03281
761.17515	0.03292
759.88938	0.03304
758.60361	0.03314
757.31784	0.03321
756.03207	0.03324
754.74630	0.03322
753.46053	0.03317
752.17476	0.03317
750.88899	0.03329
749.60323	0.03356
748.31746	0.03392
747.03169	0.03427
745.74592	0.03460
744.46015	0.03490
743.17438	0.03513
741.88861	0.03526
740.60284	0.03524
739.31708	0.03514
738.03131	0.03508
736.74554	0.03521
735.45977	0.03548
734.17400	0.03575
732.88823	0.03586
731.60246	0.03584
730.31669	0.03582
729.03092	0.03589
727.74516	0.03605
726.45939	0.03626
725.17362	0.03650
723.88785	0.03669
722.60208	0.03699
721.31631	0.03732
720.03054	0.03759
718.74477	0.03782
717.45901	0.03797
716.17324	0.03803
714.88747	0.03805
713.60170	0.03806
712.31593	0.03811
711.03016	0.03822
709.74439	0.03837
708.45862	0.03856
707.17285	0.03878
705.88709	0.03901
704.60132	0.03924
703.31555	0.03946
702.02978	0.03969
700.74401	0.03994
699.45824	0.04017
698.17247	0.04036
696.88670	0.04047
695.60094	0.04052
694.31517	0.04051
693.02940	0.04046
691.74363	0.04040
690.45786	0.04038
689.17209	0.04041
687.88632	0.04047
686.60055	0.04054
685.31478	0.04059
684.02902	0.04060
682.74325	0.04060
681.45748	0.04061
680.17171	0.04067
678.88594	0.04077
677.60017	0.04093
676.31440	0.04112
675.02863	0.04131
673.74287	0.04152
672.45710	0.04178
671.17133	0.04205
669.88556	0.04201
668.59979	0.04155
667.31402	0.04159
666.02825	0.04228
664.74248	0.04247
663.45671	0.04232
662.17095	0.04218
660.88518	0.04214
659.59941	0.04221
658.31364	0.04234
657.02787	0.04250
655.74210	0.04264
654.45633	0.04274
653.17056	0.04283
651.88480	0.04292
650.59903	0.04300
649.31326	0.04304
648.02749	0.04304
646.74172	0.04299
645.45595	0.04293
644.17018	0.04294
642.88441	0.04303
641.59864	0.04315
640.31288	0.04324
639.02711	0.04326
637.74134	0.04319
636.45557	0.04308
635.16980	0.04301
633.88403	0.04304
632.59826	0.04314
631.31249	0.04328
630.02673	0.04340
628.74096	0.04347
627.45519	0.04349
626.16942	0.04328
624.88365	0.04263
623.59788	0.04157
622.31211	0.04046
621.02634	0.03987
619.74057	0.04009
618.45481	0.04102
617.16904	0.04213
615.88327	0.04253
614.59750	0.04166
613.31173	0.03984
612.02596	0.03813
610.74019	0.03752
609.45442	0.03830
608.16866	0.04003
606.88289	0.04201
605.59712	0.04366
604.31135	0.04461
603.02558	0.04487
601.73981	0.04481
600.45404	0.04481
599.16827	0.04493
597.88250	0.04507
596.59674	0.04512
595.31097	0.04507
594.02520	0.04495
592.73943	0.04479
591.45366	0.04466
590.16789	0.04462
588.88212	0.04465
587.59635	0.04470
586.31059	0.04469
585.02482	0.04468
583.73905	0.04474
582.45328	0.04489
581.16751	0.04510
579.88174	0.04526
578.59597	0.04529
577.31020	0.04521
576.02443	0.04509
574.73867	0.04504
573.45290	0.04509
572.16713	0.04518
570.88136	0.04525
569.59559	0.04528
568.30982	0.04529
567.02405	0.04530
565.73828	0.04529
564.45251	0.04525
563.16675	0.04521
561.88098	0.04516
560.59521	0.04506
559.30944	0.04488
558.02367	0.04471
556.73790	0.04464
555.45213	0.04472
554.16636	0.04487
552.88060	0.04496
551.59483	0.04498
550.30906	0.04500
549.02329	0.04508
547.73752	0.04522
546.45175	0.04536
545.16598	0.04545
543.88021	0.04547
542.59444	0.04540
541.30868	0.04516
540.02291	0.04479
538.73714	0.04445
537.45137	0.04434
536.16560	0.04446
534.87983	0.04468
533.59406	0.04482
532.30829	0.04484
531.02253	0.04481
529.73676	0.04484
528.45099	0.04494
527.16522	0.04504
525.87945	0.04506
524.59368	0.04497
523.30791	0.04481
522.02214	0.04466
520.73637	0.04450
519.45061	0.04431
518.16484	0.04411
516.87907	0.04399
515.59330	0.04403
514.30753	0.04417
513.02176	0.04430
511.73599	0.04431
510.45022	0.04418
509.16446	0.04398
507.87869	0.04379
506.59292	0.04367
505.30715	0.04361
504.02138	0.04352
502.73561	0.04328
501.44984	0.04290
500.16407	0.04255
498.87830	0.04237
497.59254	0.04236
496.30677	0.04241
495.02100	0.04238
493.73523	0.04221
492.44946	0.04197
491.16369	0.04173
489.87792	0.04157
488.59215	0.04145
487.30639	0.04133
486.02062	0.04120
484.73485	0.04108
483.44908	0.04101
482.16331	0.04094
480.87754	0.04081
479.59177	0.04067
478.30600	0.04058
477.02023	0.04056
475.73447	0.04055
474.44870	0.04049
473.16293	0.04034
471.87716	0.04011
470.59139	0.03981
469.30562	0.03950
468.01985	0.03930
466.73408	0.03929
465.44832	0.03940
464.16255	0.03943
462.87678	0.03927
461.59101	0.03897
460.30524	0.03868
459.01947	0.03846
457.73370	0.03829
456.44793	0.03812
455.16216	0.03792
453.87640	0.03772
452.59063	0.03754
451.30486	0.03741
450.01909	0.03728
448.73332	0.03708
447.44755	0.03679
446.16178	0.03650
444.87601	0.03629
443.59025	0.03619
442.30448	0.03609
441.01871	0.03592
439.73294	0.03565
438.44717	0.03535
437.16140	0.03509
435.87563	0.03494
434.58986	0.03488
433.30409	0.03486
432.01833	0.03485
430.73256	0.03482
429.44679	0.03477
428.16102	0.03469
426.87525	0.03461
425.58948	0.03453
424.30371	0.03444
423.01794	0.03430
421.73218	0.03410
420.44641	0.03387
419.16064	0.03366
417.87487	0.03352
416.58910	0.03342
415.30333	0.03330
414.01756	0.03314
412.73179	0.03296
411.44602	0.03278
410.16026	0.03261
408.87449	0.03244
407.58872	0.03225
406.30295	0.03204
405.01718	0.03183
403.73141	0.03167
402.44564	0.03161
401.15987	0.03163
399.87411	0.03167
