3997.45528	0.05773
3996.16951	0.05756
3994.88374	0.05763
3993.59798	0.05786
3992.31221	0.05799
3991.02644	0.05790
3989.74067	0.05776
3988.45490	0.05776
3987.16913	0.05792
3985.88336	0.05812
3984.59759	0.05818
3983.31183	0.05805
3982.02606	0.05787
3980.74029	0.05780
3979.45452	0.05791
3978.16875	0.05810
3976.88298	0.05824
3975.59721	0.05831
3974.31144	0.05841
3973.02567	0.05857
3971.73991	0.05879
3970.45414	0.05899
3969.16837	0.05903
3967.88260	0.05867
3966.59683	0.05777
3965.31106	0.05651
3964.02529	0.05531
3962.73952	0.05458
3961.45376	0.05446
3960.16799	0.05484
3958.88222	0.05548
3957.59645	0.05610
3956.31068	0.05650
3955.02491	0.05664
3953.73914	0.05665
3952.45337	0.05666
3951.16760	0.05680
3949.88184	0.05708
3948.59607	0.05739
3947.31030	0.05756
3946.02453	0.05754
3944.73876	0.05755
3943.45299	0.05781
3942.16722	0.05824
3940.88145	0.05848
3939.59569	0.05837
3938.30992	0.05804
3937.02415	0.05770
3935.73838	0.05744
3934.45261	0.05728
3933.16684	0.05729
3931.88107	0.05748
3930.59530	0.05768
3929.30953	0.05773
3928.02377	0.05758
3926.73800	0.05736
3925.45223	0.05714
3924.16646	0.05696
3922.88069	0.05681
3921.59492	0.05673
3920.30915	0.05665
3919.02338	0.05644
3917.73762	0.05597
3916.45185	0.05538
3915.16608	0.05502
3913.88031	0.05515
3912.59454	0.05563
3911.30877	0.05609
3910.02300	0.05632
3908.73723	0.05641
3907.45146	0.05653
3906.16570	0.05667
3904.87993	0.05664
3903.59416	0.05636
3902.30839	0.05583
3901.02262	0.05513
3899.73685	0.05443
3898.45108	0.05397
3897.16531	0.05392
3895.87955	0.05422
3894.59378	0.05461
3893.30801	0.05490
3892.02224	0.05505
3890.73647	0.05510
3889.45070	0.05512
3888.16493	0.05518
3886.87916	0.05532
3885.59339	0.05553
3884.30763	0.05567
3883.02186	0.05559
3881.73609	0.05517
3880.45032	0.05439
3879.16455	0.05342
3877.87878	0.05268
3876.59301	0.05262
3875.30724	0.05338
3874.02148	0.05458
3872.73571	0.05561
3871.44994	0.05607
3870.16417	0.05596
3868.87840	0.05548
3867.59263	0.05481
3866.30686	0.05408
3865.02109	0.05341
3863.73532	0.05302
3862.44956	0.05304
3861.16379	0.05342
3859.87802	0.05391
3858.59225	0.05422
3857.30648	0.05421
3856.02071	0.05386
3854.73494	0.05327
3853.44917	0.05262
3852.16341	0.05220
3850.87764	0.05222
3849.59187	0.05262
3848.30610	0.05315
3847.02033	0.05362
3845.73456	0.05399
3844.44879	0.05428
3843.16302	0.05439
3841.87725	0.05422
3840.59149	0.05379
3839.30572	0.05327
3838.01995	0.05285
3836.73418	0.05262
3835.44841	0.05258
3834.16264	0.05264
3832.87687	0.05268
3831.59110	0.05253
3830.30534	0.05213
3829.01957	0.05164
3827.73380	0.05137
3826.44803	0.05144
3825.16226	0.05165
3823.87649	0.05176
3822.59072	0.05173
3821.30495	0.05172
3820.01918	0.05182
3818.73342	0.05197
3817.44765	0.05209
3816.16188	0.05227
3814.87611	0.05262
3813.59034	0.05308
3812.30457	0.05333
3811.01880	0.05306
3809.73303	0.05228
3808.44726	0.05138
3807.16150	0.05087
3805.87573	0.05100
3804.58996	0.05167
3803.30419	0.05255
3802.01842	0.05332
3800.73265	0.05376
3799.44688	0.05372
3798.16111	0.05329
3796.87535	0.05281
3795.58958	0.05259
3794.30381	0.05255
3793.01804	0.05236
3791.73227	0.05189
3790.44650	0.05140
3789.16073	0.05122
3787.87496	0.05138
3786.58919	0.05156
3785.30343	0.05142
3784.01766	0.05092
3782.73189	0.05031
3781.44612	0.04989
3780.16035	0.04977
3778.87458	0.04986
3777.58881	0.05004
3776.30304	0.05020
3775.01728	0.05025
3773.73151	0.05011
3772.44574	0.04973
3771.15997	0.04917
3769.87420	0.04862
3768.58843	0.04835
3767.30266	0.04855
3766.01689	0.04915
3764.73112	0.04990
3763.44536	0.05052
3762.15959	0.05088
3760.87382	0.05094
3759.58805	0.05069
3758.30228	0.05019
3757.01651	0.04963
3755.73074	0.04923
3754.44497	0.04905
3753.15921	0.04910
3751.87344	0.04938
3750.58767	0.04982
3749.30190	0.05018
3748.01613	0.05020
3746.73036	0.04983
3745.44459	0.04917
3744.15882	0.04837
3742.87305	0.04751
3741.58729	0.04678
3740.30152	0.04643
3739.01575	0.04663
3737.72998	0.04732
3736.44421	0.04822
3735.15844	0.04903
3733.87267	0.04966
3732.58690	0.05013
3731.30114	0.05042
3730.01537	0.05045
3728.72960	0.05017
3727.44383	0.04977
3726.15806	0.04960
3724.87229	0.04982
3723.58652	0.05012
3722.30075	0.04997
3721.01498	0.04917
3719.72922	0.04813
3718.44345	0.04745
3717.15768	0.04737
3715.87191	0.04756
3714.58614	0.04756
3713.30037	0.04725
3712.01460	0.04693
3710.72883	0.04693
3709.44307	0.04731
3708.15730	0.04778
3706.87153	0.04806
3705.58576	0.04804
3704.29999	0.04784
3703.01422	0.04758
3701.72845	0.04732
3700.44268	0.04710
3699.15691	0.04700
3697.87115	0.04693
3696.58538	0.04686
3695.29961	0.04691
3694.01384	0.04707
3692.72807	0.04716
3691.44230	0.04704
3690.15653	0.04684
3688.87076	0.04664
3687.58500	0.04638
3686.29923	0.04610
3685.01346	0.04595
3683.72769	0.04605
3682.44192	0.04634
3681.15615	0.04659
3679.87038	0.04675
3678.58461	0.04695
3677.29884	0.04719
3676.01308	0.04735
3674.72731	0.04732
3673.44154	0.04717
3672.15577	0.04707
3670.87000	0.04705
3669.58423	0.04709
3668.29846	0.04711
3667.01269	0.04710
3665.72693	0.04712
3664.44116	0.04725
3663.15539	0.04747
3661.86962	0.04773
3660.58385	0.04804
3659.29808	0.04851
3658.01231	0.04913
3656.72654	0.04970
3655.44077	0.04999
3654.15501	0.04993
3652.86924	0.04959
3651.58347	0.04907
3650.29770	0.04848
3649.01193	0.04800
3647.72616	0.04788
3646.44039	0.04826
3645.15462	0.04903
3643.86886	0.04982
3642.58309	0.05031
3641.29732	0.05042
3640.01155	0.05029
3638.72578	0.05015
3637.44001	0.05023
3636.15424	0.05070
3634.86847	0.05148
3633.58270	0.05228
3632.29694	0.05280
3631.01117	0.05287
3629.72540	0.05252
3628.43963	0.05196
3627.15386	0.05158
3625.86809	0.05172
3624.58232	0.05242
3623.29655	0.05344
3622.01079	0.05438
3620.72502	0.05501
3619.43925	0.05534
3618.15348	0.05558
3616.86771	0.05586
3615.58194	0.05612
3614.29617	0.05618
3613.01040	0.05593
3611.72463	0.05558
3610.43887	0.05545
3609.15310	0.05570
3607.86733	0.05620
3606.58156	0.05673
3605.29579	0.05725
3604.01002	0.05782
3602.72425	0.05835
3601.43848	0.05869
3600.15272	0.05880
3598.86695	0.05883
3597.58118	0.05888
3596.29541	0.05902
3595.00964	0.05933
3593.72387	0.05984
3592.43810	0.06031
3591.15233	0.06052
3589.86656	0.06056
3588.58080	0.06071
3587.29503	0.06115
3586.00926	0.06186
3584.72349	0.06270
3583.43772	0.06344
3582.15195	0.06393
3580.86618	0.06413
3579.58041	0.06410
3578.29464	0.06406
3577.00888	0.06429
3575.72311	0.06494
3574.43734	0.06578
3573.15157	0.06643
3571.86580	0.06671
3570.58003	0.06685
3569.29426	0.06723
3568.00849	0.06801
3566.72273	0.06896
3565.43696	0.06971
3564.15119	0.07005
3562.86542	0.07014
3561.57965	0.07025
3560.29388	0.07050
3559.00811	0.07083
3557.72234	0.07111
3556.43657	0.07144
3555.15081	0.07200
3553.86504	0.07279
3552.57927	0.07355
3551.29350	0.07396
3550.00773	0.07402
3548.72196	0.07402
3547.43619	0.07425
3546.15042	0.07471
3544.86466	0.07520
3543.57889	0.07558
3542.29312	0.07591
3541.00735	0.07632
3539.72158	0.07679
3538.43581	0.07721
3537.15004	0.07760
3535.86427	0.07813
3534.57850	0.07897
3533.29274	0.08005
3532.00697	0.08105
3530.72120	0.08162
3529.43543	0.08163
3528.14966	0.08129
3526.86389	0.08102
3525.57812	0.08116
3524.29235	0.08173
3523.00659	0.08253
3521.72082	0.08333
3520.43505	0.08404
3519.14928	0.08468
3517.86351	0.08525
3516.57774	0.08568
3515.29197	0.08593
3514.00620	0.08614
3512.72043	0.08658
3511.43467	0.08740
3510.14890	0.08849
3508.86313	0.08944
3507.57736	0.08987
3506.29159	0.08972
3505.00582	0.08937
3503.72005	0.08924
3502.43428	0.08944
3501.14852	0.08975
3499.86275	0.08992
3498.57698	0.08995
3497.29121	0.09006
3496.00544	0.09048
3494.71967	0.09124
3493.43390	0.09212
3492.14813	0.09278
3490.86236	0.09303
3489.57660	0.09301
3488.29083	0.09304
3487.00506	0.09329
3485.71929	0.09369
3484.43352	0.09410
3483.14775	0.09447
3481.86198	0.09486
3480.57621	0.09533
3479.29045	0.09583
3478.00468	0.09630
3476.71891	0.09673
3475.43314	0.09716
3474.14737	0.09750
3472.86160	0.09756
3471.57583	0.09731
3470.29006	0.09697
3469.00429	0.09687
3467.71853	0.09713
3466.43276	0.09762
3465.14699	0.09817
3463.86122	0.09877
3462.57545	0.09948
3461.28968	0.10022
3460.00391	0.10082
3458.71814	0.10111
3457.43238	0.10115
3456.14661	0.10113
3454.86084	0.10122
3453.57507	0.10143
3452.28930	0.10163
3451.00353	0.10171
3449.71776	0.10177
3448.43199	0.10199
3447.14622	0.10243
3445.86046	0.10294
3444.57469	0.10340
3443.28892	0.10381
3442.00315	0.10431
3440.71738	0.10486
3439.43161	0.10529
3438.14584	0.10550
3436.86007	0.10565
3435.57431	0.10597
3434.28854	0.10652
3433.00277	0.10717
3431.71700	0.10765
3430.43123	0.10789
3429.14546	0.10806
3427.85969	0.10852
3426.57392	0.10940
3425.28815	0.11044
3424.00239	0.11115
3422.71662	0.11130
3421.43085	0.11114
3420.14508	0.11108
3418.85931	0.11129
3417.57354	0.11161
3416.28777	0.11191
3415.00200	0.11222
3413.71624	0.11262
3412.43047	0.11307
3411.14470	0.11349
3409.85893	0.11381
3408.57316	0.11404
3407.28739	0.11427
3406.00162	0.11457
3404.71585	0.11498
3403.43008	0.11547
3402.14432	0.11599
3400.85855	0.11647
3399.57278	0.11687
3398.28701	0.11723
3397.00124	0.11763
3395.71547	0.11811
3394.42970	0.11863
3393.14393	0.11912
3391.85817	0.11948
3390.57240	0.11975
3389.28663	0.12013
3388.00086	0.12083
3386.71509	0.12182
3385.42932	0.12273
3384.14355	0.12316
3382.85778	0.12307
3381.57201	0.12287
3380.28625	0.12297
3379.00048	0.12341
3377.71471	0.12389
3376.42894	0.12417
3375.14317	0.12439
3373.85740	0.12486
3372.57163	0.12572
3371.28586	0.12674
3370.00010	0.12766
3368.71433	0.12834
3367.42856	0.12880
3366.14279	0.12911
3364.85702	0.12945
3363.57125	0.13001
3362.28548	0.13078
3360.99971	0.13157
3359.71394	0.13218
3358.42818	0.13266
3357.14241	0.13317
3355.85664	0.13374
3354.57087	0.13428
3353.28510	0.13479
3351.99933	0.13539
3350.71356	0.13615
3349.42779	0.13697
3348.14202	0.13774
3346.85626	0.13847
3345.57049	0.13924
3344.28472	0.14002
3342.99895	0.14065
3341.71318	0.14101
3340.42741	0.14122
3339.14164	0.14155
3337.85587	0.14227
3336.57011	0.14341
3335.28434	0.14472
3333.99857	0.14584
3332.71280	0.14656
3331.42703	0.14697
3330.14126	0.14732
3328.85549	0.14779
3327.56972	0.14832
3326.28395	0.14874
3324.99819	0.14898
3323.71242	0.14910
3322.42665	0.14922
3321.14088	0.14940
3319.85511	0.14970
3318.56934	0.15020
3317.28357	0.15090
3315.99780	0.15168
3314.71204	0.15236
3313.42627	0.15285
3312.14050	0.15325
3310.85473	0.15370
3309.56896	0.15429
3308.28319	0.15493
3306.99742	0.15546
3305.71165	0.15581
3304.42588	0.15604
3303.14012	0.15632
3301.85435	0.15676
3300.56858	0.15731
3299.28281	0.15781
3297.99704	0.15808
3296.71127	0.15810
3295.42550	0.15800
3294.13973	0.15790
3292.85397	0.15780
3291.56820	0.15767
3290.28243	0.15750
3288.99666	0.15745
3287.71089	0.15766
3286.42512	0.15807
3285.13935	0.15846
3283.85358	0.15864
3282.56781	0.15862
3281.28205	0.15857
3279.99628	0.15862
3278.71051	0.15870
3277.42474	0.15870
3276.13897	0.15858
3274.85320	0.15835
3273.56743	0.15804
3272.28166	0.15759
3270.99590	0.15694
3269.71013	0.15611
3268.42436	0.15523
3267.13859	0.15449
3265.85282	0.15396
3264.56705	0.15356
3263.28128	0.15317
3261.99551	0.15263
3260.70974	0.15190
3259.42398	0.15113
3258.13821	0.15058
3256.85244	0.15039
3255.56667	0.15038
3254.28090	0.15026
3252.99513	0.14991
3251.70936	0.14944
3250.42359	0.14901
3249.13783	0.14861
3247.85206	0.14810
3246.56629	0.14745
3245.28052	0.14681
3243.99475	0.14633
3242.70898	0.14599
3241.42321	0.14564
3240.13744	0.14515
3238.85167	0.14449
3237.56591	0.14375
3236.28014	0.14306
3234.99437	0.14258
3233.70860	0.14236
3232.42283	0.14230
3231.13706	0.14218
3229.85129	0.14193
3228.56552	0.14162
3227.27976	0.14135
3225.99399	0.14112
3224.70822	0.14085
3223.42245	0.14053
3222.13668	0.14023
3220.85091	0.14004
3219.56514	0.13997
3218.27937	0.13989
3216.99360	0.13963
3215.70784	0.13919
3214.42207	0.13870
3213.13630	0.13825
3211.85053	0.13781
3210.56476	0.13737
3209.27899	0.13694
3207.99322	0.13648
3206.70745	0.13591
3205.42169	0.13521
3204.13592	0.13460
3202.85015	0.13428
3201.56438	0.13426
3200.27861	0.13428
3198.99284	0.13416
3197.70707	0.13388
3196.42130	0.13354
3195.13553	0.13319
3193.84977	0.13285
3192.56400	0.13260
3191.27823	0.13245
3189.99246	0.13224
3188.70669	0.13181
3187.42092	0.13118
3186.13515	0.13051
3184.84938	0.12984
3183.56362	0.12906
3182.27785	0.12813
3180.99208	0.12721
3179.70631	0.12653
3178.42054	0.12615
3177.13477	0.12590
3175.84900	0.12555
3174.56323	0.12505
3173.27746	0.12454
3171.99170	0.12420
3170.70593	0.12402
3169.42016	0.12380
3168.13439	0.12338
3166.84862	0.12285
3165.56285	0.12237
3164.27708	0.12195
3162.99131	0.12149
3161.70555	0.12091
3160.41978	0.12028
3159.13401	0.11969
3157.84824	0.11917
3156.56247	0.11866
3155.27670	0.11811
3153.99093	0.11750
3152.70516	0.11680
3151.41939	0.11604
3150.13363	0.11532
3148.84786	0.11479
3147.56209	0.11444
3146.27632	0.11413
3144.99055	0.11379
3143.70478	0.11346
3142.41901	0.11329
3141.13324	0.11328
3139.84748	0.11326
3138.56171	0.11303
3137.27594	0.11251
3135.99017	0.11179
3134.70440	0.11102
3133.41863	0.11034
3132.13286	0.10983
3130.84709	0.10948
3129.56132	0.10924
3128.27556	0.10908
3126.98979	0.10897
3125.70402	0.10885
3124.41825	0.10865
3123.13248	0.10834
3121.84671	0.10795
3120.56094	0.10750
3119.27517	0.10706
3117.98940	0.10676
3116.70364	0.10673
3115.41787	0.10694
3114.13210	0.10715
3112.84633	0.10709
3111.56056	0.10678
3110.27479	0.10648
3108.98902	0.10645
3107.70325	0.10669
3106.41749	0.10700
3105.13172	0.10725
3103.84595	0.10745
3102.56018	0.10770
3101.27441	0.10798
3099.98864	0.10818
3098.70287	0.10822
3097.41710	0.10815
3096.13133	0.10809
3094.84557	0.10815
3093.55980	0.10832
3092.27403	0.10852
3090.98826	0.10872
3089.70249	0.10889
3088.41672	0.10897
3087.13095	0.10890
3085.84518	0.10873
3084.55942	0.10867
3083.27365	0.10886
3081.98788	0.10926
3080.70211	0.10972
3079.41634	0.11013
3078.13057	0.11045
3076.84480	0.11063
3075.55903	0.11063
3074.27326	0.11046
3072.98750	0.11024
3071.70173	0.11005
3070.41596	0.10991
3069.13019	0.10974
3067.84442	0.10949
3066.55865	0.10920
3065.27288	0.10898
3063.98711	0.10885
3062.70135	0.10876
3061.41558	0.10873
3060.12981	0.10884
3058.84404	0.10909
3057.55827	0.10927
3056.27250	0.10916
3054.98673	0.10876
3053.70096	0.10823
3052.41519	0.10766
3051.12943	0.10696
3049.84366	0.10607
3048.55789	0.10512
3047.27212	0.10438
3045.98635	0.10397
3044.70058	0.10378
3043.41481	0.10364
3042.12904	0.10346
3040.84328	0.10324
3039.55751	0.10297
3038.27174	0.10265
3036.98597	0.10231
3035.70020	0.10198
3034.41443	0.10168
3033.12866	0.10140
3031.84289	0.10104
3030.55712	0.10055
3029.27136	0.09993
3027.98559	0.09925
3026.69982	0.09861
3025.41405	0.09811
3024.12828	0.09774
3022.84251	0.09740
3021.55674	0.09698
3020.27097	0.09643
3018.98521	0.09582
3017.69944	0.09532
3016.41367	0.09505
3015.12790	0.09500
3013.84213	0.09508
3012.55636	0.09518
3011.27059	0.09526
3009.98482	0.09532
3008.69905	0.09538
3007.41329	0.09538
3006.12752	0.09526
3004.84175	0.09499
3003.55598	0.09465
3002.27021	0.09438
3000.98444	0.09425
2999.69867	0.09429
2998.41290	0.09449
2997.12714	0.09473
2995.84137	0.09493
2994.55560	0.09514
2993.26983	0.09540
2991.98406	0.09566
2990.69829	0.09580
2989.41252	0.09578
2988.12675	0.09572
2986.84098	0.09586
2985.55522	0.09632
2984.26945	0.09703
2982.98368	0.09778
2981.69791	0.09847
2980.41214	0.09910
2979.12637	0.09970
2977.84060	0.10029
2976.55483	0.10085
2975.26907	0.10140
2973.98330	0.10195
2972.69753	0.10250
2971.41176	0.10304
2970.12599	0.10356
2968.84022	0.10403
2967.55445	0.10447
2966.26868	0.10496
2964.98291	0.10559
2963.69715	0.10630
2962.41138	0.10694
2961.12561	0.10736
2959.83984	0.10760
2958.55407	0.10778
2957.26830	0.10788
2955.98253	0.10780
2954.69676	0.10752
2953.41100	0.10720
2952.12523	0.10698
2950.83946	0.10693
2949.55369	0.10704
2948.26792	0.10728
2946.98215	0.10762
2945.69638	0.10798
2944.41061	0.10830
2943.12484	0.10858
2941.83908	0.10888
2940.55331	0.10922
2939.26754	0.10963
2937.98177	0.11019
2936.69600	0.11089
2935.41023	0.11160
2934.12446	0.11209
2932.83869	0.11234
2931.55293	0.11252
2930.26716	0.11281
2928.98139	0.11315
2927.69562	0.11335
2926.40985	0.11327
2925.12408	0.11293
2923.83831	0.11247
2922.55254	0.11205
2921.26677	0.11167
2919.98101	0.11123
2918.69524	0.11058
2917.40947	0.10966
2916.12370	0.10856
2914.83793	0.10747
2913.55216	0.10647
2912.26639	0.10549
2910.98062	0.10442
2909.69486	0.10337
2908.40909	0.10246
2907.12332	0.10163
2905.83755	0.10070
2904.55178	0.09972
2903.26601	0.09897
2901.98024	0.09861
2900.69447	0.09851
2899.40870	0.09836
2898.12294	0.09798
2896.83717	0.09742
2895.55140	0.09679
2894.26563	0.09620
2892.97986	0.09571
2891.69409	0.09535
2890.40832	0.09515
2889.12255	0.09511
2887.83678	0.09519
2886.55102	0.09530
2885.26525	0.09534
2883.97948	0.09527
2882.69371	0.09512
2881.40794	0.09497
2880.12217	0.09491
2878.83640	0.09495
2877.55063	0.09502
2876.26487	0.09509
2874.97910	0.09517
2873.69333	0.09530
2872.40756	0.09546
2871.12179	0.09556
2869.83602	0.09548
2868.55025	0.09511
2867.26448	0.09450
2865.97871	0.09382
2864.69295	0.09333
2863.40718	0.09312
2862.12141	0.09306
2860.83564	0.09292
2859.54987	0.09263
2858.26410	0.09231
2856.97833	0.09207
2855.69256	0.09192
2854.40680	0.09179
2853.12103	0.09159
2851.83526	0.09117
2850.54949	0.09049
2849.26372	0.08965
2847.97795	0.08884
2846.69218	0.08814
2845.40641	0.08754
2844.12064	0.08694
2842.83488	0.08628
2841.54911	0.08554
2840.26334	0.08478
2838.97757	0.08404
2837.69180	0.08338
2836.40603	0.08285
2835.12026	0.08247
2833.83449	0.08219
2832.54873	0.08188
2831.26296	0.08143
2829.97719	0.08087
2828.69142	0.08033
2827.40565	0.07990
2826.11988	0.07956
2824.83411	0.07927
2823.54834	0.07905
2822.26257	0.07892
2820.97681	0.07886
2819.69104	0.07885
2818.40527	0.07882
2817.11950	0.07872
2815.83373	0.07845
2814.54796	0.07798
2813.26219	0.07747
2811.97642	0.07716
2810.69066	0.07714
2809.40489	0.07727
2808.11912	0.07732
2806.83335	0.07717
2805.54758	0.07685
2804.26181	0.07647
2802.97604	0.07617
2801.69027	0.07602
2800.40450	0.07596
2799.11874	0.07584
2797.83297	0.07553
2796.54720	0.07508
2795.26143	0.07463
2793.97566	0.07430
2792.68989	0.07414
2791.40412	0.07409
2790.11835	0.07408
2788.83259	0.07404
2787.54682	0.07393
2786.26105	0.07377
2784.97528	0.07361
2783.68951	0.07349
2782.40374	0.07343
2781.11797	0.07342
2779.83220	0.07340
2778.54643	0.07332
2777.26067	0.07313
2775.97490	0.07288
2774.68913	0.07261
2773.40336	0.07237
2772.11759	0.07221
2770.83182	0.07214
2769.54605	0.07210
2768.26028	0.07199
2766.97452	0.07178
2765.68875	0.07155
2764.40298	0.07137
2763.11721	0.07118
2761.83144	0.07085
2760.54567	0.07038
2759.25990	0.06992
2757.97413	0.06964
2756.68836	0.06952
2755.40260	0.06948
2754.11683	0.06947
2752.83106	0.06955
2751.54529	0.06971
2750.25952	0.06982
2748.97375	0.06975
2747.68798	0.06945
2746.40221	0.06904
2745.11645	0.06863
2743.83068	0.06830
2742.54491	0.06806
2741.25914	0.06786
2739.97337	0.06767
2738.68760	0.06746
2737.40183	0.06724
2736.11606	0.06706
2734.83029	0.06698
2733.54453	0.06700
2732.25876	0.06707
2730.97299	0.06716
2729.68722	0.06719
2728.40145	0.06706
2727.11568	0.06673
2725.82991	0.06629
2724.54414	0.06591
2723.25838	0.06572
2721.97261	0.06571
2720.68684	0.06573
2719.40107	0.06564
2718.11530	0.06546
2716.82953	0.06528
2715.54376	0.06518
2714.25799	0.06511
2712.97222	0.06499
2711.68646	0.06473
2710.40069	0.06434
2709.11492	0.06390
2707.82915	0.06358
2706.54338	0.06349
2705.25761	0.06357
2703.97184	0.06367
2702.68607	0.06368
2701.40031	0.06362
2700.11454	0.06358
2698.82877	0.06354
2697.54300	0.06339
2696.25723	0.06308
2694.97146	0.06269
2693.68569	0.06241
2692.39992	0.06236
2691.11415	0.06242
2689.82839	0.06244
2688.54262	0.06236
2687.25685	0.06223
2685.97108	0.06212
2684.68531	0.06202
2683.39954	0.06190
2682.11377	0.06181
2680.82800	0.06178
2679.54224	0.06177
2678.25647	0.06173
2676.97070	0.06160
2675.68493	0.06136
2674.39916	0.06108
2673.11339	0.06087
2671.82762	0.06082
2670.54185	0.06089
2669.25608	0.06101
2667.97032	0.06106
2666.68455	0.06097
2665.39878	0.06076
2664.11301	0.06055
2662.82724	0.06048
2661.54147	0.06054
2660.25570	0.06059
2658.96993	0.06051
2657.68417	0.06028
2656.39840	0.05997
2655.11263	0.05964
2653.82686	0.05933
2652.54109	0.05907
2651.25532	0.05889
2649.96955	0.05878
2648.68378	0.05865
2647.39801	0.05846
2646.11225	0.05823
2644.82648	0.05802
2643.54071	0.05781
2642.25494	0.05756
2640.96917	0.05730
2639.68340	0.05709
2638.39763	0.05698
2637.11186	0.05691
2635.82609	0.05679
2634.54033	0.05656
2633.25456	0.05626
2631.96879	0.05591
2630.68302	0.05555
2629.39725	0.05518
2628.11148	0.05488
2626.82571	0.05476
2625.53994	0.05482
2624.25418	0.05495
2622.96841	0.05497
2621.68264	0.05481
2620.39687	0.05450
2619.11110	0.05419
2617.82533	0.05403
2616.53956	0.05405
2615.25379	0.05406
2613.96802	0.05379
2612.68226	0.05316
2611.39649	0.05238
2610.11072	0.05175
2608.82495	0.05140
2607.53918	0.05122
2606.25341	0.05110
2604.96764	0.05099
2603.68187	0.05094
2602.39611	0.05093
2601.11034	0.05089
2599.82457	0.05082
2598.53880	0.05068
2597.25303	0.05044
2595.96726	0.05007
2594.68149	0.04974
2593.39572	0.04962
2592.10995	0.04974
2590.82419	0.04994
2589.53842	0.04997
2588.25265	0.04973
2586.96688	0.04935
2585.68111	0.04905
2584.39534	0.04891
2583.10957	0.04883
2581.82380	0.04867
2580.53804	0.04846
2579.25227	0.04832
2577.96650	0.04834
2576.68073	0.04849
2575.39496	0.04866
2574.10919	0.04870
2572.82342	0.04847
2571.53765	0.04795
2570.25188	0.04734
2568.96612	0.04694
2567.68035	0.04691
2566.39458	0.04717
2565.10881	0.04742
2563.82304	0.04745
2562.53727	0.04727
2561.25150	0.04703
2559.96573	0.04684
2558.67997	0.04671
2557.39420	0.04661
2556.10843	0.04647
2554.82266	0.04627
2553.53689	0.04600
2552.25112	0.04571
2550.96535	0.04552
2549.67958	0.04557
2548.39381	0.04581
2547.10805	0.04603
2545.82228	0.04602
2544.53651	0.04570
2543.25074	0.04527
2541.96497	0.04496
2540.67920	0.04489
2539.39343	0.04501
2538.10766	0.04524
2536.82190	0.04550
2535.53613	0.04561
2534.25036	0.04539
2532.96459	0.04485
2531.67882	0.04427
2530.39305	0.04392
2529.10728	0.04386
2527.82151	0.04394
2526.53574	0.04395
2525.24998	0.04384
2523.96421	0.04376
2522.67844	0.04379
2521.39267	0.04385
2520.10690	0.04383
2518.82113	0.04383
2517.53536	0.04404
2516.24959	0.04446
2514.96383	0.04479
2513.67806	0.04474
2512.39229	0.04427
2511.10652	0.04366
2509.82075	0.04317
2508.53498	0.04286
2507.24921	0.04268
2505.96344	0.04257
2504.67767	0.04246
2503.39191	0.04236
2502.10614	0.04233
2500.82037	0.04252
2499.53460	0.04283
2498.24883	0.04297
2496.96306	0.04273
2495.67729	0.04229
2494.39152	0.04204
2493.10576	0.04214
2491.81999	0.04239
2490.53422	0.04244
2489.24845	0.04207
2487.96268	0.04134
2486.67691	0.04056
2485.39114	0.04010
2484.10537	0.04012
2482.81960	0.04047
2481.53384	0.04084
2480.24807	0.04103
2478.96230	0.04109
2477.67653	0.04117
2476.39076	0.04131
2475.10499	0.04142
2473.81922	0.04138
2472.53345	0.04116
2471.24769	0.04080
2469.96192	0.04042
2468.67615	0.04019
2467.39038	0.04022
2466.10461	0.04047
2464.81884	0.04074
2463.53307	0.04091
2462.24730	0.04096
2460.96153	0.04096
2459.67577	0.04095
2458.39000	0.04096
2457.10423	0.04099
2455.81846	0.04101
2454.53269	0.04094
2453.24692	0.04079
2451.96115	0.04069
2450.67538	0.04080
2449.38962	0.04111
2448.10385	0.04145
2446.81808	0.04156
2445.53231	0.04128
2444.24654	0.04070
2442.96077	0.04020
2441.67500	0.04014
2440.38923	0.04047
2439.10346	0.04084
2437.81770	0.04100
2436.53193	0.04095
2435.24616	0.04081
2433.96039	0.04065
2432.67462	0.04045
2431.38885	0.04024
2430.10308	0.04009
2428.81731	0.04002
2427.53155	0.04001
2426.24578	0.04004
2424.96001	0.04012
2423.67424	0.04029
2422.38847	0.04046
2421.10270	0.04047
2419.81693	0.04022
2418.53116	0.03989
2417.24539	0.03972
2415.95963	0.03981
2414.67386	0.03996
2413.38809	0.03998
2412.10232	0.03983
2410.81655	0.03964
2409.53078	0.03946
2408.24501	0.03919
2406.95924	0.03875
2405.67347	0.03828
2404.38771	0.03807
2403.10194	0.03826
2401.81617	0.03869
2400.53040	0.03905
2399.24463	0.03904
2397.95886	0.03893
2396.67309	0.03887
2395.38732	0.03891
2394.10156	0.03904
2392.81579	0.03920
2391.53002	0.03937
2390.24425	0.03952
2388.95848	0.03962
2387.67271	0.03966
2386.38694	0.03964
2385.10117	0.03959
2383.81540	0.03954
2382.52964	0.03952
2381.24387	0.03956
2379.95810	0.03963
2378.67233	0.03968
2377.38656	0.03968
2376.10079	0.03963
2374.81502	0.03956
2373.52925	0.03952
2372.24349	0.03958
2370.95772	0.03977
2369.67195	0.04004
2368.38618	0.04030
2367.10041	0.04045
2365.81464	0.04042
2364.52887	0.04026
2363.24310	0.04011
2361.95733	0.04010
2360.67157	0.04027
2359.38580	0.04052
2358.10003	0.04070
2356.81426	0.04072
2355.52849	0.04061
2354.24272	0.04041
2352.95695	0.04023
2351.67118	0.04013
2350.38542	0.04015
2349.09965	0.04023
2347.81388	0.04029
2346.52811	0.04033
2345.24234	0.04041
2343.95657	0.04053
2342.67080	0.04062
2341.38503	0.04058
2340.09926	0.04044
2338.81350	0.04031
2337.52773	0.04024
2336.24196	0.04016
2334.95619	0.04000
2333.67042	0.03978
2332.38465	0.03960
2331.09888	0.03953
2329.81311	0.03952
2328.52735	0.03954
2327.24158	0.03958
2325.95581	0.03963
2324.67004	0.03964
2323.38427	0.03957
2322.09850	0.03950
2320.81273	0.03950
2319.52696	0.03954
2318.24119	0.03941
2316.95543	0.03900
2315.66966	0.03847
2314.38389	0.03807
2313.09812	0.03791
2311.81235	0.03787
2310.52658	0.03777
2309.24081	0.03759
2307.95504	0.03739
2306.66928	0.03718
2305.38351	0.03691
2304.09774	0.03659
2302.81197	0.03631
2301.52620	0.03613
2300.24043	0.03594
2298.95466	0.03566
2297.66889	0.03534
2296.38312	0.03511
2295.09736	0.03497
2293.81159	0.03482
2292.52582	0.03461
2291.24005	0.03439
2289.95428	0.03426
2288.66851	0.03426
2287.38274	0.03434
2286.09697	0.03441
2284.81121	0.03436
2283.52544	0.03419
2282.23967	0.03397
2280.95390	0.03382
2279.66813	0.03373
2278.38236	0.03362
2277.09659	0.03345
2275.81082	0.03330
2274.52505	0.03323
2273.23929	0.03313
2271.95352	0.03281
2270.66775	0.03220
2269.38198	0.03144
2268.09621	0.03077
2266.81044	0.03036
2265.52467	0.03021
2264.23890	0.03019
2262.95314	0.03016
2261.66737	0.03010
2260.38160	0.03010
2259.09583	0.03024
2257.81006	0.03047
2256.52429	0.03066
2255.23852	0.03065
2253.95275	0.03039
2252.66698	0.02987
2251.38122	0.02917
2250.09545	0.02855
2248.80968	0.02821
2247.52391	0.02770
2246.23814	0.02736
2244.95237	0.02722
2243.66660	0.02726
2242.38083	0.02744
2241.09507	0.02762
2239.80930	0.02778
2238.52353	0.02796
2237.23776	0.02816
2235.95199	0.02829
2234.66622	0.02820
2233.38045	0.02782
2232.09468	0.02719
2230.80891	0.02653
2229.52315	0.02606
2228.23738	0.02582
2226.95161	0.02556
2225.66584	0.02511
2224.38007	0.02467
2223.09430	0.02458
2221.80853	0.02490
2220.52276	0.02537
2219.23700	0.02565
2217.95123	0.02559
2216.66546	0.02521
2215.37969	0.02454
2214.09392	0.02367
2212.80815	0.02280
2211.52238	0.02224
2210.23661	0.02217
2208.95084	0.02247
2207.66508	0.02272
2206.37931	0.02255
2205.09354	0.02188
2203.80777	0.02098
2202.52200	0.02035
2201.23623	0.02032
2199.95046	0.02084
2198.66469	0.02160
2197.37893	0.02235
2196.09316	0.02284
2194.80739	0.02272
2193.52162	0.02176
2192.23585	0.02026
2190.95008	0.01899
2189.66431	0.01864
2188.37854	0.01922
2187.09277	0.02016
2185.80701	0.02082
2184.52124	0.02100
2183.23547	0.02101
2181.94970	0.02135
2180.66393	0.02221
2179.37816	0.02322
2178.09239	0.02372
2176.80662	0.02331
2175.52085	0.02219
2174.23509	0.02094
2172.94932	0.02005
2171.66355	0.01963
2170.37778	0.01934
2169.09201	0.01867
2167.80624	0.01746
2166.52047	0.01620
2165.23470	0.01582
2163.94894	0.01674
2162.66317	0.01822
2161.37740	0.01874
2160.09163	0.01747
2158.80586	0.01521
2157.52009	0.01346
2156.23432	0.01288
2154.94855	0.01308
2153.66278	0.01367
2152.37702	0.01452
2151.09125	0.01537
2149.80548	0.01570
2148.51971	0.01533
2147.23394	0.01475
2145.94817	0.01479
2144.66240	0.01573
2143.37663	0.01715
2142.09087	0.01835
2140.80510	0.01906
2139.51933	0.01947
2138.23356	0.01993
2136.94779	0.02055
2135.66202	0.02130
2134.37625	0.02205
2133.09048	0.02271
2131.80471	0.02328
2130.51895	0.02378
2129.23318	0.02412
2127.94741	0.02413
2126.66164	0.02384
2125.37587	0.02357
2124.09010	0.02365
2122.80433	0.02403
2121.51856	0.02440
2120.23280	0.02454
2118.94703	0.02454
2117.66126	0.02456
2116.37549	0.02464
2115.08972	0.02468
2113.80395	0.02457
2112.51818	0.02433
2111.23241	0.02406
2109.94664	0.02385
2108.66088	0.02378
2107.37511	0.02387
2106.08934	0.02410
2104.80357	0.02434
2103.51780	0.02454
2102.23203	0.02471
2100.94626	0.02491
2099.66049	0.02616
2098.37473	0.02642
2097.08896	0.02578
2095.80319	0.02501
2094.51742	0.02447
2093.23165	0.02410
2091.94588	0.02374
2090.66011	0.02329
2089.37434	0.02284
2088.08857	0.02263
2086.80281	0.02282
2085.51704	0.02336
2084.23127	0.02386
2082.94550	0.02388
2081.65973	0.02338
2080.37396	0.02282
2079.08819	0.02276
2077.80242	0.02332
2076.51666	0.02409
2075.23089	0.02449
2073.94512	0.02423
2072.65935	0.02347
2071.37358	0.02261
2070.08781	0.02195
2068.80204	0.02154
2067.51627	0.02129
2066.23050	0.02110
2064.94474	0.02088
2063.65897	0.02066
2062.37320	0.02058
2061.08743	0.02075
2059.80166	0.02095
2058.51589	0.02072
2057.23012	0.01984
2055.94435	0.01865
2054.65859	0.01773
2053.37282	0.01742
2052.08705	0.01759
2050.80128	0.01791
2049.51551	0.01808
2048.22974	0.01794
2046.94397	0.01767
2045.65820	0.01766
2044.37243	0.01808
2043.08667	0.01863
2041.80090	0.01875
2040.51513	0.01826
2039.22936	0.01766
2037.94359	0.01766
2036.65782	0.01834
2035.37205	0.01908
2034.08628	0.01926
2032.80052	0.01896
2031.51475	0.01880
2030.22898	0.01911
2028.94321	0.01957
2027.65744	0.01957
2026.37167	0.01874
2025.08590	0.01732
2023.80013	0.01598
2022.51436	0.01532
2021.22860	0.01552
2019.94283	0.01621
2018.65706	0.01662
2017.37129	0.01611
2016.08552	0.01478
2014.79975	0.01344
2013.51398	0.01295
2012.22821	0.01348
2010.94245	0.01455
2009.65668	0.01566
2008.37091	0.01660
2007.08514	0.01731
2005.79937	0.01766
2004.51360	0.01754
2003.22783	0.01703
2001.94206	0.01628
2000.65629	0.01547
1999.37053	0.01493
1998.08476	0.01506
1996.79899	0.01591
1995.51322	0.01691
1994.22745	0.01733
1992.94168	0.01690
1991.65591	0.01600
1990.37014	0.01517
1989.08438	0.01477
1987.79861	0.01487
1986.51284	0.01535
1985.22707	0.01599
1983.94130	0.01665
1982.65553	0.01739
1981.36976	0.01828
1980.08399	0.01924
1978.79822	0.01993
1977.51246	0.02000
1976.22669	0.01937
1974.94092	0.01849
1973.65515	0.01811
1972.36938	0.01850
1971.08361	0.01910
1969.79784	0.01903
1968.51207	0.01802
1967.22631	0.01671
1965.94054	0.01602
1964.65477	0.01635
1963.36900	0.01724
1962.08323	0.01788
1960.79746	0.01790
1959.51169	0.01748
1958.22592	0.01702
1956.94015	0.01673
1955.65439	0.01668
1954.36862	0.01689
1953.08285	0.01738
1951.79708	0.01801
1950.51131	0.01859
1949.22554	0.01901
1947.93977	0.01931
1946.65400	0.01951
1945.36823	0.01958
1944.08247	0.01953
1942.79670	0.01953
1941.51093	0.01977
1940.22516	0.02014
1938.93939	0.02036
1937.65362	0.02030
1936.36785	0.02017
1935.08208	0.02022
1933.79632	0.02043
1932.51055	0.02060
1931.22478	0.02054
1929.93901	0.02024
1928.65324	0.01977
1927.36747	0.01932
1926.08170	0.01907
1924.79593	0.01917
1923.51016	0.01961
1922.22440	0.02021
1920.93863	0.02074
1919.65286	0.02112
1918.36709	0.02135
1917.08132	0.02147
1915.79555	0.02140
1914.50978	0.02112
1913.22401	0.02074
1911.93825	0.02045
1910.65248	0.02034
1909.36671	0.02038
1908.08094	0.02051
1906.79517	0.02069
1905.50940	0.02085
1904.22363	0.02085
1902.93786	0.02066
1901.65209	0.02048
1900.36633	0.02053
1899.08056	0.02080
1897.79479	0.02108
1896.50902	0.02122
1895.22325	0.02130
1893.93748	0.02136
1892.65171	0.02132
1891.36594	0.02109
1890.08018	0.02071
1888.79441	0.02037
1887.50864	0.02028
1886.22287	0.02048
1884.93710	0.02090
1883.65133	0.02134
1882.36556	0.02161
1881.07979	0.02162
1879.79402	0.02144
1878.50826	0.02123
1877.22249	0.02112
1875.93672	0.02110
1874.65095	0.02113
1873.36518	0.02116
1872.07941	0.02115
1870.79364	0.02105
1869.50787	0.02087
1868.22211	0.02071
1866.93634	0.02069
1865.65057	0.02082
1864.36480	0.02101
1863.07903	0.02115
1861.79326	0.02120
1860.50749	0.02110
1859.22172	0.02086
1857.93595	0.02054
1856.65019	0.02021
1855.36442	0.01996
1854.07865	0.01981
1852.79288	0.01971
1851.50711	0.01967
1850.22134	0.01974
1848.93557	0.01994
1847.64980	0.02021
1846.36404	0.02046
1845.07827	0.02058
1843.79250	0.02056
1842.50673	0.02043
1841.22096	0.02030
1839.93519	0.02024
1838.64942	0.02024
1837.36365	0.02028
1836.07788	0.02031
1834.79212	0.02030
1833.50635	0.02018
1832.22058	0.02000
1830.93481	0.01984
1829.64904	0.01983
1828.36327	0.01996
1827.07750	0.02017
1825.79173	0.02042
1824.50597	0.02067
1823.22020	0.02091
1821.93443	0.02104
1820.64866	0.02100
1819.36289	0.02076
1818.07712	0.02040
1816.79135	0.02003
1815.50558	0.01977
1814.21981	0.01962
1812.93405	0.01954
1811.64828	0.01948
1810.36251	0.01943
1809.07674	0.01944
1807.79097	0.01952
1806.50520	0.01968
1805.21943	0.01987
1803.93366	0.02005
1802.64790	0.02019
1801.36213	0.02024
1800.07636	0.02025
1798.79059	0.02028
1797.50482	0.02038
1796.21905	0.02050
1794.93328	0.02054
1793.64751	0.02044
1792.36174	0.02026
1791.07598	0.02014
1789.79021	0.02015
1788.50444	0.02027
1787.21867	0.02043
1785.93290	0.02052
1784.64713	0.02049
1783.36136	0.02037
1782.07559	0.02024
1780.78983	0.02019
1779.50406	0.02021
1778.21829	0.02027
1776.93252	0.02032
1775.64675	0.02032
1774.36098	0.02029
1773.07521	0.02025
1771.78944	0.02021
1770.50367	0.02017
1769.21791	0.02010
1767.93214	0.02003
1766.64637	0.01998
1765.36060	0.01997
1764.07483	0.01999
1762.78906	0.02001
1761.50329	0.02005
1760.21752	0.02014
1758.93176	0.02030
1757.64599	0.02051
1756.36022	0.02073
1755.07445	0.02090
1753.78868	0.02098
1752.50291	0.02103
1751.21714	0.02111
1749.93137	0.02128
1748.64560	0.02152
1747.35984	0.02182
1746.07407	0.02217
1744.78830	0.02254
1743.50253	0.02288
1742.21676	0.02320
1740.93099	0.02354
1739.64522	0.02392
1738.35945	0.02431
1737.07369	0.02462
1735.78792	0.02486
1734.50215	0.02510
1733.21638	0.02543
1731.93061	0.02584
1730.64484	0.02623
1729.35907	0.02657
1728.07330	0.02687
1726.78753	0.02721
1725.50177	0.02764
1724.21600	0.02812
1722.93023	0.02859
1721.64446	0.02902
1720.35869	0.02943
1719.07292	0.02985
1717.78715	0.03036
1716.50138	0.03104
1715.21561	0.03188
1713.92985	0.03285
1712.64408	0.03389
1711.35831	0.03504
1710.07254	0.03634
1708.78677	0.03786
1707.50100	0.03961
1706.21523	0.04156
1704.92946	0.04363
1703.64370	0.04581
1702.35793	0.04817
1701.07216	0.05079
1699.78639	0.05364
1698.50062	0.05663
1697.21485	0.05965
1695.92908	0.06268
1694.64331	0.06571
1693.35754	0.06873
1692.07178	0.07170
1690.78601	0.07466
1689.50024	0.07762
1688.21447	0.08061
1686.92870	0.08366
1685.64293	0.08683
1684.35716	0.09012
1683.07139	0.09352
1681.78563	0.09700
1680.49986	0.10059
1679.21409	0.10433
1677.92832	0.10819
1676.64255	0.11212
1675.35678	0.11609
1674.07101	0.12010
1672.78524	0.12416
1671.49947	0.12825
1670.21371	0.13236
1668.92794	0.13647
1667.64217	0.14053
1666.35640	0.14450
1665.07063	0.14835
1663.78486	0.15213
1662.49909	0.15586
1661.21332	0.15954
1659.92756	0.16305
1658.64179	0.16628
1657.35602	0.16914
1656.07025	0.17169
1654.78448	0.17407
1653.49871	0.17636
1652.21294	0.17850
1650.92717	0.18039
1649.64140	0.18201
1648.35564	0.18346
1647.06987	0.18485
1645.78410	0.18615
1644.49833	0.18732
1643.21256	0.18830
1641.92679	0.18911
1640.64102	0.18978
1639.35525	0.19030
1638.06949	0.19070
1636.78372	0.19102
1635.49795	0.19122
1634.21218	0.19123
1632.92641	0.19093
1631.64064	0.19024
1630.35487	0.18912
1629.06910	0.18753
1627.78333	0.18545
1626.49757	0.18290
1625.21180	0.17994
1623.92603	0.17666
1622.64026	0.17312
1621.35449	0.16931
1620.06872	0.16524
1618.78295	0.16097
1617.49718	0.15664
1616.21142	0.15240
1614.92565	0.14829
1613.63988	0.14427
1612.35411	0.14027
1611.06834	0.13629
1609.78257	0.13237
1608.49680	0.12858
1607.21103	0.12501
1605.92526	0.12170
1604.63950	0.11866
1603.35373	0.11587
1602.06796	0.11329
1600.78219	0.11089
1599.49642	0.10866
1598.21065	0.10660
1596.92488	0.10472
1595.63911	0.10305
1594.35335	0.10162
1593.06758	0.10043
1591.78181	0.09947
1590.49604	0.09870
1589.21027	0.09812
1587.92450	0.09772
1586.63873	0.09750
1585.35296	0.09744
1584.06719	0.09750
1582.78143	0.09770
1581.49566	0.09804
1580.20989	0.09854
1578.92412	0.09922
1577.63835	0.10010
1576.35258	0.10122
1575.06681	0.10256
1573.78104	0.10409
1572.49528	0.10578
1571.20951	0.10759
1569.92374	0.10952
1568.63797	0.11154
1567.35220	0.11362
1566.06643	0.11579
1564.78066	0.11803
1563.49489	0.12032
1562.20912	0.12262
1560.92336	0.12494
1559.63759	0.12730
1558.35182	0.12973
1557.06605	0.13215
1555.78028	0.13447
1554.49451	0.13667
1553.20874	0.13878
1551.92297	0.14082
1550.63721	0.14278
1549.35144	0.14462
1548.06567	0.14627
1546.77990	0.14768
1545.49413	0.14886
1544.20836	0.14985
1542.92259	0.15071
1541.63682	0.15146
1540.35105	0.15210
1539.06529	0.15262
1537.77952	0.15301
1536.49375	0.15330
1535.20798	0.15352
1533.92221	0.15366
1532.63644	0.15370
1531.35067	0.15359
1530.06490	0.15332
1528.77914	0.15290
1527.49337	0.15238
1526.20760	0.15183
1524.92183	0.15127
1523.63606	0.15071
1522.35029	0.15013
1521.06452	0.14951
1519.77875	0.14882
1518.49298	0.14804
1517.20722	0.14707
1515.92145	0.14586
1514.63568	0.14436
1513.34991	0.14261
1512.06414	0.14063
1510.77837	0.13843
1509.49260	0.13603
1508.20683	0.13345
1506.92107	0.13078
1505.63530	0.12810
1504.34953	0.12545
1503.06376	0.12279
1501.77799	0.12008
1500.49222	0.11731
1499.20645	0.11450
1497.92068	0.11162
1496.63491	0.10872
1495.34915	0.10584
1494.06338	0.10303
1492.77761	0.10030
1491.49184	0.09765
1490.20607	0.09510
1488.92030	0.09271
1487.63453	0.09055
1486.34876	0.08867
1485.06299	0.08705
1483.77723	0.08569
1482.49146	0.08457
1481.20569	0.08372
1479.91992	0.08316
1478.63415	0.08291
1477.34838	0.08295
1476.06261	0.08326
1474.77684	0.08380
1473.49108	0.08452
1472.20531	0.08536
1470.91954	0.08627
1469.63377	0.08724
1468.34800	0.08827
1467.06223	0.08934
1465.77646	0.09043
1464.49069	0.09152
1463.20492	0.09261
1461.91916	0.09371
1460.63339	0.09482
1459.34762	0.09596
1458.06185	0.09716
1456.77608	0.09840
1455.49031	0.09960
1454.20454	0.10065
1452.91877	0.10144
1451.63301	0.10192
1450.34724	0.10211
1449.06147	0.10209
1447.77570	0.10193
1446.48993	0.10167
1445.20416	0.10128
1443.91839	0.10077
1442.63262	0.10016
1441.34685	0.09947
1440.06109	0.09866
1438.77532	0.09769
1437.48955	0.09656
1436.20378	0.09535
1434.91801	0.09417
1433.63224	0.09306
1432.34647	0.09200
1431.06070	0.09104
1429.77494	0.09022
1428.48917	0.08954
1427.20340	0.08900
1425.91763	0.08857
1424.63186	0.08824
1423.34609	0.08802
1422.06032	0.08790
1420.77455	0.08783
1419.48878	0.08780
1418.20302	0.08782
1416.91725	0.08790
1415.63148	0.08805
1414.34571	0.08827
1413.05994	0.08853
1411.77417	0.08881
1410.48840	0.08908
1409.20263	0.08935
1407.91687	0.08960
1406.63110	0.08984
1405.34533	0.09005
1404.05956	0.09021
1402.77379	0.09033
1401.48802	0.09038
1400.20225	0.09037
1398.91648	0.09029
1397.63071	0.09017
1396.34495	0.09006
1395.05918	0.08997
1393.77341	0.08989
1392.48764	0.08977
1391.20187	0.08965
1389.91610	0.08955
1388.63033	0.08946
1387.34456	0.08930
1386.05880	0.08902
1384.77303	0.08864
1383.48726	0.08822
1382.20149	0.08777
1380.91572	0.08731
1379.62995	0.08679
1378.34418	0.08620
1377.05841	0.08553
1375.77264	0.08479
1374.48688	0.08401
1373.20111	0.08323
1371.91534	0.08244
1370.62957	0.08161
1369.34380	0.08072
1368.05803	0.07975
1366.77226	0.07873
1365.48649	0.07774
1364.20073	0.07680
1362.91496	0.07594
1361.62919	0.07519
1360.34342	0.07459
1359.05765	0.07414
1357.77188	0.07383
1356.48611	0.07362
1355.20034	0.07349
1353.91457	0.07344
1352.62881	0.07350
1351.34304	0.07365
1350.05727	0.07389
1348.77150	0.07423
1347.48573	0.07465
1346.19996	0.07509
1344.91419	0.07553
1343.62842	0.07594
1342.34266	0.07635
1341.05689	0.07673
1339.77112	0.07706
1338.48535	0.07728
1337.19958	0.07736
1335.91381	0.07730
1334.62804	0.07713
1333.34227	0.07689
1332.05650	0.07659
1330.77074	0.07622
1329.48497	0.07580
1328.19920	0.07534
1326.91343	0.07488
1325.62766	0.07443
1324.34189	0.07401
1323.05612	0.07365
1321.77035	0.07337
1320.48459	0.07318
1319.19882	0.07309
1317.91305	0.07310
1316.62728	0.07313
1315.34151	0.07312
1314.05574	0.07302
1312.76997	0.07286
1311.48420	0.07268
1310.19843	0.07252
1308.91267	0.07235
1307.62690	0.07214
1306.34113	0.07188
1305.05536	0.07159
1303.76959	0.07130
1302.48382	0.07104
1301.19805	0.07085
1299.91228	0.07075
1298.62652	0.07073
1297.34075	0.07074
1296.05498	0.07076
1294.76921	0.07080
1293.48344	0.07093
1292.19767	0.07117
1290.91190	0.07151
1289.62613	0.07189
1288.34036	0.07226
1287.05460	0.07262
1285.76883	0.07298
1284.48306	0.07334
1283.19729	0.07368
1281.91152	0.07398
1280.62575	0.07423
1279.33998	0.07446
1278.05421	0.07468
1276.76845	0.07490
1275.48268	0.07508
1274.19691	0.07521
1272.91114	0.07533
1271.62537	0.07546
1270.33960	0.07562
1269.05383	0.07581
1267.76806	0.07607
1266.48229	0.07641
1265.19653	0.07685
1263.91076	0.07736
1262.62499	0.07789
1261.33922	0.07844
1260.05345	0.07903
1258.76768	0.07964
1257.48191	0.08026
1256.19614	0.08089
1254.91037	0.08156
1253.62461	0.08228
1252.33884	0.08302
1251.05307	0.08375
1249.76730	0.08450
1248.48153	0.08531
1247.19576	0.08624
1245.90999	0.08724
1244.62422	0.08824
1243.33846	0.08914
1242.05269	0.08993
1240.76692	0.09060
1239.48115	0.09117
1238.19538	0.09166
1236.90961	0.09208
1235.62384	0.09241
1234.33807	0.09261
1233.05230	0.09262
1231.76654	0.09246
1230.48077	0.09214
1229.19500	0.09167
1227.90923	0.09106
1226.62346	0.09030
1225.33769	0.08939
1224.05192	0.08833
1222.76615	0.08719
1221.48039	0.08605
1220.19462	0.08498
1218.90885	0.08399
1217.62308	0.08309
1216.33731	0.08224
1215.05154	0.08146
1213.76577	0.08080
1212.48000	0.08029
1211.19423	0.07995
1209.90847	0.07973
1208.62270	0.07961
1207.33693	0.07953
1206.05116	0.07947
1204.76539	0.07938
1203.47962	0.07923
1202.19385	0.07895
1200.90808	0.07844
1199.62232	0.07764
1198.33655	0.07689
1197.05078	0.07606
1195.76501	0.07518
1194.47924	0.07432
1193.19347	0.07352
1191.90770	0.07277
1190.62193	0.07207
1189.33616	0.07142
1188.05040	0.07082
1186.76463	0.07030
1185.47886	0.06985
1184.19309	0.06944
1182.90732	0.06908
1181.62155	0.06880
1180.33578	0.06862
1179.05001	0.06852
1177.76425	0.06846
1176.47848	0.06841
1175.19271	0.06832
1173.90694	0.06819
1172.62117	0.06807
1171.33540	0.06803
1170.04963	0.06811
1168.76386	0.06828
1167.47809	0.06845
1166.19233	0.06857
1164.90656	0.06863
1163.62079	0.06864
1162.33502	0.06859
1161.04925	0.06845
1159.76348	0.06827
1158.47771	0.06809
1157.19194	0.06789
1155.90618	0.06763
1154.62041	0.06727
1153.33464	0.06680
1152.04887	0.06628
1150.76310	0.06575
1149.47733	0.06525
1148.19156	0.06482
1146.90579	0.06446
1145.62002	0.06411
1144.33426	0.06371
1143.04849	0.06327
1141.76272	0.06284
1140.47695	0.06247
1139.19118	0.06217
1137.90541	0.06194
1136.61964	0.06177
1135.33387	0.06167
1134.04811	0.06164
1132.76234	0.06165
1131.47657	0.06166
1130.19080	0.06171
1128.90503	0.06184
1127.61926	0.06203
1126.33349	0.06224
1125.04772	0.06244
1123.76195	0.06262
1122.47619	0.06282
1121.19042	0.06304
1119.90465	0.06329
1118.61888	0.06356
1117.33311	0.06387
1116.04734	0.06426
1114.76157	0.06472
1113.47580	0.06524
1112.19004	0.06573
1110.90427	0.06618
1109.61850	0.06662
1108.33273	0.06708
1107.04696	0.06759
1105.76119	0.06813
1104.47542	0.06864
1103.18965	0.06910
1101.90388	0.06949
1100.61812	0.06985
1099.33235	0.07022
1098.04658	0.07062
1096.76081	0.07105
1095.47504	0.07148
1094.18927	0.07188
1092.90350	0.07228
1091.61773	0.07269
1090.33197	0.07316
1089.04620	0.07371
1087.76043	0.07434
1086.47466	0.07502
1085.18889	0.07574
1083.90312	0.07650
1082.61735	0.07728
1081.33158	0.07799
1080.04581	0.07850
1078.76005	0.07877
1077.47428	0.07888
1076.18851	0.07891
1074.90274	0.07892
1073.61697	0.07893
1072.33120	0.07891
1071.04543	0.07884
1069.75966	0.07876
1068.47390	0.07868
1067.18813	0.07863
1065.90236	0.07863
1064.61659	0.07867
1063.33082	0.07870
1062.04505	0.07868
1060.75928	0.07862
1059.47351	0.07855
1058.18774	0.07850
1056.90198	0.07846
1055.61621	0.07840
1054.33044	0.07830
1053.04467	0.07815
1051.75890	0.07794
1050.47313	0.07769
1049.18736	0.07745
1047.90159	0.07727
1046.61583	0.07715
1045.33006	0.07706
1044.04429	0.07701
1042.75852	0.07698
1041.47275	0.07697
1040.18698	0.07698
1038.90121	0.07703
1037.61544	0.07717
1036.32967	0.07743
1035.04391	0.07780
1033.75814	0.07816
1032.47237	0.07838
1031.18660	0.07834
1029.90083	0.07800
1028.61506	0.07740
1027.32929	0.07656
1026.04352	0.07552
1024.75775	0.07434
1023.47199	0.07312
1022.18622	0.07195
1020.90045	0.07089
1019.61468	0.06991
1018.32891	0.06894
1017.04314	0.06793
1015.75737	0.06687
1014.47160	0.06580
1013.18584	0.06477
1011.90007	0.06381
1010.61430	0.06292
1009.32853	0.06207
1008.04276	0.06124
1006.75699	0.06042
1005.47122	0.05962
1004.18545	0.05886
1002.89968	0.05816
1001.61392	0.05755
1000.32815	0.05700
999.04238	0.05647
997.75661	0.05590
996.47084	0.05529
995.18507	0.05467
993.89930	0.05407
992.61353	0.05350
991.32777	0.05298
990.04200	0.05253
988.75623	0.05217
987.47046	0.05185
986.18469	0.05153
984.89892	0.05120
983.61315	0.05090
982.32738	0.05066
981.04161	0.05047
979.75585	0.05032
978.47008	0.05018
977.18431	0.05005
975.89854	0.04996
974.61277	0.04986
973.32700	0.04971
972.04123	0.04952
970.75546	0.04935
969.46970	0.04929
968.18393	0.04930
966.89816	0.04922
965.61239	0.04895
964.32662	0.04849
963.04085	0.04799
961.75508	0.04760
960.46931	0.04738
959.18354	0.04723
957.89778	0.04705
956.61201	0.04679
955.32624	0.04647
954.04047	0.04616
952.75470	0.04590
951.46893	0.04569
950.18316	0.04547
948.89739	0.04525
947.61163	0.04504
946.32586	0.04490
945.04009	0.04482
943.75432	0.04476
942.46855	0.04466
941.18278	0.04455
939.89701	0.04446
938.61124	0.04440
937.32547	0.04433
936.03971	0.04423
934.75394	0.04408
933.46817	0.04389
932.18240	0.04369
930.89663	0.04352
929.61086	0.04336
928.32509	0.04315
927.03932	0.04291
925.75356	0.04269
924.46779	0.04253
923.18202	0.04244
921.89625	0.04232
920.61048	0.04213
919.32471	0.04189
918.03894	0.04161
916.75317	0.04133
915.46740	0.04103
914.18164	0.04072
912.89587	0.04043
911.61010	0.04021
910.32433	0.04004
909.03856	0.03988
907.75279	0.03968
906.46702	0.03947
905.18125	0.03930
903.89549	0.03914
902.60972	0.03893
901.32395	0.03866
900.03818	0.03840
898.75241	0.03825
897.46664	0.03820
896.18087	0.03816
894.89510	0.03809
893.60933	0.03801
892.32357	0.03799
891.03780	0.03801
889.75203	0.03802
888.46626	0.03796
887.18049	0.03781
885.89472	0.03764
884.60895	0.03752
883.32318	0.03750
882.03742	0.03760
880.75165	0.03777
879.46588	0.03792
878.18011	0.03802
876.89434	0.03803
875.60857	0.03794
874.32280	0.03780
873.03703	0.03766
871.75126	0.03757
870.46550	0.03749
869.17973	0.03737
867.89396	0.03724
866.60819	0.03714
865.32242	0.03708
864.03665	0.03700
862.75088	0.03685
861.46511	0.03661
860.17935	0.03636
858.89358	0.03621
857.60781	0.03624
856.32204	0.03643
855.03627	0.03670
853.75050	0.03694
852.46473	0.03710
851.17896	0.03715
849.89319	0.03709
848.60743	0.03695
847.32166	0.03676
846.03589	0.03658
844.75012	0.03643
843.46435	0.03631
842.17858	0.03620
840.89281	0.03612
839.60704	0.03608
838.32128	0.03609
837.03551	0.03614
835.74974	0.03623
834.46397	0.03634
833.17820	0.03643
831.89243	0.03646
830.60666	0.03645
829.32089	0.03643
828.03512	0.03646
826.74936	0.03656
825.46359	0.03672
824.17782	0.03691
822.89205	0.03711
821.60628	0.03727
820.32051	0.03738
819.03474	0.03748
817.74897	0.03759
816.46321	0.03773
815.17744	0.03785
813.89167	0.03791
812.60590	0.03794
811.32013	0.03802
810.03436	0.03814
808.74859	0.03825
807.46282	0.03830
806.17705	0.03834
804.89129	0.03845
803.60552	0.03865
802.31975	0.03890
801.03398	0.03917
799.74821	0.03944
798.46244	0.03968
797.17667	0.03984
795.89090	0.03988
794.60513	0.03986
793.31937	0.03988
792.03360	0.04000
790.74783	0.04018
789.46206	0.04037
788.17629	0.04053
786.89052	0.04067
785.60475	0.04080
784.31898	0.04093
783.03322	0.04106
781.74745	0.04121
780.46168	0.04140
779.17591	0.04167
777.89014	0.04195
776.60437	0.04215
775.31860	0.04226
774.03283	0.04234
772.74706	0.04242
771.46130	0.04252
770.17553	0.04262
768.88976	0.04279
767.60399	0.04306
766.31822	0.04339
765.03245	0.04369
763.74668	0.04391
762.46091	0.04409
761.17515	0.04427
759.88938	0.04448
758.60361	0.04468
757.31784	0.04483
756.03207	0.04491
754.74630	0.04499
753.46053	0.04513
752.17476	0.04538
750.88899	0.04576
749.60323	0.04617
748.31746	0.04652
747.03169	0.04675
745.74592	0.04688
744.46015	0.04698
743.17438	0.04711
741.88861	0.04732
740.60284	0.04754
739.31708	0.04768
738.03131	0.04774
736.74554	0.04777
735.45977	0.04784
734.17400	0.04795
732.88823	0.04808
731.60246	0.04826
730.31669	0.04852
729.03092	0.04884
727.74516	0.04921
726.45939	0.04958
725.17362	0.04992
723.88785	0.05009
722.60208	0.05038
721.31631	0.05071
720.03054	0.05103
718.74477	0.05134
717.45901	0.05161
716.17324	0.05178
714.88747	0.05184
713.60170	0.05185
712.31593	0.05191
711.03016	0.05207
709.74439	0.05234
708.45862	0.05268
707.17285	0.05304
705.88709	0.05337
704.60132	0.05364
703.31555	0.05386
702.02978	0.05407
700.74401	0.05432
699.45824	0.05462
698.17247	0.05492
696.88670	0.05517
695.60094	0.05532
694.31517	0.05540
693.02940	0.05540
691.74363	0.05534
690.45786	0.05526
689.17209	0.05524
687.88632	0.05531
686.60055	0.05544
685.31478	0.05555
684.02902	0.05563
682.74325	0.05570
681.45748	0.05581
680.17171	0.05598
678.88594	0.05618
677.60017	0.05637
676.31440	0.05652
675.02863	0.05665
673.74287	0.05675
672.45710	0.05681
671.17133	0.05683
669.88556	0.05687
668.59979	0.05695
667.31402	0.05709
666.02825	0.05730
664.74248	0.05754
663.45671	0.05778
662.17095	0.05797
660.88518	0.05810
659.59941	0.05816
658.31364	0.05821
657.02787	0.05829
655.74210	0.05845
654.45633	0.05865
653.17056	0.05883
651.88480	0.05893
650.59903	0.05891
649.31326	0.05885
648.02749	0.05881
646.74172	0.05880
645.45595	0.05880
644.17018	0.05876
642.88441	0.05869
641.59864	0.05862
640.31288	0.05859
639.02711	0.05858
637.74134	0.05862
636.45557	0.05872
635.16980	0.05888
633.88403	0.05901
632.59826	0.05898
631.31249	0.05895
630.02673	0.05970
628.74096	0.06092
627.45519	0.05960
626.16942	0.06076
624.88365	0.06335
623.59788	0.06525
622.31211	0.06593
621.02634	0.06573
619.74057	0.06509
618.45481	0.06406
617.16904	0.06249
615.88327	0.06039
614.59750	0.05825
613.31173	0.05680
612.02596	0.05677
610.74019	0.05838
609.45442	0.06116
608.16866	0.06415
606.88289	0.06653
605.59712	0.06789
604.31135	0.06828
603.02558	0.06802
601.73981	0.06744
600.45404	0.06674
599.16827	0.06603
597.88250	0.06537
596.59674	0.06479
595.31097	0.06425
594.02520	0.06372
592.73943	0.06323
591.45366	0.06288
590.16789	0.06274
588.88212	0.06277
587.59635	0.06289
586.31059	0.06303
585.02482	0.06320
583.73905	0.06344
582.45328	0.06372
581.16751	0.06394
579.88174	0.06404
578.59597	0.06407
577.31020	0.06415
576.02443	0.06430
574.73867	0.06449
573.45290	0.06470
572.16713	0.06499
570.88136	0.06544
569.59559	0.06610
568.30982	0.06691
567.02405	0.06765
565.73828	0.06807
564.45251	0.06809
563.16675	0.06787
561.88098	0.06763
560.59521	0.06746
559.30944	0.06729
558.02367	0.06697
556.73790	0.06647
555.45213	0.06585
554.16636	0.06527
552.88060	0.06484
551.59483	0.06456
550.30906	0.06437
549.02329	0.06417
547.73752	0.06396
546.45175	0.06379
545.16598	0.06370
543.88021	0.06369
542.59444	0.06373
541.30868	0.06378
540.02291	0.06383
538.73714	0.06387
537.45137	0.06387
536.16560	0.06385
534.87983	0.06384
533.59406	0.06380
532.30829	0.06369
531.02253	0.06347
529.73676	0.06319
528.45099	0.06296
527.16522	0.06287
525.87945	0.06291
524.59368	0.06296
523.30791	0.06292
522.02214	0.06278
520.73637	0.06262
519.45061	0.06250
518.16484	0.06239
516.87907	0.06221
515.59330	0.06195
514.30753	0.06160
513.02176	0.06117
511.73599	0.06071
510.45022	0.06030
509.16446	0.05999
507.87869	0.05977
506.59292	0.05953
505.30715	0.05920
504.02138	0.05879
502.73561	0.05837
501.44984	0.05803
500.16407	0.05779
498.87830	0.05759
497.59254	0.05737
496.30677	0.05706
495.02100	0.05668
493.73523	0.05628
492.44946	0.05594
491.16369	0.05567
489.87792	0.05549
488.59215	0.05536
487.30639	0.05523
486.02062	0.05509
484.73485	0.05489
483.44908	0.05458
482.16331	0.05419
480.87754	0.05379
479.59177	0.05343
478.30600	0.05311
477.02023	0.05282
475.73447	0.05260
474.44870	0.05249
473.16293	0.05247
471.87716	0.05246
470.59139	0.05242
469.30562	0.05232
468.01985	0.05214
466.73408	0.05187
465.44832	0.05150
464.16255	0.05108
462.87678	0.05067
461.59101	0.05035
460.30524	0.05012
459.01947	0.04994
457.73370	0.04974
456.44793	0.04947
455.16216	0.04914
453.87640	0.04881
452.59063	0.04852
451.30486	0.04825
450.01909	0.04796
448.73332	0.04761
447.44755	0.04725
446.16178	0.04691
444.87601	0.04661
443.59025	0.04633
442.30448	0.04606
441.01871	0.04583
439.73294	0.04562
438.44717	0.04544
437.16140	0.04528
435.87563	0.04517
434.58986	0.04513
433.30409	0.04510
432.01833	0.04500
430.73256	0.04476
429.44679	0.04444
428.16102	0.04413
426.87525	0.04387
425.58948	0.04365
424.30371	0.04342
423.01794	0.04316
421.73218	0.04288
420.44641	0.04262
419.16064	0.04241
417.87487	0.04224
416.58910	0.04207
415.30333	0.04188
414.01756	0.04171
412.73179	0.04153
411.44602	0.04131
410.16026	0.04099
408.87449	0.04062
407.58872	0.04033
406.30295	0.04018
405.01718	0.04015
403.73141	0.04015
402.44564	0.04009
401.15987	0.03996
399.87411	0.03978
