3997.45528	0.04530
3996.16951	0.04475
3994.88374	0.04445
3993.59798	0.04445
3992.31221	0.04456
3991.02644	0.04470
3989.74067	0.04493
3988.45490	0.04536
3987.16913	0.04592
3985.88336	0.04649
3984.59759	0.04688
3983.31183	0.04693
3982.02606	0.04660
3980.74029	0.04615
3979.45452	0.04589
3978.16875	0.04588
3976.88298	0.04591
3975.59721	0.04584
3974.31144	0.04578
3973.02567	0.04593
3971.73991	0.04638
3970.45414	0.04704
3969.16837	0.04766
3967.88260	0.04791
3966.59683	0.04751
3965.31106	0.04651
3964.02529	0.04533
3962.73952	0.04446
3961.45376	0.04412
3960.16799	0.04413
3958.88222	0.04424
3957.59645	0.04437
3956.31068	0.04449
3955.02491	0.04448
3953.73914	0.04430
3952.45337	0.04409
3951.16760	0.04405
3949.88184	0.04425
3948.59607	0.04468
3947.31030	0.04532
3946.02453	0.04614
3944.73876	0.04698
3943.45299	0.04765
3942.16722	0.04794
3940.88145	0.04771
3939.59569	0.04706
3938.30992	0.04628
3937.02415	0.04562
3935.73838	0.04506
3934.45261	0.04448
3933.16684	0.04397
3931.88107	0.04382
3930.59530	0.04412
3929.30953	0.04469
3928.02377	0.04525
3926.73800	0.04558
3925.45223	0.04568
3924.16646	0.04564
3922.88069	0.04554
3921.59492	0.04539
3920.30915	0.04516
3919.02338	0.04474
3917.73762	0.04415
3916.45185	0.04359
3915.16608	0.04337
3913.88031	0.04359
3912.59454	0.04408
3911.30877	0.04451
3910.02300	0.04465
3908.73723	0.04443
3907.45146	0.04400
3906.16570	0.04366
3904.87993	0.04367
3903.59416	0.04405
3902.30839	0.04444
3901.02262	0.04439
3899.73685	0.04380
3898.45108	0.04303
3897.16531	0.04255
3895.87955	0.04247
3894.59378	0.04259
3893.30801	0.04266
3892.02224	0.04263
3890.73647	0.04264
3889.45070	0.04281
3888.16493	0.04310
3886.87916	0.04345
3885.59339	0.04380
3884.30763	0.04399
3883.02186	0.04387
3881.73609	0.04344
3880.45032	0.04290
3879.16455	0.04241
3877.87878	0.04200
3876.59301	0.04172
3875.30724	0.04169
3874.02148	0.04199
3872.73571	0.04240
3871.44994	0.04257
3870.16417	0.04243
3868.87840	0.04217
3867.59263	0.04192
3866.30686	0.04172
3865.02109	0.04161
3863.73532	0.04164
3862.44956	0.04178
3861.16379	0.04205
3859.87802	0.04249
3858.59225	0.04304
3857.30648	0.04349
3856.02071	0.04356
3854.73494	0.04324
3853.44917	0.04279
3852.16341	0.04252
3850.87764	0.04248
3849.59187	0.04263
3848.30610	0.04287
3847.02033	0.04304
3845.73456	0.04302
3844.44879	0.04283
3843.16302	0.04261
3841.87725	0.04245
3840.59149	0.04229
3839.30572	0.04213
3838.01995	0.04212
3836.73418	0.04231
3835.44841	0.04258
3834.16264	0.04269
3832.87687	0.04257
3831.59110	0.04226
3830.30534	0.04187
3829.01957	0.04157
3827.73380	0.04152
3826.44803	0.04176
3825.16226	0.04212
3823.87649	0.04228
3822.59072	0.04210
3821.30495	0.04180
3820.01918	0.04161
3818.73342	0.04148
3817.44765	0.04126
3816.16188	0.04114
3814.87611	0.04136
3813.59034	0.04178
3812.30457	0.04214
3811.01880	0.04232
3809.73303	0.04229
3808.44726	0.04210
3807.16150	0.04198
3805.87573	0.04218
3804.58996	0.04261
3803.30419	0.04294
3802.01842	0.04299
3800.73265	0.04272
3799.44688	0.04211
3798.16111	0.04122
3796.87535	0.04045
3795.58958	0.04016
3794.30381	0.04030
3793.01804	0.04058
3791.73227	0.04085
3790.44650	0.04112
3789.16073	0.04140
3787.87496	0.04159
3786.58919	0.04147
3785.30343	0.04088
3784.01766	0.03993
3782.73189	0.03902
3781.44612	0.03857
3780.16035	0.03870
3778.87458	0.03915
3777.58881	0.03955
3776.30304	0.03972
3775.01728	0.03975
3773.73151	0.03973
3772.44574	0.03957
3771.15997	0.03922
3769.87420	0.03882
3768.58843	0.03861
3767.30266	0.03869
3766.01689	0.03908
3764.73112	0.03972
3763.44536	0.04041
3762.15959	0.04087
3760.87382	0.04090
3759.58805	0.04054
3758.30228	0.03999
3757.01651	0.03949
3755.73074	0.03914
3754.44497	0.03900
3753.15921	0.03916
3751.87344	0.03958
3750.58767	0.03993
3749.30190	0.03996
3748.01613	0.03970
3746.73036	0.03930
3745.44459	0.03895
3744.15882	0.03890
3742.87305	0.03917
3741.58729	0.03953
3740.30152	0.03988
3739.01575	0.04017
3737.72998	0.04027
3736.44421	0.04010
3735.15844	0.03974
3733.87267	0.03929
3732.58690	0.03892
3731.30114	0.03880
3730.01537	0.03889
3728.72960	0.03893
3727.44383	0.03881
3726.15806	0.03866
3724.87229	0.03855
3723.58652	0.03844
3722.30075	0.03836
3721.01498	0.03841
3719.72922	0.03865
3718.44345	0.03897
3717.15768	0.03922
3715.87191	0.03934
3714.58614	0.03941
3713.30037	0.03964
3712.01460	0.04020
3710.72883	0.04092
3709.44307	0.04132
3708.15730	0.04100
3706.87153	0.04006
3705.58576	0.03899
3704.29999	0.03825
3703.01422	0.03798
3701.72845	0.03801
3700.44268	0.03811
3699.15691	0.03807
3697.87115	0.03785
3696.58538	0.03752
3695.29961	0.03720
3694.01384	0.03709
3692.72807	0.03742
3691.44230	0.03821
3690.15653	0.03914
3688.87076	0.03971
3687.58500	0.03970
3686.29923	0.03923
3685.01346	0.03866
3683.72769	0.03829
3682.44192	0.03814
3681.15615	0.03807
3679.87038	0.03816
3678.58461	0.03854
3677.29884	0.03918
3676.01308	0.03991
3674.72731	0.04058
3673.44154	0.04099
3672.15577	0.04101
3670.87000	0.04086
3669.58423	0.04082
3668.29846	0.04087
3667.01269	0.04082
3665.72693	0.04066
3664.44116	0.04055
3663.15539	0.04059
3661.86962	0.04077
3660.58385	0.04109
3659.29808	0.04152
3658.01231	0.04199
3656.72654	0.04240
3655.44077	0.04266
3654.15501	0.04264
3652.86924	0.04232
3651.58347	0.04191
3650.29770	0.04169
3649.01193	0.04174
3647.72616	0.04194
3646.44039	0.04221
3645.15462	0.04264
3643.86886	0.04331
3642.58309	0.04412
3641.29732	0.04487
3640.01155	0.04535
3638.72578	0.04555
3637.44001	0.04567
3636.15424	0.04593
3634.86847	0.04650
3633.58270	0.04739
3632.29694	0.04835
3631.01117	0.04904
3629.72540	0.04932
3628.43963	0.04942
3627.15386	0.04957
3625.86809	0.04981
3624.58232	0.05013
3623.29655	0.05048
3622.01079	0.05081
3620.72502	0.05106
3619.43925	0.05132
3618.15348	0.05165
3616.86771	0.05206
3615.58194	0.05247
3614.29617	0.05274
3613.01040	0.05282
3611.72463	0.05275
3610.43887	0.05266
3609.15310	0.05275
3607.86733	0.05309
3606.58156	0.05355
3605.29579	0.05393
3604.01002	0.05413
3602.72425	0.05425
3601.43848	0.05453
3600.15272	0.05510
3598.86695	0.05599
3597.58118	0.05710
3596.29541	0.05825
3595.00964	0.05922
3593.72387	0.05977
3592.43810	0.05995
3591.15233	0.05999
3589.86656	0.06009
3588.58080	0.06028
3587.29503	0.06056
3586.00926	0.06104
3584.72349	0.06178
3583.43772	0.06266
3582.15195	0.06340
3580.86618	0.06379
3579.58041	0.06380
3578.29464	0.06373
3577.00888	0.06397
3575.72311	0.06478
3574.43734	0.06597
3573.15157	0.06707
3571.86580	0.06775
3570.58003	0.06806
3569.29426	0.06827
3568.00849	0.06863
3566.72273	0.06918
3565.43696	0.06980
3564.15119	0.07023
3562.86542	0.07039
3561.57965	0.07040
3560.29388	0.07047
3559.00811	0.07069
3557.72234	0.07092
3556.43657	0.07102
3555.15081	0.07110
3553.86504	0.07140
3552.57927	0.07203
3551.29350	0.07283
3550.00773	0.07357
3548.72196	0.07424
3547.43619	0.07503
3546.15042	0.07602
3544.86466	0.07701
3543.57889	0.07766
3542.29312	0.07782
3541.00735	0.07761
3539.72158	0.07732
3538.43581	0.07727
3537.15004	0.07762
3535.86427	0.07836
3534.57850	0.07932
3533.29274	0.08022
3532.00697	0.08092
3530.72120	0.08138
3529.43543	0.08172
3528.14966	0.08206
3526.86389	0.08245
3525.57812	0.08284
3524.29235	0.08316
3523.00659	0.08345
3521.72082	0.08384
3520.43505	0.08447
3519.14928	0.08529
3517.86351	0.08610
3516.57774	0.08667
3515.29197	0.08688
3514.00620	0.08684
3512.72043	0.08689
3511.43467	0.08732
3510.14890	0.08812
3508.86313	0.08896
3507.57736	0.08947
3506.29159	0.08959
3505.00582	0.08958
3503.72005	0.08975
3502.43428	0.09016
3501.14852	0.09064
3499.86275	0.09102
3498.57698	0.09127
3497.29121	0.09146
3496.00544	0.09169
3494.71967	0.09201
3493.43390	0.09249
3492.14813	0.09318
3490.86236	0.09406
3489.57660	0.09501
3488.29083	0.09582
3487.00506	0.09631
3485.71929	0.09635
3484.43352	0.09611
3483.14775	0.09596
3481.86198	0.09623
3480.57621	0.09697
3479.29045	0.09787
3478.00468	0.09860
3476.71891	0.09904
3475.43314	0.09932
3474.14737	0.09960
3472.86160	0.09989
3471.57583	0.10010
3470.29006	0.10015
3469.00429	0.10012
3467.71853	0.10009
3466.43276	0.10015
3465.14699	0.10036
3463.86122	0.10076
3462.57545	0.10132
3461.28968	0.10189
3460.00391	0.10235
3458.71814	0.10263
3457.43238	0.10278
3456.14661	0.10293
3454.86084	0.10318
3453.57507	0.10352
3452.28930	0.10379
3451.00353	0.10384
3449.71776	0.10376
3448.43199	0.10374
3447.14622	0.10394
3445.86046	0.10435
3444.57469	0.10493
3443.28892	0.10563
3442.00315	0.10636
3440.71738	0.10696
3439.43161	0.10732
3438.14584	0.10750
3436.86007	0.10764
3435.57431	0.10787
3434.28854	0.10828
3433.00277	0.10886
3431.71700	0.10947
3430.43123	0.10991
3429.14546	0.11018
3427.85969	0.11049
3426.57392	0.11101
3425.28815	0.11174
3424.00239	0.11245
3422.71662	0.11291
3421.43085	0.11306
3420.14508	0.11303
3418.85931	0.11302
3417.57354	0.11321
3416.28777	0.11366
3415.00200	0.11427
3413.71624	0.11488
3412.43047	0.11532
3411.14470	0.11555
3409.85893	0.11566
3408.57316	0.11580
3407.28739	0.11610
3406.00162	0.11662
3404.71585	0.11737
3403.43008	0.11833
3402.14432	0.11929
3400.85855	0.11999
3399.57278	0.12024
3398.28701	0.12018
3397.00124	0.12011
3395.71547	0.12021
3394.42970	0.12046
3393.14393	0.12073
3391.85817	0.12100
3390.57240	0.12140
3389.28663	0.12199
3388.00086	0.12276
3386.71509	0.12357
3385.42932	0.12415
3384.14355	0.12432
3382.85778	0.12413
3381.57201	0.12391
3380.28625	0.12409
3379.00048	0.12479
3377.71471	0.12574
3376.42894	0.12653
3375.14317	0.12695
3373.85740	0.12708
3372.57163	0.12713
3371.28586	0.12724
3370.00010	0.12759
3368.71433	0.12825
3367.42856	0.12916
3366.14279	0.13012
3364.85702	0.13098
3363.57125	0.13169
3362.28548	0.13223
3360.99971	0.13258
3359.71394	0.13289
3358.42818	0.13338
3357.14241	0.13414
3355.85664	0.13504
3354.57087	0.13591
3353.28510	0.13666
3351.99933	0.13729
3350.71356	0.13782
3349.42779	0.13835
3348.14202	0.13909
3346.85626	0.14014
3345.57049	0.14133
3344.28472	0.14229
3342.99895	0.14274
3341.71318	0.14282
3340.42741	0.14294
3339.14164	0.14342
3337.85587	0.14424
3336.57011	0.14509
3335.28434	0.14571
3333.99857	0.14604
3332.71280	0.14627
3331.42703	0.14667
3330.14126	0.14742
3328.85549	0.14846
3327.56972	0.14948
3326.28395	0.15019
3324.99819	0.15057
3323.71242	0.15078
3322.42665	0.15103
3321.14088	0.15139
3319.85511	0.15183
3318.56934	0.15230
3317.28357	0.15268
3315.99780	0.15289
3314.71204	0.15298
3313.42627	0.15323
3312.14050	0.15385
3310.85473	0.15475
3309.56896	0.15561
3308.28319	0.15623
3306.99742	0.15673
3305.71165	0.15723
3304.42588	0.15778
3303.14012	0.15836
3301.85435	0.15904
3300.56858	0.15987
3299.28281	0.16073
3297.99704	0.16136
3296.71127	0.16160
3295.42550	0.16149
3294.13973	0.16130
3292.85397	0.16130
3291.56820	0.16158
3290.28243	0.16205
3288.99666	0.16254
3287.71089	0.16297
3286.42512	0.16331
3285.13935	0.16357
3283.85358	0.16365
3282.56781	0.16349
3281.28205	0.16319
3279.99628	0.16296
3278.71051	0.16294
3277.42474	0.16305
3276.13897	0.16310
3274.85320	0.16300
3273.56743	0.16283
3272.28166	0.16259
3270.99590	0.16217
3269.71013	0.16151
3268.42436	0.16079
3267.13859	0.16028
3265.85282	0.16009
3264.56705	0.16008
3263.28128	0.16001
3261.99551	0.15975
3260.70974	0.15932
3259.42398	0.15880
3258.13821	0.15833
3256.85244	0.15802
3255.56667	0.15789
3254.28090	0.15787
3252.99513	0.15784
3251.70936	0.15778
3250.42359	0.15764
3249.13783	0.15738
3247.85206	0.15691
3246.56629	0.15624
3245.28052	0.15550
3243.99475	0.15487
3242.70898	0.15446
3241.42321	0.15423
3240.13744	0.15405
3238.85167	0.15384
3237.56591	0.15356
3236.28014	0.15322
3234.99437	0.15281
3233.70860	0.15232
3232.42283	0.15177
3231.13706	0.15133
3229.85129	0.15114
3228.56552	0.15124
3227.27976	0.15146
3225.99399	0.15151
3224.70822	0.15124
3223.42245	0.15073
3222.13668	0.15035
3220.85091	0.15039
3219.56514	0.15081
3218.27937	0.15117
3216.99360	0.15107
3215.70784	0.15049
3214.42207	0.14977
3213.13630	0.14919
3211.85053	0.14875
3210.56476	0.14834
3209.27899	0.14792
3207.99322	0.14751
3206.70745	0.14704
3205.42169	0.14646
3204.13592	0.14579
3202.85015	0.14519
3201.56438	0.14481
3200.27861	0.14471
3198.99284	0.14482
3197.70707	0.14496
3196.42130	0.14492
3195.13553	0.14456
3193.84977	0.14399
3192.56400	0.14345
3191.27823	0.14307
3189.99246	0.14278
3188.70669	0.14244
3187.42092	0.14205
3186.13515	0.14173
3184.84938	0.14147
3183.56362	0.14118
3182.27785	0.14074
3180.99208	0.14020
3179.70631	0.13964
3178.42054	0.13914
3177.13477	0.13867
3175.84900	0.13822
3174.56323	0.13785
3173.27746	0.13766
3171.99170	0.13764
3170.70593	0.13764
3169.42016	0.13737
3168.13439	0.13672
3166.84862	0.13585
3165.56285	0.13506
3164.27708	0.13445
3162.99131	0.13390
3161.70555	0.13327
3160.41978	0.13267
3159.13401	0.13227
3157.84824	0.13211
3156.56247	0.13202
3155.27670	0.13177
3153.99093	0.13129
3152.70516	0.13066
3151.41939	0.13001
3150.13363	0.12947
3148.84786	0.12914
3147.56209	0.12900
3146.27632	0.12896
3144.99055	0.12885
3143.70478	0.12861
3142.41901	0.12828
3141.13324	0.12793
3139.84748	0.12758
3138.56171	0.12719
3137.27594	0.12674
3135.99017	0.12624
3134.70440	0.12572
3133.41863	0.12525
3132.13286	0.12494
3130.84709	0.12483
3129.56132	0.12481
3128.27556	0.12476
3126.98979	0.12463
3125.70402	0.12449
3124.41825	0.12435
3123.13248	0.12423
3121.84671	0.12411
3120.56094	0.12395
3119.27517	0.12372
3117.98940	0.12343
3116.70364	0.12322
3115.41787	0.12320
3114.13210	0.12329
3112.84633	0.12333
3111.56056	0.12329
3110.27479	0.12334
3108.98902	0.12364
3107.70325	0.12413
3106.41749	0.12456
3105.13172	0.12478
3103.84595	0.12484
3102.56018	0.12492
3101.27441	0.12511
3099.98864	0.12541
3098.70287	0.12572
3097.41710	0.12590
3096.13133	0.12588
3094.84557	0.12570
3093.55980	0.12552
3092.27403	0.12549
3090.98826	0.12570
3089.70249	0.12612
3088.41672	0.12660
3087.13095	0.12689
3085.84518	0.12684
3084.55942	0.12654
3083.27365	0.12630
3081.98788	0.12636
3080.70211	0.12673
3079.41634	0.12722
3078.13057	0.12768
3076.84480	0.12800
3075.55903	0.12812
3074.27326	0.12810
3072.98750	0.12804
3071.70173	0.12804
3070.41596	0.12803
3069.13019	0.12789
3067.84442	0.12759
3066.55865	0.12725
3065.27288	0.12706
3063.98711	0.12706
3062.70135	0.12713
3061.41558	0.12720
3060.12981	0.12726
3058.84404	0.12724
3057.55827	0.12702
3056.27250	0.12659
3054.98673	0.12611
3053.70096	0.12579
3052.41519	0.12559
3051.12943	0.12530
3049.84366	0.12480
3048.55789	0.12423
3047.27212	0.12379
3045.98635	0.12356
3044.70058	0.12342
3043.41481	0.12323
3042.12904	0.12295
3040.84328	0.12264
3039.55751	0.12243
3038.27174	0.12233
3036.98597	0.12232
3035.70020	0.12228
3034.41443	0.12207
3033.12866	0.12166
3031.84289	0.12116
3030.55712	0.12069
3029.27136	0.12024
3027.98559	0.11974
3026.69982	0.11917
3025.41405	0.11862
3024.12828	0.11818
3022.84251	0.11785
3021.55674	0.11762
3020.27097	0.11747
3018.98521	0.11744
3017.69944	0.11751
3016.41367	0.11759
3015.12790	0.11760
3013.84213	0.11747
3012.55636	0.11723
3011.27059	0.11692
3009.98482	0.11657
3008.69905	0.11623
3007.41329	0.11600
3006.12752	0.11593
3004.84175	0.11600
3003.55598	0.11609
3002.27021	0.11610
3000.98444	0.11598
2999.69867	0.11576
2998.41290	0.11569
2997.12714	0.11580
2995.84137	0.11610
2994.55560	0.11652
2993.26983	0.11689
2991.98406	0.11704
2990.69829	0.11697
2989.41252	0.11682
2988.12675	0.11686
2986.84098	0.11720
2985.55522	0.11780
2984.26945	0.11845
2982.98368	0.11906
2981.69791	0.11963
2980.41214	0.12016
2979.12637	0.12060
2977.84060	0.12093
2976.55483	0.12127
2975.26907	0.12174
2973.98330	0.12232
2972.69753	0.12288
2971.41176	0.12331
2970.12599	0.12364
2968.84022	0.12399
2967.55445	0.12442
2966.26868	0.12496
2964.98291	0.12564
2963.69715	0.12635
2962.41138	0.12688
2961.12561	0.12711
2959.83984	0.12713
2958.55407	0.12722
2957.26830	0.12749
2955.98253	0.12775
2954.69676	0.12774
2953.41100	0.12745
2952.12523	0.12716
2950.83946	0.12716
2949.55369	0.12748
2948.26792	0.12788
2946.98215	0.12816
2945.69638	0.12826
2944.41061	0.12830
2943.12484	0.12846
2941.83908	0.12881
2940.55331	0.12921
2939.26754	0.12948
2937.98177	0.12961
2936.69600	0.12978
2935.41023	0.13009
2934.12446	0.13048
2932.83869	0.13090
2931.55293	0.13137
2930.26716	0.13189
2928.98139	0.13231
2927.69562	0.13250
2926.40985	0.13247
2925.12408	0.13228
2923.83831	0.13195
2922.55254	0.13146
2921.26677	0.13084
2919.98101	0.13021
2918.69524	0.12958
2917.40947	0.12888
2916.12370	0.12804
2914.83793	0.12716
2913.55216	0.12634
2912.26639	0.12554
2910.98062	0.12464
2909.69486	0.12366
2908.40909	0.12271
2907.12332	0.12185
2905.83755	0.12111
2904.55178	0.12055
2903.26601	0.12019
2901.98024	0.12001
2900.69447	0.11989
2899.40870	0.11969
2898.12294	0.11937
2896.83717	0.11891
2895.55140	0.11836
2894.26563	0.11777
2892.97986	0.11724
2891.69409	0.11687
2890.40832	0.11667
2889.12255	0.11661
2887.83678	0.11667
2886.55102	0.11685
2885.26525	0.11711
2883.97948	0.11731
2882.69371	0.11725
2881.40794	0.11693
2880.12217	0.11658
2878.83640	0.11649
2877.55063	0.11672
2876.26487	0.11706
2874.97910	0.11725
2873.69333	0.11722
2872.40756	0.11709
2871.12179	0.11697
2869.83602	0.11686
2868.55025	0.11663
2867.26448	0.11621
2865.97871	0.11568
2864.69295	0.11524
2863.40718	0.11504
2862.12141	0.11501
2860.83564	0.11499
2859.54987	0.11485
2858.26410	0.11467
2856.97833	0.11458
2855.69256	0.11462
2854.40680	0.11465
2853.12103	0.11447
2851.83526	0.11395
2850.54949	0.11313
2849.26372	0.11224
2847.97795	0.11152
2846.69218	0.11098
2845.40641	0.11039
2844.12064	0.10959
2842.83488	0.10867
2841.54911	0.10786
2840.26334	0.10733
2838.97757	0.10705
2837.69180	0.10685
2836.40603	0.10660
2835.12026	0.10629
2833.83449	0.10599
2832.54873	0.10575
2831.26296	0.10555
2829.97719	0.10529
2828.69142	0.10492
2827.40565	0.10447
2826.11988	0.10404
2824.83411	0.10369
2823.54834	0.10339
2822.26257	0.10313
2820.97681	0.10290
2819.69104	0.10272
2818.40527	0.10256
2817.11950	0.10233
2815.83373	0.10198
2814.54796	0.10157
2813.26219	0.10124
2811.97642	0.10117
2810.69066	0.10132
2809.40489	0.10145
2808.11912	0.10130
2806.83335	0.10086
2805.54758	0.10037
2804.26181	0.10006
2802.97604	0.10001
2801.69027	0.10009
2800.40450	0.10008
2799.11874	0.09987
2797.83297	0.09950
2796.54720	0.09911
2795.26143	0.09880
2793.97566	0.09857
2792.68989	0.09837
2791.40412	0.09813
2790.11835	0.09781
2788.83259	0.09744
2787.54682	0.09710
2786.26105	0.09689
2784.97528	0.09680
2783.68951	0.09670
2782.40374	0.09648
2781.11797	0.09613
2779.83220	0.09577
2778.54643	0.09552
2777.26067	0.09541
2775.97490	0.09535
2774.68913	0.09525
2773.40336	0.09508
2772.11759	0.09492
2770.83182	0.09487
2769.54605	0.09488
2768.26028	0.09480
2766.97452	0.09456
2765.68875	0.09423
2764.40298	0.09389
2763.11721	0.09354
2761.83144	0.09311
2760.54567	0.09263
2759.25990	0.09223
2757.97413	0.09196
2756.68836	0.09180
2755.40260	0.09170
2754.11683	0.09163
2752.83106	0.09158
2751.54529	0.09146
2750.25952	0.09125
2748.97375	0.09098
2747.68798	0.09073
2746.40221	0.09051
2745.11645	0.09026
2743.83068	0.08997
2742.54491	0.08969
2741.25914	0.08944
2739.97337	0.08916
2738.68760	0.08882
2737.40183	0.08850
2736.11606	0.08827
2734.83029	0.08812
2733.54453	0.08797
2732.25876	0.08782
2730.97299	0.08771
2729.68722	0.08767
2728.40145	0.08760
2727.11568	0.08741
2725.82991	0.08709
2724.54414	0.08675
2723.25838	0.08648
2721.97261	0.08631
2720.68684	0.08613
2719.40107	0.08588
2718.11530	0.08555
2716.82953	0.08522
2715.54376	0.08498
2714.25799	0.08480
2712.97222	0.08461
2711.68646	0.08433
2710.40069	0.08395
2709.11492	0.08360
2707.82915	0.08336
2706.54338	0.08327
2705.25761	0.08324
2703.97184	0.08317
2702.68607	0.08307
2701.40031	0.08299
2700.11454	0.08294
2698.82877	0.08283
2697.54300	0.08256
2696.25723	0.08219
2694.97146	0.08183
2693.68569	0.08153
2692.39992	0.08124
2691.11415	0.08093
2689.82839	0.08067
2688.54262	0.08052
2687.25685	0.08047
2685.97108	0.08042
2684.68531	0.08029
2683.39954	0.08010
2682.11377	0.07987
2680.82800	0.07960
2679.54224	0.07929
2678.25647	0.07898
2676.97070	0.07872
2675.68493	0.07851
2674.39916	0.07832
2673.11339	0.07811
2671.82762	0.07790
2670.54185	0.07778
2669.25608	0.07781
2667.97032	0.07794
2666.68455	0.07797
2665.39878	0.07775
2664.11301	0.07730
2662.82724	0.07685
2661.54147	0.07659
2660.25570	0.07649
2658.96993	0.07644
2657.68417	0.07634
2656.39840	0.07621
2655.11263	0.07605
2653.82686	0.07582
2652.54109	0.07549
2651.25532	0.07506
2649.96955	0.07459
2648.68378	0.07413
2647.39801	0.07374
2646.11225	0.07347
2644.82648	0.07332
2643.54071	0.07323
2642.25494	0.07310
2640.96917	0.07287
2639.68340	0.07259
2638.39763	0.07229
2637.11186	0.07195
2635.82609	0.07151
2634.54033	0.07098
2633.25456	0.07049
2631.96879	0.07016
2630.68302	0.06998
2629.39725	0.06979
2628.11148	0.06949
2626.82571	0.06915
2625.53994	0.06893
2624.25418	0.06887
2622.96841	0.06889
2621.68264	0.06890
2620.39687	0.06884
2619.11110	0.06863
2617.82533	0.06830
2616.53956	0.06797
2615.25379	0.06765
2613.96802	0.06723
2612.68226	0.06665
2611.39649	0.06602
2610.11072	0.06553
2608.82495	0.06524
2607.53918	0.06503
2606.25341	0.06482
2604.96764	0.06461
2603.68187	0.06442
2602.39611	0.06424
2601.11034	0.06404
2599.82457	0.06388
2598.53880	0.06383
2597.25303	0.06391
2595.96726	0.06392
2594.68149	0.06373
2593.39572	0.06337
2592.10995	0.06303
2590.82419	0.06283
2589.53842	0.06279
2588.25265	0.06283
2586.96688	0.06286
2585.68111	0.06277
2584.39534	0.06248
2583.10957	0.06206
2581.82380	0.06165
2580.53804	0.06136
2579.25227	0.06127
2577.96650	0.06138
2576.68073	0.06159
2575.39496	0.06169
2574.10919	0.06146
2572.82342	0.06092
2571.53765	0.06030
2570.25188	0.05988
2568.96612	0.05983
2567.68035	0.06011
2566.39458	0.06060
2565.10881	0.06116
2563.82304	0.06162
2562.53727	0.06178
2561.25150	0.06161
2559.96573	0.06126
2558.67997	0.06094
2557.39420	0.06073
2556.10843	0.06058
2554.82266	0.06049
2553.53689	0.06047
2552.25112	0.06051
2550.96535	0.06050
2549.67958	0.06037
2548.39381	0.06014
2547.10805	0.05988
2545.82228	0.05964
2544.53651	0.05941
2543.25074	0.05919
2541.96497	0.05898
2540.67920	0.05877
2539.39343	0.05866
2538.10766	0.05877
2536.82190	0.05909
2535.53613	0.05938
2534.25036	0.05938
2532.96459	0.05909
2531.67882	0.05866
2530.39305	0.05824
2529.10728	0.05786
2527.82151	0.05757
2526.53574	0.05744
2525.24998	0.05750
2523.96421	0.05767
2522.67844	0.05791
2521.39267	0.05825
2520.10690	0.05870
2518.82113	0.05912
2517.53536	0.05933
2516.24959	0.05925
2514.96383	0.05891
2513.67806	0.05841
2512.39229	0.05786
2511.10652	0.05741
2509.82075	0.05725
2508.53498	0.05738
2507.24921	0.05764
2505.96344	0.05789
2504.67767	0.05803
2503.39191	0.05806
2502.10614	0.05811
2500.82037	0.05830
2499.53460	0.05858
2498.24883	0.05869
2496.96306	0.05849
2495.67729	0.05809
2494.39152	0.05784
2493.10576	0.05798
2491.81999	0.05841
2490.53422	0.05874
2489.24845	0.05852
2487.96268	0.05771
2486.67691	0.05672
2485.39114	0.05616
2484.10537	0.05626
2482.81960	0.05674
2481.53384	0.05713
2480.24807	0.05729
2478.96230	0.05737
2477.67653	0.05755
2476.39076	0.05779
2475.10499	0.05796
2473.81922	0.05800
2472.53345	0.05793
2471.24769	0.05778
2469.96192	0.05759
2468.67615	0.05747
2467.39038	0.05752
2466.10461	0.05772
2464.81884	0.05793
2463.53307	0.05807
2462.24730	0.05813
2460.96153	0.05821
2459.67577	0.05831
2458.39000	0.05838
2457.10423	0.05833
2455.81846	0.05815
2454.53269	0.05796
2453.24692	0.05793
2451.96115	0.05805
2450.67538	0.05816
2449.38962	0.05814
2448.10385	0.05806
2446.81808	0.05802
2445.53231	0.05802
2444.24654	0.05796
2442.96077	0.05788
2441.67500	0.05795
2440.38923	0.05824
2439.10346	0.05859
2437.81770	0.05885
2436.53193	0.05894
2435.24616	0.05892
2433.96039	0.05880
2432.67462	0.05865
2431.38885	0.05857
2430.10308	0.05865
2428.81731	0.05884
2427.53155	0.05900
2426.24578	0.05903
2424.96001	0.05892
2423.67424	0.05875
2422.38847	0.05859
2421.10270	0.05846
2419.81693	0.05837
2418.53116	0.05826
2417.24539	0.05818
2415.95963	0.05812
2414.67386	0.05810
2413.38809	0.05813
2412.10232	0.05827
2410.81655	0.05844
2409.53078	0.05847
2408.24501	0.05823
2406.95924	0.05785
2405.67347	0.05753
2404.38771	0.05743
2403.10194	0.05758
2401.81617	0.05789
2400.53040	0.05820
2399.24463	0.05828
2397.95886	0.05818
2396.67309	0.05799
2395.38732	0.05777
2394.10156	0.05758
2392.81579	0.05747
2391.53002	0.05749
2390.24425	0.05771
2388.95848	0.05815
2387.67271	0.05868
2386.38694	0.05913
2385.10117	0.05935
2383.81540	0.05931
2382.52964	0.05909
2381.24387	0.05882
2379.95810	0.05860
2378.67233	0.05852
2377.38656	0.05864
2376.10079	0.05892
2374.81502	0.05924
2373.52925	0.05947
2372.24349	0.05956
2370.95772	0.05954
2369.67195	0.05955
2368.38618	0.05962
2367.10041	0.05972
2365.81464	0.05978
2364.52887	0.05983
2363.24310	0.05998
2361.95733	0.06029
2360.67157	0.06068
2359.38580	0.06097
2358.10003	0.06103
2356.81426	0.06087
2355.52849	0.06058
2354.24272	0.06026
2352.95695	0.05999
2351.67118	0.05981
2350.38542	0.05969
2349.09965	0.05960
2347.81388	0.05953
2346.52811	0.05954
2345.24234	0.05968
2343.95657	0.05993
2342.67080	0.06018
2341.38503	0.06033
2340.09926	0.06035
2338.81350	0.06027
2337.52773	0.06011
2336.24196	0.05984
2334.95619	0.05948
2333.67042	0.05912
2332.38465	0.05883
2331.09888	0.05862
2329.81311	0.05848
2328.52735	0.05844
2327.24158	0.05856
2325.95581	0.05876
2324.67004	0.05883
2323.38427	0.05863
2322.09850	0.05819
2320.81273	0.05769
2319.52696	0.05725
2318.24119	0.05685
2316.95543	0.05642
2315.66966	0.05595
2314.38389	0.05552
2313.09812	0.05514
2311.81235	0.05479
2310.52658	0.05439
2309.24081	0.05392
2307.95504	0.05346
2306.66928	0.05311
2305.38351	0.05294
2304.09774	0.05287
2302.81197	0.05281
2301.52620	0.05266
2300.24043	0.05236
2298.95466	0.05189
2297.66889	0.05136
2296.38312	0.05088
2295.09736	0.05047
2293.81159	0.05007
2292.52582	0.04964
2291.24005	0.04923
2289.95428	0.04893
2288.66851	0.04876
2287.38274	0.04869
2286.09697	0.04870
2284.81121	0.04875
2283.52544	0.04872
2282.23967	0.04844
2280.95390	0.04785
2279.66813	0.04704
2278.38236	0.04616
2277.09659	0.04541
2275.81082	0.04493
2274.52505	0.04472
2273.23929	0.04465
2271.95352	0.04450
2270.66775	0.04418
2269.38198	0.04372
2268.09621	0.04323
2266.81044	0.04283
2265.52467	0.04266
2264.23890	0.04274
2262.95314	0.04290
2261.66737	0.04290
2260.38160	0.04267
2259.09583	0.04238
2257.81006	0.04217
2256.52429	0.04195
2255.23852	0.04161
2253.95275	0.04122
2252.66698	0.04094
2251.38122	0.04080
2250.09545	0.04068
2248.80968	0.04035
2247.52391	0.03945
2246.23814	0.03845
2244.95237	0.03784
2243.66660	0.03804
2242.38083	0.03901
2241.09507	0.04008
2239.80930	0.04040
2238.52353	0.03967
2237.23776	0.03838
2235.95199	0.03726
2234.66622	0.03663
2233.38045	0.03638
2232.09468	0.03617
2230.80891	0.03584
2229.52315	0.03545
2228.23738	0.03510
2226.95161	0.03478
2225.66584	0.03433
2224.38007	0.03373
2223.09430	0.03312
2221.80853	0.03255
2220.52276	0.03192
2219.23700	0.03122
2217.95123	0.03074
2216.66546	0.03082
2215.37969	0.03138
2214.09392	0.03190
2212.80815	0.03198
2211.52238	0.03167
2210.23661	0.03132
2208.95084	0.03123
2207.66508	0.03136
2206.37931	0.03133
2205.09354	0.03077
2203.80777	0.02972
2202.52200	0.02870
2201.23623	0.02818
2199.95046	0.02813
2198.66469	0.02827
2197.37893	0.02853
2196.09316	0.02891
2194.80739	0.02910
2193.52162	0.02866
2192.23585	0.02763
2190.95008	0.02663
2189.66431	0.02620
2188.37854	0.02625
2187.09277	0.02640
2185.80701	0.02654
2184.52124	0.02682
2183.23547	0.02715
2181.94970	0.02719
2180.66393	0.02679
2179.37816	0.02626
2178.09239	0.02587
2176.80662	0.02560
2175.52085	0.02533
2174.23509	0.02504
2172.94932	0.02472
2171.66355	0.02425
2170.37778	0.02357
2169.09201	0.02280
2167.80624	0.02209
2166.52047	0.02163
2165.23470	0.02157
2163.94894	0.02176
2162.66317	0.02157
2161.37740	0.02038
2160.09163	0.01835
2158.80586	0.01662
2157.52009	0.01620
2156.23432	0.01698
2154.94855	0.01812
2153.66278	0.01903
2152.37702	0.01978
2151.09125	0.02060
2149.80548	0.02138
2148.51971	0.02186
2147.23394	0.02212
2145.94817	0.02251
2144.66240	0.02309
2143.37663	0.02351
2142.09087	0.02364
2140.80510	0.02382
2139.51933	0.02450
2138.23356	0.02559
2136.94779	0.02656
2135.66202	0.02702
2134.37625	0.02702
2133.09048	0.02702
2131.80471	0.02737
2130.51895	0.02810
2129.23318	0.02898
2127.94741	0.02973
2126.66164	0.03030
2125.37587	0.03078
2124.09010	0.03123
2122.80433	0.03158
2121.51856	0.03169
2120.23280	0.03157
2118.94703	0.03138
2117.66126	0.03126
2116.37549	0.03117
2115.08972	0.03098
2113.80395	0.03073
2112.51818	0.03053
2111.23241	0.03035
2109.94664	0.03005
2108.66088	0.02956
2107.37511	0.02910
2106.08934	0.02902
2104.80357	0.02944
2103.51780	0.03019
2102.23203	0.03084
2100.94626	0.03128
2099.66049	0.03499
2098.37473	0.03656
2097.08896	0.03607
2095.80319	0.03490
2094.51742	0.03349
2093.23165	0.03210
2091.94588	0.03099
2090.66011	0.03021
2089.37434	0.02969
2088.08857	0.02934
2086.80281	0.02919
2085.51704	0.02925
2084.23127	0.02946
2082.94550	0.02973
2081.65973	0.02999
2080.37396	0.03027
2079.08819	0.03069
2077.80242	0.03135
2076.51666	0.03211
2075.23089	0.03261
2073.94512	0.03250
2072.65935	0.03183
2071.37358	0.03108
2070.08781	0.03073
2068.80204	0.03085
2067.51627	0.03115
2066.23050	0.03130
2064.94474	0.03114
2063.65897	0.03059
2062.37320	0.02956
2061.08743	0.02809
2059.80166	0.02646
2058.51589	0.02498
2057.23012	0.02382
2055.94435	0.02301
2054.65859	0.02266
2053.37282	0.02301
2052.08705	0.02425
2050.80128	0.02617
2049.51551	0.02812
2048.22974	0.02946
2046.94397	0.02997
2045.65820	0.02977
2044.37243	0.02906
2043.08667	0.02806
2041.80090	0.02708
2040.51513	0.02645
2039.22936	0.02631
2037.94359	0.02662
2036.65782	0.02718
2035.37205	0.02765
2034.08628	0.02767
2032.80052	0.02706
2031.51475	0.02604
2030.22898	0.02508
2028.94321	0.02455
2027.65744	0.02439
2026.37167	0.02422
2025.08590	0.02380
2023.80013	0.02325
2022.51436	0.02286
2021.22860	0.02274
2019.94283	0.02277
2018.65706	0.02268
2017.37129	0.02241
2016.08552	0.02224
2014.79975	0.02270
2013.51398	0.02409
2012.22821	0.02614
2010.94245	0.02809
2009.65668	0.02924
2008.37091	0.02945
2007.08514	0.02902
2005.79937	0.02826
2004.51360	0.02724
2003.22783	0.02585
2001.94206	0.02407
2000.65629	0.02209
1999.37053	0.02037
1998.08476	0.01946
1996.79899	0.01963
1995.51322	0.02058
1994.22745	0.02160
1992.94168	0.02211
1991.65591	0.02202
1990.37014	0.02150
1989.08438	0.02086
1987.79861	0.02049
1986.51284	0.02070
1985.22707	0.02159
1983.94130	0.02310
1982.65553	0.02527
1981.36976	0.02813
1980.08399	0.03131
1978.79822	0.03402
1977.51246	0.03546
1976.22669	0.03535
1974.94092	0.03413
1973.65515	0.03261
1972.36938	0.03135
1971.08361	0.03039
1969.79784	0.02948
1968.51207	0.02849
1967.22631	0.02756
1965.94054	0.02698
1964.65477	0.02688
1963.36900	0.02711
1962.08323	0.02736
1960.79746	0.02735
1959.51169	0.02695
1958.22592	0.02617
1956.94015	0.02513
1955.65439	0.02418
1954.36862	0.02379
1953.08285	0.02427
1951.79708	0.02536
1950.51131	0.02647
1949.22554	0.02715
1947.93977	0.02749
1946.65400	0.02774
1945.36823	0.02800
1944.08247	0.02822
1942.79670	0.02853
1941.51093	0.02915
1940.22516	0.02998
1938.93939	0.03057
1937.65362	0.03063
1936.36785	0.03037
1935.08208	0.03014
1933.79632	0.03014
1932.51055	0.03029
1931.22478	0.03049
1929.93901	0.03065
1928.65324	0.03066
1927.36747	0.03051
1926.08170	0.03028
1924.79593	0.03014
1923.51016	0.03020
1922.22440	0.03043
1920.93863	0.03070
1919.65286	0.03093
1918.36709	0.03112
1917.08132	0.03130
1915.79555	0.03147
1914.50978	0.03162
1913.22401	0.03182
1911.93825	0.03206
1910.65248	0.03224
1909.36671	0.03223
1908.08094	0.03208
1906.79517	0.03201
1905.50940	0.03217
1904.22363	0.03245
1902.93786	0.03257
1901.65209	0.03237
1900.36633	0.03196
1899.08056	0.03160
1897.79479	0.03147
1896.50902	0.03161
1895.22325	0.03194
1893.93748	0.03232
1892.65171	0.03258
1891.36594	0.03267
1890.08018	0.03263
1888.79441	0.03254
1887.50864	0.03248
1886.22287	0.03248
1884.93710	0.03260
1883.65133	0.03276
1882.36556	0.03282
1881.07979	0.03270
1879.79402	0.03248
1878.50826	0.03234
1877.22249	0.03236
1875.93672	0.03244
1874.65095	0.03246
1873.36518	0.03242
1872.07941	0.03241
1870.79364	0.03247
1869.50787	0.03259
1868.22211	0.03277
1866.93634	0.03304
1865.65057	0.03332
1864.36480	0.03348
1863.07903	0.03348
1861.79326	0.03341
1860.50749	0.03334
1859.22172	0.03326
1857.93595	0.03313
1856.65019	0.03297
1855.36442	0.03288
1854.07865	0.03290
1852.79288	0.03294
1851.50711	0.03291
1850.22134	0.03278
1848.93557	0.03265
1847.64980	0.03261
1846.36404	0.03264
1845.07827	0.03269
1843.79250	0.03272
1842.50673	0.03269
1841.22096	0.03261
1839.93519	0.03258
1838.64942	0.03268
1837.36365	0.03286
1836.07788	0.03299
1834.79212	0.03296
1833.50635	0.03282
1832.22058	0.03272
1830.93481	0.03281
1829.64904	0.03314
1828.36327	0.03361
1827.07750	0.03412
1825.79173	0.03466
1824.50597	0.03527
1823.22020	0.03598
1821.93443	0.03665
1820.64866	0.03705
1819.36289	0.03690
1818.07712	0.03613
1816.79135	0.03501
1815.50558	0.03395
1814.21981	0.03323
1812.93405	0.03286
1811.64828	0.03276
1810.36251	0.03284
1809.07674	0.03302
1807.79097	0.03322
1806.50520	0.03343
1805.21943	0.03368
1803.93366	0.03396
1802.64790	0.03423
1801.36213	0.03441
1800.07636	0.03452
1798.79059	0.03464
1797.50482	0.03482
1796.21905	0.03504
1794.93328	0.03522
1793.64751	0.03528
1792.36174	0.03526
1791.07598	0.03526
1789.79021	0.03535
1788.50444	0.03553
1787.21867	0.03576
1785.93290	0.03596
1784.64713	0.03607
1783.36136	0.03609
1782.07559	0.03605
1780.78983	0.03601
1779.50406	0.03598
1778.21829	0.03596
1776.93252	0.03591
1775.64675	0.03585
1774.36098	0.03579
1773.07521	0.03578
1771.78944	0.03580
1770.50367	0.03578
1769.21791	0.03564
1767.93214	0.03544
1766.64637	0.03533
1765.36060	0.03537
1764.07483	0.03553
1762.78906	0.03573
1761.50329	0.03592
1760.21752	0.03608
1758.93176	0.03623
1757.64599	0.03642
1756.36022	0.03667
1755.07445	0.03697
1753.78868	0.03727
1752.50291	0.03759
1751.21714	0.03797
1749.93137	0.03841
1748.64560	0.03882
1747.35984	0.03915
1746.07407	0.03948
1744.78830	0.03989
1743.50253	0.04038
1742.21676	0.04088
1740.93099	0.04131
1739.64522	0.04167
1738.35945	0.04206
1737.07369	0.04249
1735.78792	0.04293
1734.50215	0.04339
1733.21638	0.04389
1731.93061	0.04435
1730.64484	0.04470
1729.35907	0.04495
1728.07330	0.04519
1726.78753	0.04548
1725.50177	0.04581
1724.21600	0.04616
1722.93023	0.04656
1721.64446	0.04702
1720.35869	0.04755
1719.07292	0.04811
1717.78715	0.04871
1716.50138	0.04934
1715.21561	0.04994
1713.92985	0.05051
1712.64408	0.05112
1711.35831	0.05189
1710.07254	0.05289
1708.78677	0.05412
1707.50100	0.05551
1706.21523	0.05701
1704.92946	0.05864
1703.64370	0.06040
1702.35793	0.06229
1701.07216	0.06434
1699.78639	0.06661
1698.50062	0.06900
1697.21485	0.07136
1695.92908	0.07368
1694.64331	0.07606
1693.35754	0.07844
1692.07178	0.08078
1690.78601	0.08316
1689.50024	0.08568
1688.21447	0.08832
1686.92870	0.09097
1685.64293	0.09361
1684.35716	0.09630
1683.07139	0.09907
1681.78563	0.10185
1680.49986	0.10464
1679.21409	0.10756
1677.92832	0.11062
1676.64255	0.11378
1675.35678	0.11702
1674.07101	0.12034
1672.78524	0.12367
1671.49947	0.12699
1670.21371	0.13029
1668.92794	0.13361
1667.64217	0.13695
1666.35640	0.14023
1665.07063	0.14340
1663.78486	0.14647
1662.49909	0.14949
1661.21332	0.15242
1659.92756	0.15523
1658.64179	0.15787
1657.35602	0.16035
1656.07025	0.16267
1654.78448	0.16476
1653.49871	0.16663
1652.21294	0.16831
1650.92717	0.16976
1649.64140	0.17096
1648.35564	0.17197
1647.06987	0.17292
1645.78410	0.17382
1644.49833	0.17456
1643.21256	0.17509
1641.92679	0.17548
1640.64102	0.17582
1639.35525	0.17618
1638.06949	0.17651
1636.78372	0.17674
1635.49795	0.17682
1634.21218	0.17671
1632.92641	0.17632
1631.64064	0.17559
1630.35487	0.17455
1629.06910	0.17322
1627.78333	0.17161
1626.49757	0.16970
1625.21180	0.16746
1623.92603	0.16489
1622.64026	0.16199
1621.35449	0.15883
1620.06872	0.15549
1618.78295	0.15205
1617.49718	0.14859
1616.21142	0.14518
1614.92565	0.14181
1613.63988	0.13839
1612.35411	0.13492
1611.06834	0.13146
1609.78257	0.12809
1608.49680	0.12485
1607.21103	0.12179
1605.92526	0.11892
1604.63950	0.11622
1603.35373	0.11366
1602.06796	0.11122
1600.78219	0.10891
1599.49642	0.10679
1598.21065	0.10486
1596.92488	0.10311
1595.63911	0.10151
1594.35335	0.10007
1593.06758	0.09882
1591.78181	0.09773
1590.49604	0.09677
1589.21027	0.09595
1587.92450	0.09529
1586.63873	0.09483
1585.35296	0.09454
1584.06719	0.09437
1582.78143	0.09428
1581.49566	0.09430
1580.20989	0.09449
1578.92412	0.09487
1577.63835	0.09540
1576.35258	0.09610
1575.06681	0.09698
1573.78104	0.09801
1572.49528	0.09917
1571.20951	0.10046
1569.92374	0.10192
1568.63797	0.10348
1567.35220	0.10508
1566.06643	0.10670
1564.78066	0.10838
1563.49489	0.11018
1562.20912	0.11208
1560.92336	0.11404
1559.63759	0.11607
1558.35182	0.11814
1557.06605	0.12013
1555.78028	0.12192
1554.49451	0.12357
1553.20874	0.12519
1551.92297	0.12679
1550.63721	0.12831
1549.35144	0.12972
1548.06567	0.13103
1546.77990	0.13225
1545.49413	0.13336
1544.20836	0.13435
1542.92259	0.13518
1541.63682	0.13583
1540.35105	0.13631
1539.06529	0.13670
1537.77952	0.13702
1536.49375	0.13723
1535.20798	0.13733
1533.92221	0.13736
1532.63644	0.13736
1531.35067	0.13727
1530.06490	0.13703
1528.77914	0.13665
1527.49337	0.13621
1526.20760	0.13577
1524.92183	0.13537
1523.63606	0.13498
1522.35029	0.13456
1521.06452	0.13413
1519.77875	0.13368
1518.49298	0.13310
1517.20722	0.13233
1515.92145	0.13136
1514.63568	0.13017
1513.34991	0.12877
1512.06414	0.12724
1510.77837	0.12565
1509.49260	0.12397
1508.20683	0.12212
1506.92107	0.12010
1505.63530	0.11798
1504.34953	0.11583
1503.06376	0.11366
1501.77799	0.11149
1500.49222	0.10935
1499.20645	0.10722
1497.92068	0.10505
1496.63491	0.10283
1495.34915	0.10061
1494.06338	0.09845
1492.77761	0.09638
1491.49184	0.09440
1490.20607	0.09256
1488.92030	0.09084
1487.63453	0.08923
1486.34876	0.08778
1485.06299	0.08652
1483.77723	0.08547
1482.49146	0.08465
1481.20569	0.08405
1479.91992	0.08371
1478.63415	0.08363
1477.34838	0.08384
1476.06261	0.08434
1474.77684	0.08508
1473.49108	0.08595
1472.20531	0.08688
1470.91954	0.08784
1469.63377	0.08883
1468.34800	0.08984
1467.06223	0.09089
1465.77646	0.09195
1464.49069	0.09305
1463.20492	0.09420
1461.91916	0.09542
1460.63339	0.09671
1459.34762	0.09803
1458.06185	0.09930
1456.77608	0.10049
1455.49031	0.10154
1454.20454	0.10239
1452.91877	0.10300
1451.63301	0.10344
1450.34724	0.10374
1449.06147	0.10391
1447.77570	0.10396
1446.48993	0.10387
1445.20416	0.10363
1443.91839	0.10323
1442.63262	0.10271
1441.34685	0.10211
1440.06109	0.10143
1438.77532	0.10065
1437.48955	0.09977
1436.20378	0.09881
1434.91801	0.09777
1433.63224	0.09667
1432.34647	0.09558
1431.06070	0.09460
1429.77494	0.09377
1428.48917	0.09306
1427.20340	0.09243
1425.91763	0.09186
1424.63186	0.09139
1423.34609	0.09102
1422.06032	0.09073
1420.77455	0.09046
1419.48878	0.09021
1418.20302	0.08999
1416.91725	0.08983
1415.63148	0.08971
1414.34571	0.08959
1413.05994	0.08942
1411.77417	0.08918
1410.48840	0.08893
1409.20263	0.08873
1407.91687	0.08861
1406.63110	0.08855
1405.34533	0.08849
1404.05956	0.08843
1402.77379	0.08834
1401.48802	0.08819
1400.20225	0.08798
1398.91648	0.08773
1397.63071	0.08749
1396.34495	0.08729
1395.05918	0.08711
1393.77341	0.08695
1392.48764	0.08682
1391.20187	0.08671
1389.91610	0.08664
1388.63033	0.08660
1387.34456	0.08656
1386.05880	0.08652
1384.77303	0.08644
1383.48726	0.08631
1382.20149	0.08611
1380.91572	0.08584
1379.62995	0.08552
1378.34418	0.08520
1377.05841	0.08487
1375.77264	0.08452
1374.48688	0.08412
1373.20111	0.08365
1371.91534	0.08312
1370.62957	0.08253
1369.34380	0.08189
1368.05803	0.08124
1366.77226	0.08066
1365.48649	0.08017
1364.20073	0.07976
1362.91496	0.07940
1361.62919	0.07903
1360.34342	0.07867
1359.05765	0.07836
1357.77188	0.07816
1356.48611	0.07809
1355.20034	0.07813
1353.91457	0.07824
1352.62881	0.07841
1351.34304	0.07866
1350.05727	0.07900
1348.77150	0.07941
1347.48573	0.07985
1346.19996	0.08026
1344.91419	0.08067
1343.62842	0.08109
1342.34266	0.08156
1341.05689	0.08207
1339.77112	0.08259
1338.48535	0.08304
1337.19958	0.08335
1335.91381	0.08348
1334.62804	0.08350
1333.34227	0.08344
1332.05650	0.08332
1330.77074	0.08312
1329.48497	0.08287
1328.19920	0.08261
1326.91343	0.08238
1325.62766	0.08221
1324.34189	0.08210
1323.05612	0.08204
1321.77035	0.08204
1320.48459	0.08208
1319.19882	0.08220
1317.91305	0.08237
1316.62728	0.08257
1315.34151	0.08272
1314.05574	0.08281
1312.76997	0.08283
1311.48420	0.08283
1310.19843	0.08284
1308.91267	0.08284
1307.62690	0.08284
1306.34113	0.08283
1305.05536	0.08282
1303.76959	0.08283
1302.48382	0.08288
1301.19805	0.08296
1299.91228	0.08307
1298.62652	0.08317
1297.34075	0.08328
1296.05498	0.08341
1294.76921	0.08360
1293.48344	0.08387
1292.19767	0.08423
1290.91190	0.08467
1289.62613	0.08511
1288.34036	0.08553
1287.05460	0.08592
1285.76883	0.08630
1284.48306	0.08669
1283.19729	0.08710
1281.91152	0.08751
1280.62575	0.08786
1279.33998	0.08816
1278.05421	0.08841
1276.76845	0.08867
1275.48268	0.08898
1274.19691	0.08935
1272.91114	0.08974
1271.62537	0.09012
1270.33960	0.09048
1269.05383	0.09086
1267.76806	0.09132
1266.48229	0.09188
1265.19653	0.09254
1263.91076	0.09322
1262.62499	0.09385
1261.33922	0.09440
1260.05345	0.09485
1258.76768	0.09524
1257.48191	0.09563
1256.19614	0.09607
1254.91037	0.09661
1253.62461	0.09723
1252.33884	0.09791
1251.05307	0.09860
1249.76730	0.09932
1248.48153	0.10008
1247.19576	0.10092
1245.90999	0.10184
1244.62422	0.10277
1243.33846	0.10369
1242.05269	0.10458
1240.76692	0.10541
1239.48115	0.10617
1238.19538	0.10684
1236.90961	0.10743
1235.62384	0.10796
1234.33807	0.10842
1233.05230	0.10880
1231.76654	0.10907
1230.48077	0.10921
1229.19500	0.10920
1227.90923	0.10905
1226.62346	0.10877
1225.33769	0.10837
1224.05192	0.10788
1222.76615	0.10734
1221.48039	0.10683
1220.19462	0.10637
1218.90885	0.10599
1217.62308	0.10565
1216.33731	0.10536
1215.05154	0.10514
1213.76577	0.10504
1212.48000	0.10508
1211.19423	0.10527
1209.90847	0.10558
1208.62270	0.10596
1207.33693	0.10636
1206.05116	0.10676
1204.76539	0.10715
1203.47962	0.10755
1202.19385	0.10789
1200.90808	0.10791
1199.62232	0.10748
1198.33655	0.10747
1197.05078	0.10742
1195.76501	0.10738
1194.47924	0.10741
1193.19347	0.10751
1191.90770	0.10764
1190.62193	0.10775
1189.33616	0.10786
1188.05040	0.10804
1186.76463	0.10833
1185.47886	0.10874
1184.19309	0.10923
1182.90732	0.10974
1181.62155	0.11029
1180.33578	0.11092
1179.05001	0.11166
1177.76425	0.11250
1176.47848	0.11337
1175.19271	0.11420
1173.90694	0.11498
1172.62117	0.11572
1171.33540	0.11649
1170.04963	0.11733
1168.76386	0.11824
1167.47809	0.11924
1166.19233	0.12031
1164.90656	0.12139
1163.62079	0.12240
1162.33502	0.12328
1161.04925	0.12404
1159.76348	0.12472
1158.47771	0.12539
1157.19194	0.12605
1155.90618	0.12667
1154.62041	0.12722
1153.33464	0.12772
1152.04887	0.12816
1150.76310	0.12857
1149.47733	0.12901
1148.19156	0.12947
1146.90579	0.12992
1145.62002	0.13030
1144.33426	0.13060
1143.04849	0.13085
1141.76272	0.13106
1140.47695	0.13127
1139.19118	0.13154
1137.90541	0.13189
1136.61964	0.13232
1135.33387	0.13278
1134.04811	0.13324
1132.76234	0.13371
1131.47657	0.13424
1130.19080	0.13486
1128.90503	0.13556
1127.61926	0.13623
1126.33349	0.13680
1125.04772	0.13728
1123.76195	0.13774
1122.47619	0.13822
1121.19042	0.13872
1119.90465	0.13921
1118.61888	0.13968
1117.33311	0.14018
1116.04734	0.14076
1114.76157	0.14139
1113.47580	0.14198
1112.19004	0.14246
1110.90427	0.14288
1109.61850	0.14340
1108.33273	0.14410
1107.04696	0.14490
1105.76119	0.14570
1104.47542	0.14648
1103.18965	0.14729
1101.90388	0.14813
1100.61812	0.14893
1099.33235	0.14966
1098.04658	0.15035
1096.76081	0.15098
1095.47504	0.15157
1094.18927	0.15211
1092.90350	0.15261
1091.61773	0.15312
1090.33197	0.15364
1089.04620	0.15418
1087.76043	0.15475
1086.47466	0.15532
1085.18889	0.15587
1083.90312	0.15643
1082.61735	0.15703
1081.33158	0.15761
1080.04581	0.15806
1078.76005	0.15830
1077.47428	0.15836
1076.18851	0.15832
1074.90274	0.15827
1073.61697	0.15822
1072.33120	0.15811
1071.04543	0.15789
1069.75966	0.15757
1068.47390	0.15723
1067.18813	0.15695
1065.90236	0.15675
1064.61659	0.15659
1063.33082	0.15640
1062.04505	0.15614
1060.75928	0.15583
1059.47351	0.15545
1058.18774	0.15498
1056.90198	0.15443
1055.61621	0.15384
1054.33044	0.15325
1053.04467	0.15269
1051.75890	0.15211
1050.47313	0.15150
1049.18736	0.15088
1047.90159	0.15027
1046.61583	0.14971
1045.33006	0.14920
1044.04429	0.14873
1042.75852	0.14829
1041.47275	0.14789
1040.18698	0.14758
1038.90121	0.14739
1037.61544	0.14728
1036.32967	0.14722
1035.04391	0.14722
1033.75814	0.14726
1032.47237	0.14730
1031.18660	0.14726
1029.90083	0.14707
1028.61506	0.14674
1027.32929	0.14627
1026.04352	0.14568
1024.75775	0.14503
1023.47199	0.14436
1022.18622	0.14368
1020.90045	0.14292
1019.61468	0.14203
1018.32891	0.14100
1017.04314	0.13988
1015.75737	0.13870
1014.47160	0.13748
1013.18584	0.13618
1011.90007	0.13479
1010.61430	0.13334
1009.32853	0.13191
1008.04276	0.13052
1006.75699	0.12915
1005.47122	0.12780
1004.18545	0.12650
1002.89968	0.12527
1001.61392	0.12410
1000.32815	0.12295
999.04238	0.12183
997.75661	0.12076
996.47084	0.11980
995.18507	0.11895
993.89930	0.11824
992.61353	0.11766
991.32777	0.11722
990.04200	0.11688
988.75623	0.11656
987.47046	0.11622
986.18469	0.11585
984.89892	0.11551
983.61315	0.11527
982.32738	0.11521
981.04161	0.11533
979.75585	0.11554
978.47008	0.11570
977.18431	0.11579
975.89854	0.11584
974.61277	0.11591
973.32700	0.11604
972.04123	0.11625
970.75546	0.11655
969.46970	0.11695
968.18393	0.11736
966.89816	0.11771
965.61239	0.11793
964.32662	0.11804
963.04085	0.11805
961.75508	0.11803
960.46931	0.11800
959.18354	0.11796
957.89778	0.11788
956.61201	0.11772
955.32624	0.11748
954.04047	0.11720
952.75470	0.11692
951.46893	0.11663
950.18316	0.11630
948.89739	0.11588
947.61163	0.11538
946.32586	0.11484
945.04009	0.11428
943.75432	0.11369
942.46855	0.11305
941.18278	0.11238
939.89701	0.11170
938.61124	0.11099
937.32547	0.11016
936.03971	0.10917
934.75394	0.10804
933.46817	0.10682
932.18240	0.10557
930.89663	0.10434
929.61086	0.10316
928.32509	0.10205
927.03932	0.10099
925.75356	0.09995
924.46779	0.09893
923.18202	0.09790
921.89625	0.09685
920.61048	0.09570
919.32471	0.09448
918.03894	0.09325
916.75317	0.09211
915.46740	0.09111
914.18164	0.09026
912.89587	0.08953
911.61010	0.08889
910.32433	0.08830
909.03856	0.08774
907.75279	0.08721
906.46702	0.08675
905.18125	0.08635
903.89549	0.08598
902.60972	0.08567
901.32395	0.08548
900.03818	0.08545
898.75241	0.08549
897.46664	0.08543
896.18087	0.08517
894.89510	0.08482
893.60933	0.08457
892.32357	0.08450
891.03780	0.08455
889.75203	0.08458
888.46626	0.08450
887.18049	0.08433
885.89472	0.08411
884.60895	0.08392
883.32318	0.08380
882.03742	0.08380
880.75165	0.08387
879.46588	0.08391
878.18011	0.08382
876.89434	0.08354
875.60857	0.08305
874.32280	0.08243
873.03703	0.08179
871.75126	0.08124
870.46550	0.08076
869.17973	0.08023
867.89396	0.07960
866.60819	0.07891
865.32242	0.07827
864.03665	0.07770
862.75088	0.07711
861.46511	0.07647
860.17935	0.07581
858.89358	0.07521
857.60781	0.07474
856.32204	0.07439
855.03627	0.07409
853.75050	0.07375
852.46473	0.07327
851.17896	0.07267
849.89319	0.07199
848.60743	0.07130
847.32166	0.07061
846.03589	0.06994
844.75012	0.06929
843.46435	0.06870
842.17858	0.06815
840.89281	0.06763
839.60704	0.06712
838.32128	0.06664
837.03551	0.06620
835.74974	0.06581
834.46397	0.06543
833.17820	0.06504
831.89243	0.06461
830.60666	0.06417
829.32089	0.06375
828.03512	0.06334
826.74936	0.06295
825.46359	0.06262
824.17782	0.06242
822.89205	0.06232
821.60628	0.06226
820.32051	0.06217
819.03474	0.06201
817.74897	0.06183
816.46321	0.06171
815.17744	0.06169
813.89167	0.06173
812.60590	0.06173
811.32013	0.06170
810.03436	0.06164
808.74859	0.06159
807.46282	0.06154
806.17705	0.06149
804.89129	0.06150
803.60552	0.06160
802.31975	0.06175
801.03398	0.06188
799.74821	0.06196
798.46244	0.06197
797.17667	0.06190
795.89090	0.06178
794.60513	0.06163
793.31937	0.06150
792.03360	0.06141
790.74783	0.06134
789.46206	0.06127
788.17629	0.06121
786.89052	0.06118
785.60475	0.06116
784.31898	0.06111
783.03322	0.06099
781.74745	0.06084
780.46168	0.06076
779.17591	0.06078
777.89014	0.06081
776.60437	0.06076
775.31860	0.06059
774.03283	0.06043
772.74706	0.06036
771.46130	0.06039
770.17553	0.06047
768.88976	0.06058
767.60399	0.06072
766.31822	0.06091
765.03245	0.06111
763.74668	0.06132
762.46091	0.06151
761.17515	0.06163
759.88938	0.06164
758.60361	0.06156
757.31784	0.06144
756.03207	0.06129
754.74630	0.06115
753.46053	0.06108
752.17476	0.06115
750.88899	0.06138
749.60323	0.06170
748.31746	0.06198
747.03169	0.06209
745.74592	0.06202
744.46015	0.06191
743.17438	0.06189
741.88861	0.06199
740.60284	0.06205
739.31708	0.06197
738.03131	0.06182
736.74554	0.06174
735.45977	0.06180
734.17400	0.06190
732.88823	0.06196
731.60246	0.06204
730.31669	0.06219
729.03092	0.06241
727.74516	0.06261
726.45939	0.06271
725.17362	0.06271
723.88785	0.06264
722.60208	0.06268
721.31631	0.06283
720.03054	0.06302
718.74477	0.06321
717.45901	0.06333
716.17324	0.06336
714.88747	0.06334
713.60170	0.06334
712.31593	0.06340
711.03016	0.06350
709.74439	0.06360
708.45862	0.06367
707.17285	0.06374
705.88709	0.06386
704.60132	0.06404
703.31555	0.06423
702.02978	0.06437
700.74401	0.06450
699.45824	0.06463
698.17247	0.06476
696.88670	0.06485
695.60094	0.06488
694.31517	0.06488
693.02940	0.06484
691.74363	0.06476
690.45786	0.06467
689.17209	0.06458
687.88632	0.06451
686.60055	0.06446
685.31478	0.06442
684.02902	0.06439
682.74325	0.06438
681.45748	0.06441
680.17171	0.06448
678.88594	0.06458
677.60017	0.06466
676.31440	0.06472
675.02863	0.06477
673.74287	0.06485
672.45710	0.06498
671.17133	0.06515
669.88556	0.06533
668.59979	0.06549
667.31402	0.06563
666.02825	0.06577
664.74248	0.06592
663.45671	0.06605
662.17095	0.06614
660.88518	0.06618
659.59941	0.06621
658.31364	0.06627
657.02787	0.06638
655.74210	0.06654
654.45633	0.06673
653.17056	0.06693
651.88480	0.06710
650.59903	0.06723
649.31326	0.06731
648.02749	0.06734
646.74172	0.06734
645.45595	0.06730
644.17018	0.06721
642.88441	0.06707
641.59864	0.06689
640.31288	0.06675
639.02711	0.06669
637.74134	0.06671
636.45557	0.06675
635.16980	0.06677
633.88403	0.06670
632.59826	0.06644
631.31249	0.06648
630.02673	0.06900
628.74096	0.07300
627.45519	0.06992
626.16942	0.07449
624.88365	0.08419
623.59788	0.09300
622.31211	0.09827
621.02634	0.09892
619.74057	0.09526
618.45481	0.08903
617.16904	0.08234
615.88327	0.07674
614.59750	0.07304
613.31173	0.07159
612.02596	0.07244
610.74019	0.07525
609.45442	0.07919
608.16866	0.08314
606.88289	0.08621
605.59712	0.08802
604.31135	0.08853
603.02558	0.08797
601.73981	0.08667
600.45404	0.08499
599.16827	0.08330
597.88250	0.08192
596.59674	0.08100
595.31097	0.08044
594.02520	0.08008
592.73943	0.07985
591.45366	0.07983
590.16789	0.08010
588.88212	0.08064
587.59635	0.08134
586.31059	0.08207
585.02482	0.08274
583.73905	0.08337
582.45328	0.08399
581.16751	0.08463
579.88174	0.08524
578.59597	0.08576
577.31020	0.08617
576.02443	0.08653
574.73867	0.08698
573.45290	0.08767
572.16713	0.08863
570.88136	0.08979
569.59559	0.09097
568.30982	0.09203
567.02405	0.09286
565.73828	0.09343
564.45251	0.09379
563.16675	0.09395
561.88098	0.09392
560.59521	0.09369
559.30944	0.09336
558.02367	0.09306
556.73790	0.09290
555.45213	0.09288
554.16636	0.09294
552.88060	0.09306
551.59483	0.09328
550.30906	0.09361
549.02329	0.09400
547.73752	0.09439
546.45175	0.09480
545.16598	0.09531
543.88021	0.09595
542.59444	0.09662
541.30868	0.09722
540.02291	0.09777
538.73714	0.09836
537.45137	0.09903
536.16560	0.09975
534.87983	0.10047
533.59406	0.10117
532.30829	0.10182
531.02253	0.10242
529.73676	0.10292
528.45099	0.10331
527.16522	0.10360
525.87945	0.10380
524.59368	0.10392
523.30791	0.10397
522.02214	0.10400
520.73637	0.10407
519.45061	0.10417
518.16484	0.10423
516.87907	0.10413
515.59330	0.10387
514.30753	0.10353
513.02176	0.10314
511.73599	0.10271
510.45022	0.10219
509.16446	0.10156
507.87869	0.10081
506.59292	0.10000
505.30715	0.09919
504.02138	0.09840
502.73561	0.09758
501.44984	0.09665
500.16407	0.09558
498.87830	0.09441
497.59254	0.09321
496.30677	0.09200
495.02100	0.09080
493.73523	0.08968
492.44946	0.08867
491.16369	0.08775
489.87792	0.08682
488.59215	0.08580
487.30639	0.08473
486.02062	0.08369
484.73485	0.08277
483.44908	0.08194
482.16331	0.08115
480.87754	0.08038
479.59177	0.07967
478.30600	0.07906
477.02023	0.07858
475.73447	0.07817
474.44870	0.07778
473.16293	0.07738
471.87716	0.07699
470.59139	0.07666
469.30562	0.07643
468.01985	0.07626
466.73408	0.07608
465.44832	0.07589
464.16255	0.07567
462.87678	0.07542
461.59101	0.07509
460.30524	0.07466
459.01947	0.07420
457.73370	0.07376
456.44793	0.07339
455.16216	0.07308
453.87640	0.07280
452.59063	0.07252
451.30486	0.07221
450.01909	0.07185
448.73332	0.07149
447.44755	0.07118
446.16178	0.07096
444.87601	0.07080
443.59025	0.07067
442.30448	0.07053
441.01871	0.07036
439.73294	0.07019
438.44717	0.07009
437.16140	0.07008
435.87563	0.07014
434.58986	0.07019
433.30409	0.07014
432.01833	0.06997
430.73256	0.06974
429.44679	0.06953
428.16102	0.06938
426.87525	0.06930
425.58948	0.06928
424.30371	0.06925
423.01794	0.06913
421.73218	0.06888
420.44641	0.06852
419.16064	0.06815
417.87487	0.06783
416.58910	0.06757
415.30333	0.06733
414.01756	0.06707
412.73179	0.06678
411.44602	0.06642
410.16026	0.06599
408.87449	0.06552
407.58872	0.06509
406.30295	0.06474
405.01718	0.06447
403.73141	0.06423
402.44564	0.06399
401.15987	0.06373
399.87411	0.06345
