3997.45528	0.07310
3996.16951	0.07325
3994.88374	0.07315
3993.59798	0.07282
3992.31221	0.07253
3991.02644	0.07249
3989.74067	0.07267
3988.45490	0.07301
3987.16913	0.07350
3985.88336	0.07406
3984.59759	0.07447
3983.31183	0.07454
3982.02606	0.07427
3980.74029	0.07375
3979.45452	0.07300
3978.16875	0.07212
3976.88298	0.07136
3975.59721	0.07106
3974.31144	0.07135
3973.02567	0.07194
3971.73991	0.07234
3970.45414	0.07231
3969.16837	0.07201
3967.88260	0.07181
3966.59683	0.07186
3965.31106	0.07204
3964.02529	0.07218
3962.73952	0.07223
3961.45376	0.07226
3960.16799	0.07230
3958.88222	0.07233
3957.59645	0.07232
3956.31068	0.07214
3955.02491	0.07167
3953.73914	0.07097
3952.45337	0.07033
3951.16760	0.07003
3949.88184	0.07007
3948.59607	0.07017
3947.31030	0.07015
3946.02453	0.07006
3944.73876	0.06996
3943.45299	0.06976
3942.16722	0.06935
3940.88145	0.06883
3939.59569	0.06861
3938.30992	0.06896
3937.02415	0.06974
3935.73838	0.07048
3934.45261	0.07083
3933.16684	0.07080
3931.88107	0.07064
3930.59530	0.07054
3929.30953	0.07044
3928.02377	0.07016
3926.73800	0.06964
3925.45223	0.06901
3924.16646	0.06854
3922.88069	0.06842
3921.59492	0.06860
3920.30915	0.06888
3919.02338	0.06901
3917.73762	0.06885
3916.45185	0.06850
3915.16608	0.06823
3913.88031	0.06823
3912.59454	0.06849
3911.30877	0.06886
3910.02300	0.06913
3908.73723	0.06907
3907.45146	0.06866
3906.16570	0.06819
3904.87993	0.06805
3903.59416	0.06834
3902.30839	0.06875
3901.02262	0.06893
3899.73685	0.06876
3898.45108	0.06832
3897.16531	0.06776
3895.87955	0.06724
3894.59378	0.06695
3893.30801	0.06696
3892.02224	0.06714
3890.73647	0.06727
3889.45070	0.06718
3888.16493	0.06686
3886.87916	0.06650
3885.59339	0.06635
3884.30763	0.06656
3883.02186	0.06709
3881.73609	0.06776
3880.45032	0.06830
3879.16455	0.06846
3877.87878	0.06817
3876.59301	0.06759
3875.30724	0.06702
3874.02148	0.06671
3872.73571	0.06667
3871.44994	0.06687
3870.16417	0.06729
3868.87840	0.06785
3867.59263	0.06834
3866.30686	0.06852
3865.02109	0.06835
3863.73532	0.06811
3862.44956	0.06804
3861.16379	0.06805
3859.87802	0.06789
3858.59225	0.06750
3857.30648	0.06712
3856.02071	0.06699
3854.73494	0.06708
3853.44917	0.06715
3852.16341	0.06702
3850.87764	0.06661
3849.59187	0.06597
3848.30610	0.06524
3847.02033	0.06465
3845.73456	0.06435
3844.44879	0.06432
3843.16302	0.06443
3841.87725	0.06464
3840.59149	0.06496
3839.30572	0.06529
3838.01995	0.06544
3836.73418	0.06531
3835.44841	0.06502
3834.16264	0.06484
3832.87687	0.06498
3831.59110	0.06529
3830.30534	0.06543
3829.01957	0.06518
3827.73380	0.06470
3826.44803	0.06443
3825.16226	0.06468
3823.87649	0.06539
3822.59072	0.06617
3821.30495	0.06657
3820.01918	0.06644
3818.73342	0.06602
3817.44765	0.06566
3816.16188	0.06546
3814.87611	0.06530
3813.59034	0.06510
3812.30457	0.06494
3811.01880	0.06484
3809.73303	0.06457
3808.44726	0.06391
3807.16150	0.06297
3805.87573	0.06228
3804.58996	0.06233
3803.30419	0.06308
3802.01842	0.06406
3800.73265	0.06473
3799.44688	0.06487
3798.16111	0.06454
3796.87535	0.06395
3795.58958	0.06333
3794.30381	0.06286
3793.01804	0.06267
3791.73227	0.06284
3790.44650	0.06327
3789.16073	0.06370
3787.87496	0.06388
3786.58919	0.06373
3785.30343	0.06335
3784.01766	0.06299
3782.73189	0.06289
3781.44612	0.06317
3780.16035	0.06368
3778.87458	0.06408
3777.58881	0.06415
3776.30304	0.06387
3775.01728	0.06331
3773.73151	0.06262
3772.44574	0.06197
3771.15997	0.06162
3769.87420	0.06172
3768.58843	0.06225
3767.30266	0.06301
3766.01689	0.06365
3764.73112	0.06389
3763.44536	0.06358
3762.15959	0.06289
3760.87382	0.06216
3759.58805	0.06165
3758.30228	0.06141
3757.01651	0.06132
3755.73074	0.06129
3754.44497	0.06130
3753.15921	0.06142
3751.87344	0.06166
3750.58767	0.06194
3749.30190	0.06216
3748.01613	0.06228
3746.73036	0.06234
3745.44459	0.06236
3744.15882	0.06232
3742.87305	0.06219
3741.58729	0.06201
3740.30152	0.06187
3739.01575	0.06181
3737.72998	0.06171
3736.44421	0.06143
3735.15844	0.06097
3733.87267	0.06051
3732.58690	0.06027
3731.30114	0.06033
3730.01537	0.06054
3728.72960	0.06068
3727.44383	0.06056
3726.15806	0.06024
3724.87229	0.05990
3723.58652	0.05968
3722.30075	0.05955
3721.01498	0.05943
3719.72922	0.05928
3718.44345	0.05905
3717.15768	0.05867
3715.87191	0.05812
3714.58614	0.05745
3713.30037	0.05676
3712.01460	0.05616
3710.72883	0.05591
3709.44307	0.05618
3708.15730	0.05693
3706.87153	0.05779
3705.58576	0.05837
3704.29999	0.05861
3703.01422	0.05870
3701.72845	0.05886
3700.44268	0.05910
3699.15691	0.05941
3697.87115	0.05981
3696.58538	0.06031
3695.29961	0.06069
3694.01384	0.06058
3692.72807	0.05975
3691.44230	0.05841
3690.15653	0.05709
3688.87076	0.05632
3687.58500	0.05621
3686.29923	0.05650
3685.01346	0.05685
3683.72769	0.05714
3682.44192	0.05748
3681.15615	0.05793
3679.87038	0.05838
3678.58461	0.05861
3677.29884	0.05850
3676.01308	0.05813
3674.72731	0.05771
3673.44154	0.05748
3672.15577	0.05759
3670.87000	0.05804
3669.58423	0.05874
3668.29846	0.05945
3667.01269	0.05986
3665.72693	0.05982
3664.44116	0.05939
3663.15539	0.05880
3661.86962	0.05833
3660.58385	0.05811
3659.29808	0.05808
3658.01231	0.05803
3656.72654	0.05780
3655.44077	0.05747
3654.15501	0.05731
3652.86924	0.05752
3651.58347	0.05804
3650.29770	0.05864
3649.01193	0.05915
3647.72616	0.05959
3646.44039	0.06004
3645.15462	0.06050
3643.86886	0.06088
3642.58309	0.06101
3641.29732	0.06081
3640.01155	0.06039
3638.72578	0.06009
3637.44001	0.06023
3636.15424	0.06081
3634.86847	0.06142
3633.58270	0.06156
3632.29694	0.06114
3631.01117	0.06052
3629.72540	0.06022
3628.43963	0.06048
3627.15386	0.06117
3625.86809	0.06197
3624.58232	0.06263
3623.29655	0.06304
3622.01079	0.06315
3620.72502	0.06295
3619.43925	0.06258
3618.15348	0.06220
3616.86771	0.06191
3615.58194	0.06176
3614.29617	0.06186
3613.01040	0.06228
3611.72463	0.06302
3610.43887	0.06393
3609.15310	0.06488
3607.86733	0.06582
3606.58156	0.06669
3605.29579	0.06733
3604.01002	0.06764
3602.72425	0.06770
3601.43848	0.06774
3600.15272	0.06789
3598.86695	0.06820
3597.58118	0.06870
3596.29541	0.06937
3595.00964	0.06997
3593.72387	0.07030
3592.43810	0.07035
3591.15233	0.07039
3589.86656	0.07061
3588.58080	0.07087
3587.29503	0.07097
3586.00926	0.07096
3584.72349	0.07105
3583.43772	0.07133
3582.15195	0.07174
3580.86618	0.07224
3579.58041	0.07284
3578.29464	0.07347
3577.00888	0.07391
3575.72311	0.07405
3574.43734	0.07405
3573.15157	0.07416
3571.86580	0.07450
3570.58003	0.07498
3569.29426	0.07548
3568.00849	0.07607
3566.72273	0.07685
3565.43696	0.07775
3564.15119	0.07849
3562.86542	0.07888
3561.57965	0.07887
3560.29388	0.07862
3559.00811	0.07842
3557.72234	0.07855
3556.43657	0.07906
3555.15081	0.07961
3553.86504	0.07972
3552.57927	0.07942
3551.29350	0.07922
3550.00773	0.07954
3548.72196	0.08032
3547.43619	0.08115
3546.15042	0.08173
3544.86466	0.08204
3543.57889	0.08216
3542.29312	0.08227
3541.00735	0.08258
3539.72158	0.08320
3538.43581	0.08402
3537.15004	0.08485
3535.86427	0.08571
3534.57850	0.08668
3533.29274	0.08766
3532.00697	0.08829
3530.72120	0.08837
3529.43543	0.08814
3528.14966	0.08796
3526.86389	0.08804
3525.57812	0.08832
3524.29235	0.08869
3523.00659	0.08910
3521.72082	0.08949
3520.43505	0.08975
3519.14928	0.08983
3517.86351	0.08990
3516.57774	0.09018
3515.29197	0.09073
3514.00620	0.09135
3512.72043	0.09171
3511.43467	0.09163
3510.14890	0.09125
3508.86313	0.09097
3507.57736	0.09114
3506.29159	0.09172
3505.00582	0.09241
3503.72005	0.09301
3502.43428	0.09356
3501.14852	0.09411
3499.86275	0.09462
3498.57698	0.09500
3497.29121	0.09525
3496.00544	0.09543
3494.71967	0.09563
3493.43390	0.09594
3492.14813	0.09634
3490.86236	0.09672
3489.57660	0.09699
3488.29083	0.09713
3487.00506	0.09724
3485.71929	0.09744
3484.43352	0.09785
3483.14775	0.09851
3481.86198	0.09926
3480.57621	0.09978
3479.29045	0.09988
3478.00468	0.09976
3476.71891	0.09984
3475.43314	0.10033
3474.14737	0.10104
3472.86160	0.10163
3471.57583	0.10194
3470.29006	0.10202
3469.00429	0.10202
3467.71853	0.10204
3466.43276	0.10217
3465.14699	0.10250
3463.86122	0.10306
3462.57545	0.10374
3461.28968	0.10431
3460.00391	0.10465
3458.71814	0.10487
3457.43238	0.10508
3456.14661	0.10528
3454.86084	0.10538
3453.57507	0.10539
3452.28930	0.10547
3451.00353	0.10579
3449.71776	0.10637
3448.43199	0.10713
3447.14622	0.10789
3445.86046	0.10837
3444.57469	0.10841
3443.28892	0.10811
3442.00315	0.10780
3440.71738	0.10777
3439.43161	0.10803
3438.14584	0.10843
3436.86007	0.10887
3435.57431	0.10934
3434.28854	0.10981
3433.00277	0.11014
3431.71700	0.11020
3430.43123	0.11008
3429.14546	0.11003
3427.85969	0.11027
3426.57392	0.11081
3425.28815	0.11144
3424.00239	0.11201
3422.71662	0.11249
3421.43085	0.11291
3420.14508	0.11316
3418.85931	0.11316
3417.57354	0.11305
3416.28777	0.11318
3415.00200	0.11381
3413.71624	0.11483
3412.43047	0.11587
3411.14470	0.11659
3409.85893	0.11700
3408.57316	0.11724
3407.28739	0.11740
3406.00162	0.11755
3404.71585	0.11779
3403.43008	0.11820
3402.14432	0.11870
3400.85855	0.11909
3399.57278	0.11928
3398.28701	0.11933
3397.00124	0.11937
3395.71547	0.11955
3394.42970	0.11991
3393.14393	0.12038
3391.85817	0.12075
3390.57240	0.12090
3389.28663	0.12090
3388.00086	0.12095
3386.71509	0.12122
3385.42932	0.12174
3384.14355	0.12241
3382.85778	0.12309
3381.57201	0.12368
3380.28625	0.12416
3379.00048	0.12454
3377.71471	0.12485
3376.42894	0.12511
3375.14317	0.12540
3373.85740	0.12581
3372.57163	0.12639
3371.28586	0.12702
3370.00010	0.12756
3368.71433	0.12796
3367.42856	0.12844
3366.14279	0.12919
3364.85702	0.13019
3363.57125	0.13113
3362.28548	0.13175
3360.99971	0.13211
3359.71394	0.13251
3358.42818	0.13314
3357.14241	0.13393
3355.85664	0.13472
3354.57087	0.13548
3353.28510	0.13619
3351.99933	0.13678
3350.71356	0.13718
3349.42779	0.13746
3348.14202	0.13776
3346.85626	0.13819
3345.57049	0.13872
3344.28472	0.13937
3342.99895	0.14016
3341.71318	0.14101
3340.42741	0.14169
3339.14164	0.14205
3337.85587	0.14219
3336.57011	0.14238
3335.28434	0.14285
3333.99857	0.14354
3332.71280	0.14418
3331.42703	0.14454
3330.14126	0.14467
3328.85549	0.14485
3327.56972	0.14527
3326.28395	0.14588
3324.99819	0.14649
3323.71242	0.14692
3322.42665	0.14718
3321.14088	0.14743
3319.85511	0.14788
3318.56934	0.14854
3317.28357	0.14928
3315.99780	0.14995
3314.71204	0.15050
3313.42627	0.15099
3312.14050	0.15147
3310.85473	0.15192
3309.56896	0.15232
3308.28319	0.15276
3306.99742	0.15334
3305.71165	0.15408
3304.42588	0.15485
3303.14012	0.15544
3301.85435	0.15577
3300.56858	0.15595
3299.28281	0.15616
3297.99704	0.15650
3296.71127	0.15697
3295.42550	0.15749
3294.13973	0.15800
3292.85397	0.15847
3291.56820	0.15876
3290.28243	0.15873
3288.99666	0.15837
3287.71089	0.15790
3286.42512	0.15766
3285.13935	0.15780
3283.85358	0.15818
3282.56781	0.15849
3281.28205	0.15857
3279.99628	0.15846
3278.71051	0.15838
3277.42474	0.15851
3276.13897	0.15881
3274.85320	0.15903
3273.56743	0.15890
3272.28166	0.15832
3270.99590	0.15746
3269.71013	0.15659
3268.42436	0.15588
3267.13859	0.15525
3265.85282	0.15457
3264.56705	0.15382
3263.28128	0.15320
3261.99551	0.15282
3260.70974	0.15260
3259.42398	0.15227
3258.13821	0.15169
3256.85244	0.15095
3255.56667	0.15026
3254.28090	0.14976
3252.99513	0.14941
3251.70936	0.14912
3250.42359	0.14893
3249.13783	0.14885
3247.85206	0.14879
3246.56629	0.14855
3245.28052	0.14800
3243.99475	0.14713
3242.70898	0.14611
3241.42321	0.14513
3240.13744	0.14438
3238.85167	0.14394
3237.56591	0.14372
3236.28014	0.14357
3234.99437	0.14333
3233.70860	0.14291
3232.42283	0.14234
3231.13706	0.14164
3229.85129	0.14086
3228.56552	0.13999
3227.27976	0.13909
3225.99399	0.13831
3224.70822	0.13784
3223.42245	0.13781
3222.13668	0.13811
3220.85091	0.13838
3219.56514	0.13837
3218.27937	0.13808
3216.99360	0.13767
3215.70784	0.13725
3214.42207	0.13682
3213.13630	0.13643
3211.85053	0.13613
3210.56476	0.13594
3209.27899	0.13576
3207.99322	0.13554
3206.70745	0.13531
3205.42169	0.13523
3204.13592	0.13532
3202.85015	0.13540
3201.56438	0.13515
3200.27861	0.13440
3198.99284	0.13336
3197.70707	0.13247
3196.42130	0.13210
3195.13553	0.13219
3193.84977	0.13235
3192.56400	0.13213
3191.27823	0.13136
3189.99246	0.13027
3188.70669	0.12927
3187.42092	0.12861
3186.13515	0.12830
3184.84938	0.12816
3183.56362	0.12802
3182.27785	0.12773
3180.99208	0.12726
3179.70631	0.12668
3178.42054	0.12610
3177.13477	0.12550
3175.84900	0.12479
3174.56323	0.12398
3173.27746	0.12326
3171.99170	0.12279
3170.70593	0.12260
3169.42016	0.12253
3168.13439	0.12237
3166.84862	0.12200
3165.56285	0.12149
3164.27708	0.12106
3162.99131	0.12085
3161.70555	0.12080
3160.41978	0.12064
3159.13401	0.12018
3157.84824	0.11939
3156.56247	0.11842
3155.27670	0.11744
3153.99093	0.11655
3152.70516	0.11580
3151.41939	0.11518
3150.13363	0.11467
3148.84786	0.11421
3147.56209	0.11377
3146.27632	0.11336
3144.99055	0.11308
3143.70478	0.11291
3142.41901	0.11264
3141.13324	0.11209
3139.84748	0.11135
3138.56171	0.11074
3137.27594	0.11047
3135.99017	0.11047
3134.70440	0.11050
3133.41863	0.11040
3132.13286	0.11017
3130.84709	0.10987
3129.56132	0.10952
3128.27556	0.10913
3126.98979	0.10873
3125.70402	0.10837
3124.41825	0.10816
3123.13248	0.10813
3121.84671	0.10820
3120.56094	0.10814
3119.27517	0.10782
3117.98940	0.10735
3116.70364	0.10697
3115.41787	0.10682
3114.13210	0.10684
3112.84633	0.10691
3111.56056	0.10698
3110.27479	0.10707
3108.98902	0.10721
3107.70325	0.10733
3106.41749	0.10740
3105.13172	0.10742
3103.84595	0.10741
3102.56018	0.10738
3101.27441	0.10733
3099.98864	0.10733
3098.70287	0.10742
3097.41710	0.10758
3096.13133	0.10777
3094.84557	0.10793
3093.55980	0.10800
3092.27403	0.10786
3090.98826	0.10752
3089.70249	0.10711
3088.41672	0.10687
3087.13095	0.10691
3085.84518	0.10715
3084.55942	0.10745
3083.27365	0.10772
3081.98788	0.10797
3080.70211	0.10826
3079.41634	0.10860
3078.13057	0.10898
3076.84480	0.10928
3075.55903	0.10937
3074.27326	0.10922
3072.98750	0.10894
3071.70173	0.10865
3070.41596	0.10837
3069.13019	0.10819
3067.84442	0.10824
3066.55865	0.10856
3065.27288	0.10896
3063.98711	0.10910
3062.70135	0.10878
3061.41558	0.10808
3060.12981	0.10727
3058.84404	0.10655
3057.55827	0.10595
3056.27250	0.10541
3054.98673	0.10494
3053.70096	0.10461
3052.41519	0.10447
3051.12943	0.10445
3049.84366	0.10435
3048.55789	0.10400
3047.27212	0.10345
3045.98635	0.10293
3044.70058	0.10264
3043.41481	0.10257
3042.12904	0.10247
3040.84328	0.10211
3039.55751	0.10153
3038.27174	0.10091
3036.98597	0.10041
3035.70020	0.10005
3034.41443	0.09972
3033.12866	0.09932
3031.84289	0.09883
3030.55712	0.09832
3029.27136	0.09791
3027.98559	0.09770
3026.69982	0.09768
3025.41405	0.09774
3024.12828	0.09769
3022.84251	0.09746
3021.55674	0.09702
3020.27097	0.09644
3018.98521	0.09581
3017.69944	0.09524
3016.41367	0.09478
3015.12790	0.09442
3013.84213	0.09412
3012.55636	0.09389
3011.27059	0.09374
3009.98482	0.09365
3008.69905	0.09360
3007.41329	0.09354
3006.12752	0.09341
3004.84175	0.09318
3003.55598	0.09289
3002.27021	0.09270
3000.98444	0.09268
2999.69867	0.09279
2998.41290	0.09291
2997.12714	0.09294
2995.84137	0.09289
2994.55560	0.09286
2993.26983	0.09297
2991.98406	0.09322
2990.69829	0.09353
2989.41252	0.09385
2988.12675	0.09420
2986.84098	0.09461
2985.55522	0.09511
2984.26945	0.09568
2982.98368	0.09630
2981.69791	0.09686
2980.41214	0.09732
2979.12637	0.09778
2977.84060	0.09835
2976.55483	0.09905
2975.26907	0.09976
2973.98330	0.10031
2972.69753	0.10073
2971.41176	0.10124
2970.12599	0.10198
2968.84022	0.10289
2967.55445	0.10372
2966.26868	0.10435
2964.98291	0.10490
2963.69715	0.10547
2962.41138	0.10606
2961.12561	0.10658
2959.83984	0.10699
2958.55407	0.10729
2957.26830	0.10746
2955.98253	0.10748
2954.69676	0.10739
2953.41100	0.10724
2952.12523	0.10711
2950.83946	0.10699
2949.55369	0.10689
2948.26792	0.10684
2946.98215	0.10687
2945.69638	0.10700
2944.41061	0.10728
2943.12484	0.10771
2941.83908	0.10826
2940.55331	0.10881
2939.26754	0.10937
2937.98177	0.10996
2936.69600	0.11053
2935.41023	0.11099
2934.12446	0.11136
2932.83869	0.11179
2931.55293	0.11229
2930.26716	0.11280
2928.98139	0.11325
2927.69562	0.11366
2926.40985	0.11398
2925.12408	0.11414
2923.83831	0.11405
2922.55254	0.11374
2921.26677	0.11322
2919.98101	0.11253
2918.69524	0.11169
2917.40947	0.11074
2916.12370	0.10970
2914.83793	0.10860
2913.55216	0.10753
2912.26639	0.10655
2910.98062	0.10569
2909.69486	0.10495
2908.40909	0.10429
2907.12332	0.10362
2905.83755	0.10285
2904.55178	0.10198
2903.26601	0.10108
2901.98024	0.10022
2900.69447	0.09943
2899.40870	0.09873
2898.12294	0.09819
2896.83717	0.09786
2895.55140	0.09767
2894.26563	0.09751
2892.97986	0.09728
2891.69409	0.09701
2890.40832	0.09671
2889.12255	0.09637
2887.83678	0.09598
2886.55102	0.09561
2885.26525	0.09537
2883.97948	0.09531
2882.69371	0.09536
2881.40794	0.09539
2880.12217	0.09534
2878.83640	0.09528
2877.55063	0.09536
2876.26487	0.09560
2874.97910	0.09586
2873.69333	0.09593
2872.40756	0.09571
2871.12179	0.09529
2869.83602	0.09488
2868.55025	0.09460
2867.26448	0.09437
2865.97871	0.09404
2864.69295	0.09357
2863.40718	0.09308
2862.12141	0.09277
2860.83564	0.09272
2859.54987	0.09293
2858.26410	0.09329
2856.97833	0.09364
2855.69256	0.09385
2854.40680	0.09384
2853.12103	0.09368
2851.83526	0.09343
2850.54949	0.09304
2849.26372	0.09238
2847.97795	0.09145
2846.69218	0.09036
2845.40641	0.08931
2844.12064	0.08844
2842.83488	0.08771
2841.54911	0.08702
2840.26334	0.08631
2838.97757	0.08560
2837.69180	0.08493
2836.40603	0.08434
2835.12026	0.08379
2833.83449	0.08330
2832.54873	0.08287
2831.26296	0.08251
2829.97719	0.08227
2828.69142	0.08217
2827.40565	0.08217
2826.11988	0.08214
2824.83411	0.08198
2823.54834	0.08167
2822.26257	0.08122
2820.97681	0.08067
2819.69104	0.08010
2818.40527	0.07963
2817.11950	0.07936
2815.83373	0.07927
2814.54796	0.07920
2813.26219	0.07902
2811.97642	0.07873
2810.69066	0.07848
2809.40489	0.07836
2808.11912	0.07835
2806.83335	0.07834
2805.54758	0.07822
2804.26181	0.07797
2802.97604	0.07762
2801.69027	0.07723
2800.40450	0.07688
2799.11874	0.07669
2797.83297	0.07665
2796.54720	0.07659
2795.26143	0.07637
2793.97566	0.07601
2792.68989	0.07570
2791.40412	0.07551
2790.11835	0.07538
2788.83259	0.07517
2787.54682	0.07488
2786.26105	0.07463
2784.97528	0.07455
2783.68951	0.07462
2782.40374	0.07471
2781.11797	0.07466
2779.83220	0.07440
2778.54643	0.07405
2777.26067	0.07377
2775.97490	0.07369
2774.68913	0.07373
2773.40336	0.07373
2772.11759	0.07357
2770.83182	0.07326
2769.54605	0.07295
2768.26028	0.07274
2766.97452	0.07260
2765.68875	0.07241
2764.40298	0.07212
2763.11721	0.07181
2761.83144	0.07167
2760.54567	0.07178
2759.25990	0.07207
2757.97413	0.07233
2756.68836	0.07237
2755.40260	0.07211
2754.11683	0.07164
2752.83106	0.07111
2751.54529	0.07070
2750.25952	0.07045
2748.97375	0.07031
2747.68798	0.07023
2746.40221	0.07015
2745.11645	0.07008
2743.83068	0.06999
2742.54491	0.06990
2741.25914	0.06981
2739.97337	0.06969
2738.68760	0.06949
2737.40183	0.06921
2736.11606	0.06891
2734.83029	0.06870
2733.54453	0.06862
2732.25876	0.06863
2730.97299	0.06866
2729.68722	0.06864
2728.40145	0.06854
2727.11568	0.06837
2725.82991	0.06816
2724.54414	0.06796
2723.25838	0.06779
2721.97261	0.06764
2720.68684	0.06752
2719.40107	0.06741
2718.11530	0.06729
2716.82953	0.06716
2715.54376	0.06703
2714.25799	0.06695
2712.97222	0.06694
2711.68646	0.06695
2710.40069	0.06690
2709.11492	0.06670
2707.82915	0.06638
2706.54338	0.06608
2705.25761	0.06589
2703.97184	0.06583
2702.68607	0.06584
2701.40031	0.06586
2700.11454	0.06585
2698.82877	0.06576
2697.54300	0.06560
2696.25723	0.06540
2694.97146	0.06521
2693.68569	0.06508
2692.39992	0.06502
2691.11415	0.06496
2689.82839	0.06490
2688.54262	0.06483
2687.25685	0.06478
2685.97108	0.06473
2684.68531	0.06466
2683.39954	0.06453
2682.11377	0.06435
2680.82800	0.06422
2679.54224	0.06422
2678.25647	0.06436
2676.97070	0.06455
2675.68493	0.06469
2674.39916	0.06469
2673.11339	0.06450
2671.82762	0.06418
2670.54185	0.06386
2669.25608	0.06363
2667.97032	0.06352
2666.68455	0.06350
2665.39878	0.06357
2664.11301	0.06371
2662.82724	0.06386
2661.54147	0.06392
2660.25570	0.06379
2658.96993	0.06352
2657.68417	0.06323
2656.39840	0.06304
2655.11263	0.06296
2653.82686	0.06293
2652.54109	0.06284
2651.25532	0.06262
2649.96955	0.06229
2648.68378	0.06187
2647.39801	0.06144
2646.11225	0.06109
2644.82648	0.06091
2643.54071	0.06088
2642.25494	0.06085
2640.96917	0.06066
2639.68340	0.06030
2638.39763	0.05987
2637.11186	0.05948
2635.82609	0.05912
2634.54033	0.05881
2633.25456	0.05862
2631.96879	0.05857
2630.68302	0.05861
2629.39725	0.05866
2628.11148	0.05866
2626.82571	0.05862
2625.53994	0.05853
2624.25418	0.05833
2622.96841	0.05799
2621.68264	0.05759
2620.39687	0.05729
2619.11110	0.05718
2617.82533	0.05717
2616.53956	0.05713
2615.25379	0.05701
2613.96802	0.05685
2612.68226	0.05668
2611.39649	0.05651
2610.11072	0.05624
2608.82495	0.05580
2607.53918	0.05526
2606.25341	0.05485
2604.96764	0.05471
2603.68187	0.05483
2602.39611	0.05501
2601.11034	0.05507
2599.82457	0.05498
2598.53880	0.05485
2597.25303	0.05485
2595.96726	0.05504
2594.68149	0.05529
2593.39572	0.05536
2592.10995	0.05515
2590.82419	0.05483
2589.53842	0.05453
2588.25265	0.05424
2586.96688	0.05393
2585.68111	0.05368
2584.39534	0.05357
2583.10957	0.05356
2581.82380	0.05352
2580.53804	0.05336
2579.25227	0.05308
2577.96650	0.05279
2576.68073	0.05263
2575.39496	0.05268
2574.10919	0.05285
2572.82342	0.05295
2571.53765	0.05285
2570.25188	0.05254
2568.96612	0.05211
2567.68035	0.05166
2566.39458	0.05128
2565.10881	0.05106
2563.82304	0.05108
2562.53727	0.05139
2561.25150	0.05185
2559.96573	0.05205
2558.67997	0.05168
2557.39420	0.05086
2556.10843	0.05003
2554.82266	0.04960
2553.53689	0.04958
2552.25112	0.04967
2550.96535	0.04952
2549.67958	0.04910
2548.39381	0.04867
2547.10805	0.04854
2545.82228	0.04879
2544.53651	0.04920
2543.25074	0.04944
2541.96497	0.04932
2540.67920	0.04889
2539.39343	0.04844
2538.10766	0.04822
2536.82190	0.04822
2535.53613	0.04824
2534.25036	0.04810
2532.96459	0.04784
2531.67882	0.04755
2530.39305	0.04735
2529.10728	0.04727
2527.82151	0.04732
2526.53574	0.04748
2525.24998	0.04771
2523.96421	0.04796
2522.67844	0.04815
2521.39267	0.04814
2520.10690	0.04785
2518.82113	0.04741
2517.53536	0.04712
2516.24959	0.04720
2514.96383	0.04754
2513.67806	0.04781
2512.39229	0.04776
2511.10652	0.04737
2509.82075	0.04684
2508.53498	0.04639
2507.24921	0.04616
2505.96344	0.04617
2504.67767	0.04631
2503.39191	0.04641
2502.10614	0.04637
2500.82037	0.04627
2499.53460	0.04620
2498.24883	0.04614
2496.96306	0.04595
2495.67729	0.04556
2494.39152	0.04507
2493.10576	0.04469
2491.81999	0.04456
2490.53422	0.04471
2489.24845	0.04505
2487.96268	0.04540
2486.67691	0.04553
2485.39114	0.04540
2484.10537	0.04513
2482.81960	0.04489
2481.53384	0.04474
2480.24807	0.04471
2478.96230	0.04486
2477.67653	0.04522
2476.39076	0.04557
2475.10499	0.04568
2473.81922	0.04554
2472.53345	0.04540
2471.24769	0.04540
2469.96192	0.04538
2468.67615	0.04517
2467.39038	0.04486
2466.10461	0.04469
2464.81884	0.04473
2463.53307	0.04480
2462.24730	0.04474
2460.96153	0.04457
2459.67577	0.04444
2458.39000	0.04448
2457.10423	0.04467
2455.81846	0.04487
2454.53269	0.04498
2453.24692	0.04494
2451.96115	0.04473
2450.67538	0.04445
2449.38962	0.04426
2448.10385	0.04427
2446.81808	0.04445
2445.53231	0.04454
2444.24654	0.04434
2442.96077	0.04392
2441.67500	0.04358
2440.38923	0.04347
2439.10346	0.04351
2437.81770	0.04348
2436.53193	0.04340
2435.24616	0.04340
2433.96039	0.04351
2432.67462	0.04357
2431.38885	0.04341
2430.10308	0.04310
2428.81731	0.04283
2427.53155	0.04268
2426.24578	0.04257
2424.96001	0.04241
2423.67424	0.04231
2422.38847	0.04244
2421.10270	0.04287
2419.81693	0.04342
2418.53116	0.04387
2417.24539	0.04408
2415.95963	0.04407
2414.67386	0.04390
2413.38809	0.04357
2412.10232	0.04313
2410.81655	0.04267
2409.53078	0.04228
2408.24501	0.04201
2406.95924	0.04190
2405.67347	0.04198
2404.38771	0.04222
2403.10194	0.04251
2401.81617	0.04270
2400.53040	0.04273
2399.24463	0.04259
2397.95886	0.04244
2396.67309	0.04236
2395.38732	0.04234
2394.10156	0.04231
2392.81579	0.04218
2391.53002	0.04201
2390.24425	0.04192
2388.95848	0.04198
2387.67271	0.04209
2386.38694	0.04212
2385.10117	0.04209
2383.81540	0.04209
2382.52964	0.04222
2381.24387	0.04238
2379.95810	0.04247
2378.67233	0.04236
2377.38656	0.04220
2376.10079	0.04215
2374.81502	0.04223
2373.52925	0.04195
2372.24349	0.04168
2370.95772	0.04167
2369.67195	0.04169
2368.38618	0.04167
2367.10041	0.04174
2365.81464	0.04187
2364.52887	0.04202
2363.24310	0.04217
2361.95733	0.04233
2360.67157	0.04253
2359.38580	0.04259
2358.10003	0.04251
2356.81426	0.04238
2355.52849	0.04235
2354.24272	0.04258
2352.95695	0.04293
2351.67118	0.04279
2350.38542	0.04251
2349.09965	0.04253
2347.81388	0.04266
2346.52811	0.04266
2345.24234	0.04257
2343.95657	0.04258
2342.67080	0.04284
2341.38503	0.04271
2340.09926	0.04265
2338.81350	0.04271
2337.52773	0.04257
2336.24196	0.04221
2334.95619	0.04225
2333.67042	0.04247
2332.38465	0.04264
2331.09888	0.04202
2329.81311	0.04183
2328.52735	0.04194
2327.24158	0.04219
2325.95581	0.04282
2324.67004	0.04319
2323.38427	0.04337
2322.09850	0.04308
2320.81273	0.04253
2319.52696	0.04216
2318.24119	0.04201
2316.95543	0.04174
2315.66966	0.04145
2314.38389	0.04108
2313.09812	0.04052
2311.81235	0.03997
2310.52658	0.03956
2309.24081	0.03932
2307.95504	0.03929
2306.66928	0.03942
2305.38351	0.03956
2304.09774	0.03959
2302.81197	0.03946
2301.52620	0.03920
2300.24043	0.03886
2298.95466	0.03845
2297.66889	0.03802
2296.38312	0.03764
2295.09736	0.03741
2293.81159	0.03735
2292.52582	0.03735
2291.24005	0.03732
2289.95428	0.03721
2288.66851	0.03705
2287.38274	0.03691
2286.09697	0.03673
2284.81121	0.03643
2283.52544	0.03601
2282.23967	0.03566
2280.95390	0.03549
2279.66813	0.03541
2278.38236	0.03530
2277.09659	0.03510
2275.81082	0.03481
2274.52505	0.03442
2273.23929	0.03389
2271.95352	0.03335
2270.66775	0.03296
2269.38198	0.03274
2268.09621	0.03247
2266.81044	0.03200
2265.52467	0.03147
2264.23890	0.03124
2262.95314	0.03145
2261.66737	0.03196
2260.38160	0.03254
2259.09583	0.03296
2257.81006	0.03308
2256.52429	0.03278
2255.23852	0.03211
2253.95275	0.03135
2252.66698	0.03088
2251.38122	0.03090
2250.09545	0.03135
2248.80968	0.03190
2247.52391	0.03198
2246.23814	0.03172
2244.95237	0.03134
2243.66660	0.03096
2242.38083	0.03059
2241.09507	0.03034
2239.80930	0.03048
2238.52353	0.03109
2237.23776	0.03182
2235.95199	0.03216
2234.66622	0.03193
2233.38045	0.03138
2232.09468	0.03090
2230.80891	0.03062
2229.52315	0.03040
2228.23738	0.03007
2226.95161	0.02958
2225.66584	0.02889
2224.38007	0.02808
2223.09430	0.02740
2221.80853	0.02721
2220.52276	0.02755
2219.23700	0.02804
2217.95123	0.02812
2216.66546	0.02759
2215.37969	0.02674
2214.09392	0.02613
2212.80815	0.02609
2211.52238	0.02644
2210.23661	0.02667
2208.95084	0.02644
2207.66508	0.02594
2206.37931	0.02563
2205.09354	0.02568
2203.80777	0.02577
2202.52200	0.02550
2201.23623	0.02485
2199.95046	0.02429
2198.66469	0.02435
2197.37893	0.02510
2196.09316	0.02607
2194.80739	0.02662
2193.52162	0.02641
2192.23585	0.02556
2190.95008	0.02438
2189.66431	0.02315
2188.37854	0.02212
2187.09277	0.02143
2185.80701	0.02106
2184.52124	0.02088
2183.23547	0.02093
2181.94970	0.02134
2180.66393	0.02216
2179.37816	0.02313
2178.09239	0.02400
2176.80662	0.02456
2175.52085	0.02468
2174.23509	0.02436
2172.94932	0.02374
2171.66355	0.02298
2170.37778	0.02207
2169.09201	0.02088
2167.80624	0.01950
2166.52047	0.01808
2165.23470	0.01675
2163.94894	0.01567
2162.66317	0.01515
2161.37740	0.01536
2160.09163	0.01606
2158.80586	0.01681
2157.52009	0.01733
2156.23432	0.01766
2154.94855	0.01797
2153.66278	0.01852
2152.37702	0.01941
2151.09125	0.02054
2149.80548	0.02167
2148.51971	0.02258
2147.23394	0.02311
2145.94817	0.02320
2144.66240	0.02294
2143.37663	0.02254
2142.09087	0.02216
2140.80510	0.02187
2139.51933	0.02179
2138.23356	0.02196
2136.94779	0.02229
2135.66202	0.02256
2134.37625	0.02276
2133.09048	0.02300
2131.80471	0.02338
2130.51895	0.02386
2129.23318	0.02438
2127.94741	0.02492
2126.66164	0.02553
2125.37587	0.02621
2124.09010	0.02677
2122.80433	0.02704
2121.51856	0.02709
2120.23280	0.02723
2118.94703	0.02760
2117.66126	0.02800
2116.37549	0.02808
2115.08972	0.02771
2113.80395	0.02712
2112.51818	0.02659
2111.23241	0.02625
2109.94664	0.02605
2108.66088	0.02604
2107.37511	0.02634
2106.08934	0.02690
2104.80357	0.02737
2103.51780	0.02744
2102.23203	0.02720
2100.94626	0.02694
2099.66049	0.02638
2098.37473	0.02585
2097.08896	0.02526
2095.80319	0.02468
2094.51742	0.02439
2093.23165	0.02454
2091.94588	0.02496
2090.66011	0.02534
2089.37434	0.02543
2088.08857	0.02527
2086.80281	0.02508
2085.51704	0.02498
2084.23127	0.02489
2082.94550	0.02464
2081.65973	0.02429
2080.37396	0.02400
2079.08819	0.02384
2077.80242	0.02364
2076.51666	0.02332
2075.23089	0.02299
2073.94512	0.02287
2072.65935	0.02285
2071.37358	0.02258
2070.08781	0.02190
2068.80204	0.02111
2067.51627	0.02081
2066.23050	0.02127
2064.94474	0.02216
2063.65897	0.02282
2062.37320	0.02284
2061.08743	0.02233
2059.80166	0.02168
2058.51589	0.02122
2057.23012	0.02107
2055.94435	0.02109
2054.65859	0.02099
2053.37282	0.02050
2052.08705	0.01954
2050.80128	0.01830
2049.51551	0.01699
2048.22974	0.01583
2046.94397	0.01512
2045.65820	0.01520
2044.37243	0.01618
2043.08667	0.01755
2041.80090	0.01843
2040.51513	0.01824
2039.22936	0.01720
2037.94359	0.01616
2036.65782	0.01589
2035.37205	0.01656
2034.08628	0.01756
2032.80052	0.01806
2031.51475	0.01771
2030.22898	0.01698
2028.94321	0.01665
2027.65744	0.01704
2026.37167	0.01790
2025.08590	0.01882
2023.80013	0.01946
2022.51436	0.01938
2021.22860	0.01823
2019.94283	0.01635
2018.65706	0.01476
2017.37129	0.01425
2016.08552	0.01473
2014.79975	0.01557
2013.51398	0.01636
2012.22821	0.01700
2010.94245	0.01735
2009.65668	0.01717
2008.37091	0.01646
2007.08514	0.01558
2005.79937	0.01501
2004.51360	0.01502
2003.22783	0.01565
2001.94206	0.01663
2000.65629	0.01748
1999.37053	0.01776
1998.08476	0.01747
1996.79899	0.01704
1995.51322	0.01701
1994.22745	0.01753
1992.94168	0.01829
1991.65591	0.01882
1990.37014	0.01892
1989.08438	0.01871
1987.79861	0.01841
1986.51284	0.01818
1985.22707	0.01811
1983.94130	0.01821
1982.65553	0.01829
1981.36976	0.01795
1980.08399	0.01686
1978.79822	0.01518
1977.51246	0.01352
1976.22669	0.01255
1974.94092	0.01255
1973.65515	0.01344
1972.36938	0.01491
1971.08361	0.01649
1969.79784	0.01771
1968.51207	0.01825
1967.22631	0.01813
1965.94054	0.01753
1964.65477	0.01674
1963.36900	0.01614
1962.08323	0.01606
1960.79746	0.01652
1959.51169	0.01712
1958.22592	0.01752
1956.94015	0.01779
1955.65439	0.01811
1954.36862	0.01848
1953.08285	0.01870
1951.79708	0.01878
1950.51131	0.01888
1949.22554	0.01907
1947.93977	0.01923
1946.65400	0.01928
1945.36823	0.01938
1944.08247	0.01974
1942.79670	0.02031
1941.51093	0.02075
1940.22516	0.02080
1938.93939	0.02052
1937.65362	0.02018
1936.36785	0.02004
1935.08208	0.02010
1933.79632	0.02024
1932.51055	0.02030
1931.22478	0.02022
1929.93901	0.02007
1928.65324	0.01999
1927.36747	0.02008
1926.08170	0.02025
1924.79593	0.02035
1923.51016	0.02031
1922.22440	0.02023
1920.93863	0.02028
1919.65286	0.02051
1918.36709	0.02077
1917.08132	0.02098
1915.79555	0.02116
1914.50978	0.02139
1913.22401	0.02162
1911.93825	0.02175
1910.65248	0.02169
1909.36671	0.02151
1908.08094	0.02133
1906.79517	0.02132
1905.50940	0.02156
1904.22363	0.02194
1902.93786	0.02228
1901.65209	0.02238
1900.36633	0.02225
1899.08056	0.02202
1897.79479	0.02181
1896.50902	0.02161
1895.22325	0.02137
1893.93748	0.02110
1892.65171	0.02095
1891.36594	0.02102
1890.08018	0.02128
1888.79441	0.02155
1887.50864	0.02173
1886.22287	0.02186
1884.93710	0.02196
1883.65133	0.02199
1882.36556	0.02186
1881.07979	0.02158
1879.79402	0.02127
1878.50826	0.02107
1877.22249	0.02106
1875.93672	0.02124
1874.65095	0.02151
1873.36518	0.02178
1872.07941	0.02195
1870.79364	0.02199
1869.50787	0.02192
1868.22211	0.02182
1866.93634	0.02172
1865.65057	0.02162
1864.36480	0.02146
1863.07903	0.02123
1861.79326	0.02104
1860.50749	0.02097
1859.22172	0.02095
1857.93595	0.02086
1856.65019	0.02069
1855.36442	0.02059
1854.07865	0.02068
1852.79288	0.02094
1851.50711	0.02121
1850.22134	0.02136
1848.93557	0.02135
1847.64980	0.02124
1846.36404	0.02113
1845.07827	0.02107
1843.79250	0.02108
1842.50673	0.02110
1841.22096	0.02107
1839.93519	0.02095
1838.64942	0.02078
1837.36365	0.02066
1836.07788	0.02064
1834.79212	0.02072
1833.50635	0.02083
1832.22058	0.02093
1830.93481	0.02100
1829.64904	0.02106
1828.36327	0.02109
1827.07750	0.02101
1825.79173	0.02079
1824.50597	0.02054
1823.22020	0.02035
1821.93443	0.02025
1820.64866	0.02016
1819.36289	0.02003
1818.07712	0.01997
1816.79135	0.02009
1815.50558	0.02040
1814.21981	0.02074
1812.93405	0.02088
1811.64828	0.02078
1810.36251	0.02055
1809.07674	0.02039
1807.79097	0.02036
1806.50520	0.02039
1805.21943	0.02041
1803.93366	0.02039
1802.64790	0.02040
1801.36213	0.02045
1800.07636	0.02051
1798.79059	0.02053
1797.50482	0.02052
1796.21905	0.02050
1794.93328	0.02053
1793.64751	0.02063
1792.36174	0.02076
1791.07598	0.02087
1789.79021	0.02087
1788.50444	0.02073
1787.21867	0.02054
1785.93290	0.02039
1784.64713	0.02040
1783.36136	0.02053
1782.07559	0.02071
1780.78983	0.02083
1779.50406	0.02085
1778.21829	0.02080
1776.93252	0.02073
1775.64675	0.02069
1774.36098	0.02069
1773.07521	0.02072
1771.78944	0.02076
1770.50367	0.02080
1769.21791	0.02085
1767.93214	0.02090
1766.64637	0.02093
1765.36060	0.02094
1764.07483	0.02093
1762.78906	0.02092
1761.50329	0.02089
1760.21752	0.02089
1758.93176	0.02096
1757.64599	0.02115
1756.36022	0.02146
1755.07445	0.02184
1753.78868	0.02222
1752.50291	0.02260
1751.21714	0.02299
1749.93137	0.02342
1748.64560	0.02387
1747.35984	0.02430
1746.07407	0.02467
1744.78830	0.02502
1743.50253	0.02538
1742.21676	0.02578
1740.93099	0.02625
1739.64522	0.02681
1738.35945	0.02743
1737.07369	0.02807
1735.78792	0.02864
1734.50215	0.02912
1733.21638	0.02953
1731.93061	0.02991
1730.64484	0.03026
1729.35907	0.03059
1728.07330	0.03091
1726.78753	0.03129
1725.50177	0.03178
1724.21600	0.03236
1722.93023	0.03290
1721.64446	0.03336
1720.35869	0.03377
1719.07292	0.03423
1717.78715	0.03478
1716.50138	0.03537
1715.21561	0.03600
1713.92985	0.03667
1712.64408	0.03746
1711.35831	0.03841
1710.07254	0.03953
1708.78677	0.04080
1707.50100	0.04219
1706.21523	0.04372
1704.92946	0.04536
1703.64370	0.04716
1702.35793	0.04915
1701.07216	0.05140
1699.78639	0.05391
1698.50062	0.05664
1697.21485	0.05951
1695.92908	0.06243
1694.64331	0.06530
1693.35754	0.06806
1692.07178	0.07074
1690.78601	0.07341
1689.50024	0.07615
1688.21447	0.07899
1686.92870	0.08195
1685.64293	0.08507
1684.35716	0.08830
1683.07139	0.09153
1681.78563	0.09475
1680.49986	0.09800
1679.21409	0.10138
1677.92832	0.10492
1676.64255	0.10859
1675.35678	0.11237
1674.07101	0.11623
1672.78524	0.12013
1671.49947	0.12411
1670.21371	0.12814
1668.92794	0.13215
1667.64217	0.13605
1666.35640	0.13983
1665.07063	0.14356
1663.78486	0.14732
1662.49909	0.15107
1661.21332	0.15472
1659.92756	0.15815
1658.64179	0.16131
1657.35602	0.16420
1656.07025	0.16690
1654.78448	0.16949
1653.49871	0.17196
1652.21294	0.17418
1650.92717	0.17598
1649.64140	0.17737
1648.35564	0.17850
1647.06987	0.17950
1645.78410	0.18043
1644.49833	0.18126
1643.21256	0.18200
1641.92679	0.18268
1640.64102	0.18331
1639.35525	0.18386
1638.06949	0.18429
1636.78372	0.18459
1635.49795	0.18477
1634.21218	0.18481
1632.92641	0.18465
1631.64064	0.18418
1630.35487	0.18332
1629.06910	0.18205
1627.78333	0.18032
1626.49757	0.17814
1625.21180	0.17550
1623.92603	0.17243
1622.64026	0.16893
1621.35449	0.16503
1620.06872	0.16080
1618.78295	0.15635
1617.49718	0.15179
1616.21142	0.14725
1614.92565	0.14277
1613.63988	0.13834
1612.35411	0.13394
1611.06834	0.12961
1609.78257	0.12540
1608.49680	0.12137
1607.21103	0.11755
1605.92526	0.11394
1604.63950	0.11054
1603.35373	0.10739
1602.06796	0.10452
1600.78219	0.10194
1599.49642	0.09961
1598.21065	0.09750
1596.92488	0.09560
1595.63911	0.09388
1594.35335	0.09232
1593.06758	0.09093
1591.78181	0.08974
1590.49604	0.08879
1589.21027	0.08808
1587.92450	0.08758
1586.63873	0.08724
1585.35296	0.08703
1584.06719	0.08695
1582.78143	0.08700
1581.49566	0.08719
1580.20989	0.08757
1578.92412	0.08816
1577.63835	0.08899
1576.35258	0.09008
1575.06681	0.09139
1573.78104	0.09287
1572.49528	0.09445
1571.20951	0.09611
1569.92374	0.09788
1568.63797	0.09981
1567.35220	0.10191
1566.06643	0.10415
1564.78066	0.10645
1563.49489	0.10878
1562.20912	0.11117
1560.92336	0.11364
1559.63759	0.11622
1558.35182	0.11882
1557.06605	0.12137
1555.78028	0.12382
1554.49451	0.12617
1553.20874	0.12843
1551.92297	0.13057
1550.63721	0.13260
1549.35144	0.13451
1548.06567	0.13629
1546.77990	0.13792
1545.49413	0.13936
1544.20836	0.14062
1542.92259	0.14168
1541.63682	0.14258
1540.35105	0.14332
1539.06529	0.14389
1537.77952	0.14429
1536.49375	0.14454
1535.20798	0.14467
1533.92221	0.14472
1532.63644	0.14471
1531.35067	0.14459
1530.06490	0.14436
1528.77914	0.14398
1527.49337	0.14347
1526.20760	0.14285
1524.92183	0.14214
1523.63606	0.14142
1522.35029	0.14070
1521.06452	0.14001
1519.77875	0.13931
1518.49298	0.13854
1517.20722	0.13761
1515.92145	0.13635
1514.63568	0.13470
1513.34991	0.13267
1512.06414	0.13037
1510.77837	0.12791
1509.49260	0.12534
1508.20683	0.12266
1506.92107	0.11985
1505.63530	0.11697
1504.34953	0.11406
1503.06376	0.11119
1501.77799	0.10839
1500.49222	0.10565
1499.20645	0.10294
1497.92068	0.10023
1496.63491	0.09750
1495.34915	0.09479
1494.06338	0.09211
1492.77761	0.08950
1491.49184	0.08700
1490.20607	0.08463
1488.92030	0.08243
1487.63453	0.08044
1486.34876	0.07869
1485.06299	0.07718
1483.77723	0.07592
1482.49146	0.07488
1481.20569	0.07408
1479.91992	0.07355
1478.63415	0.07329
1477.34838	0.07333
1476.06261	0.07367
1474.77684	0.07431
1473.49108	0.07525
1472.20531	0.07639
1470.91954	0.07761
1469.63377	0.07877
1468.34800	0.07978
1467.06223	0.08067
1465.77646	0.08147
1464.49069	0.08227
1463.20492	0.08312
1461.91916	0.08404
1460.63339	0.08500
1459.34762	0.08599
1458.06185	0.08700
1456.77608	0.08799
1455.49031	0.08890
1454.20454	0.08964
1452.91877	0.09016
1451.63301	0.09044
1450.34724	0.09048
1449.06147	0.09031
1447.77570	0.08999
1446.48993	0.08958
1445.20416	0.08911
1443.91839	0.08863
1442.63262	0.08813
1441.34685	0.08758
1440.06109	0.08693
1438.77532	0.08612
1437.48955	0.08514
1436.20378	0.08403
1434.91801	0.08289
1433.63224	0.08178
1432.34647	0.08073
1431.06070	0.07978
1429.77494	0.07896
1428.48917	0.07829
1427.20340	0.07778
1425.91763	0.07743
1424.63186	0.07720
1423.34609	0.07709
1422.06032	0.07711
1420.77455	0.07728
1419.48878	0.07755
1418.20302	0.07783
1416.91725	0.07804
1415.63148	0.07821
1414.34571	0.07841
1413.05994	0.07864
1411.77417	0.07887
1410.48840	0.07903
1409.20263	0.07911
1407.91687	0.07918
1406.63110	0.07930
1405.34533	0.07949
1404.05956	0.07971
1402.77379	0.07993
1401.48802	0.08008
1400.20225	0.08015
1398.91648	0.08012
1397.63071	0.08006
1396.34495	0.08002
1395.05918	0.08004
1393.77341	0.08010
1392.48764	0.08017
1391.20187	0.08020
1389.91610	0.08018
1388.63033	0.08011
1387.34456	0.07998
1386.05880	0.07977
1384.77303	0.07948
1383.48726	0.07913
1382.20149	0.07874
1380.91572	0.07832
1379.62995	0.07787
1378.34418	0.07739
1377.05841	0.07687
1375.77264	0.07634
1374.48688	0.07581
1373.20111	0.07527
1371.91534	0.07470
1370.62957	0.07406
1369.34380	0.07331
1368.05803	0.07247
1366.77226	0.07157
1365.48649	0.07069
1364.20073	0.06990
1362.91496	0.06921
1361.62919	0.06860
1360.34342	0.06806
1359.05765	0.06758
1357.77188	0.06718
1356.48611	0.06688
1355.20034	0.06670
1353.91457	0.06664
1352.62881	0.06672
1351.34304	0.06692
1350.05727	0.06717
1348.77150	0.06746
1347.48573	0.06776
1346.19996	0.06809
1344.91419	0.06845
1343.62842	0.06882
1342.34266	0.06914
1341.05689	0.06938
1339.77112	0.06952
1338.48535	0.06960
1337.19958	0.06965
1335.91381	0.06966
1334.62804	0.06958
1333.34227	0.06936
1332.05650	0.06901
1330.77074	0.06859
1329.48497	0.06818
1328.19920	0.06781
1326.91343	0.06748
1325.62766	0.06718
1324.34189	0.06691
1323.05612	0.06669
1321.77035	0.06654
1320.48459	0.06645
1319.19882	0.06642
1317.91305	0.06641
1316.62728	0.06639
1315.34151	0.06635
1314.05574	0.06628
1312.76997	0.06618
1311.48420	0.06604
1310.19843	0.06588
1308.91267	0.06568
1307.62690	0.06547
1306.34113	0.06529
1305.05536	0.06516
1303.76959	0.06509
1302.48382	0.06505
1301.19805	0.06502
1299.91228	0.06500
1298.62652	0.06496
1297.34075	0.06493
1296.05498	0.06493
1294.76921	0.06500
1293.48344	0.06518
1292.19767	0.06546
1290.91190	0.06580
1289.62613	0.06616
1288.34036	0.06653
1287.05460	0.06692
1285.76883	0.06735
1284.48306	0.06779
1283.19729	0.06821
1281.91152	0.06852
1280.62575	0.06874
1279.33998	0.06890
1278.05421	0.06908
1276.76845	0.06929
1275.48268	0.06952
1274.19691	0.06971
1272.91114	0.06985
1271.62537	0.06998
1270.33960	0.07015
1269.05383	0.07041
1267.76806	0.07078
1266.48229	0.07123
1265.19653	0.07172
1263.91076	0.07220
1262.62499	0.07266
1261.33922	0.07311
1260.05345	0.07360
1258.76768	0.07411
1257.48191	0.07465
1256.19614	0.07521
1254.91037	0.07582
1253.62461	0.07646
1252.33884	0.07713
1251.05307	0.07782
1249.76730	0.07854
1248.48153	0.07930
1247.19576	0.08010
1245.90999	0.08091
1244.62422	0.08172
1243.33846	0.08254
1242.05269	0.08333
1240.76692	0.08405
1239.48115	0.08463
1238.19538	0.08505
1236.90961	0.08532
1235.62384	0.08550
1234.33807	0.08561
1233.05230	0.08565
1231.76654	0.08557
1230.48077	0.08536
1229.19500	0.08502
1227.90923	0.08456
1226.62346	0.08399
1225.33769	0.08334
1224.05192	0.08264
1222.76615	0.08192
1221.48039	0.08122
1220.19462	0.08055
1218.90885	0.07989
1217.62308	0.07921
1216.33731	0.07855
1215.05154	0.07797
1213.76577	0.07752
1212.48000	0.07723
1211.19423	0.07705
1209.90847	0.07694
1208.62270	0.07687
1207.33693	0.07682
1206.05116	0.07678
1204.76539	0.07673
1203.47962	0.07664
1202.19385	0.07647
1200.90808	0.07622
1199.62232	0.07589
1198.33655	0.07544
1197.05078	0.07499
1195.76501	0.07456
1194.47924	0.07416
1193.19347	0.07375
1191.90770	0.07333
1190.62193	0.07292
1189.33616	0.07255
1188.05040	0.07229
1186.76463	0.07213
1185.47886	0.07207
1184.19309	0.07209
1182.90732	0.07214
1181.62155	0.07225
1180.33578	0.07242
1179.05001	0.07267
1177.76425	0.07294
1176.47848	0.07317
1175.19271	0.07333
1173.90694	0.07348
1172.62117	0.07367
1171.33540	0.07393
1170.04963	0.07424
1168.76386	0.07455
1167.47809	0.07481
1166.19233	0.07502
1164.90656	0.07519
1163.62079	0.07532
1162.33502	0.07540
1161.04925	0.07544
1159.76348	0.07546
1158.47771	0.07540
1157.19194	0.07522
1155.90618	0.07490
1154.62041	0.07450
1153.33464	0.07411
1152.04887	0.07372
1150.76310	0.07330
1149.47733	0.07279
1148.19156	0.07221
1146.90579	0.07162
1145.62002	0.07112
1144.33426	0.07076
1143.04849	0.07049
1141.76272	0.07023
1140.47695	0.06994
1139.19118	0.06961
1137.90541	0.06927
1136.61964	0.06898
1135.33387	0.06880
1134.04811	0.06874
1132.76234	0.06876
1131.47657	0.06876
1130.19080	0.06869
1128.90503	0.06859
1127.61926	0.06856
1126.33349	0.06862
1125.04772	0.06869
1123.76195	0.06873
1122.47619	0.06874
1121.19042	0.06877
1119.90465	0.06886
1118.61888	0.06897
1117.33311	0.06909
1116.04734	0.06924
1114.76157	0.06945
1113.47580	0.06973
1112.19004	0.07007
1110.90427	0.07046
1109.61850	0.07088
1108.33273	0.07127
1107.04696	0.07162
1105.76119	0.07198
1104.47542	0.07238
1103.18965	0.07285
1101.90388	0.07335
1100.61812	0.07386
1099.33235	0.07436
1098.04658	0.07484
1096.76081	0.07532
1095.47504	0.07581
1094.18927	0.07632
1092.90350	0.07684
1091.61773	0.07737
1090.33197	0.07788
1089.04620	0.07840
1087.76043	0.07898
1086.47466	0.07965
1085.18889	0.08036
1083.90312	0.08097
1082.61735	0.08139
1081.33158	0.08164
1080.04581	0.08178
1078.76005	0.08185
1077.47428	0.08186
1076.18851	0.08186
1074.90274	0.08187
1073.61697	0.08188
1072.33120	0.08185
1071.04543	0.08176
1069.75966	0.08167
1068.47390	0.08169
1067.18813	0.08186
1065.90236	0.08215
1064.61659	0.08247
1063.33082	0.08273
1062.04505	0.08293
1060.75928	0.08307
1059.47351	0.08320
1058.18774	0.08335
1056.90198	0.08351
1055.61621	0.08362
1054.33044	0.08367
1053.04467	0.08373
1051.75890	0.08382
1050.47313	0.08393
1049.18736	0.08404
1047.90159	0.08417
1046.61583	0.08435
1045.33006	0.08459
1044.04429	0.08483
1042.75852	0.08501
1041.47275	0.08513
1040.18698	0.08521
1038.90121	0.08530
1037.61544	0.08536
1036.32967	0.08536
1035.04391	0.08527
1033.75814	0.08513
1032.47237	0.08493
1031.18660	0.08463
1029.90083	0.08418
1028.61506	0.08358
1027.32929	0.08289
1026.04352	0.08213
1024.75775	0.08134
1023.47199	0.08056
1022.18622	0.07984
1020.90045	0.07922
1019.61468	0.07868
1018.32891	0.07821
1017.04314	0.07781
1015.75737	0.07746
1014.47160	0.07714
1013.18584	0.07679
1011.90007	0.07640
1010.61430	0.07596
1009.32853	0.07549
1008.04276	0.07502
1006.75699	0.07458
1005.47122	0.07411
1004.18545	0.07358
1002.89968	0.07298
1001.61392	0.07234
1000.32815	0.07173
999.04238	0.07120
997.75661	0.07076
996.47084	0.07040
995.18507	0.07007
993.89930	0.06969
992.61353	0.06924
991.32777	0.06873
990.04200	0.06818
988.75623	0.06764
987.47046	0.06717
986.18469	0.06678
984.89892	0.06642
983.61315	0.06601
982.32738	0.06553
981.04161	0.06508
979.75585	0.06474
978.47008	0.06453
977.18431	0.06437
975.89854	0.06416
974.61277	0.06384
973.32700	0.06342
972.04123	0.06293
970.75546	0.06238
969.46970	0.06175
968.18393	0.06104
966.89816	0.06030
965.61239	0.05964
964.32662	0.05913
963.04085	0.05874
961.75508	0.05839
960.46931	0.05799
959.18354	0.05752
957.89778	0.05699
956.61201	0.05647
955.32624	0.05601
954.04047	0.05564
952.75470	0.05531
951.46893	0.05498
950.18316	0.05466
948.89739	0.05435
947.61163	0.05407
946.32586	0.05375
945.04009	0.05337
943.75432	0.05293
942.46855	0.05246
941.18278	0.05202
939.89701	0.05162
938.61124	0.05127
937.32547	0.05095
936.03971	0.05067
934.75394	0.05040
933.46817	0.05011
932.18240	0.04977
930.89663	0.04938
929.61086	0.04898
928.32509	0.04862
927.03932	0.04832
925.75356	0.04805
924.46779	0.04781
923.18202	0.04761
921.89625	0.04739
920.61048	0.04709
919.32471	0.04669
918.03894	0.04625
916.75317	0.04586
915.46740	0.04550
914.18164	0.04513
912.89587	0.04469
911.61010	0.04423
910.32433	0.04383
909.03856	0.04355
907.75279	0.04336
906.46702	0.04321
905.18125	0.04305
903.89549	0.04285
902.60972	0.04259
901.32395	0.04226
900.03818	0.04188
898.75241	0.04153
897.46664	0.04127
896.18087	0.04107
894.89510	0.04087
893.60933	0.04066
892.32357	0.04045
891.03780	0.04029
889.75203	0.04014
888.46626	0.03995
887.18049	0.03973
885.89472	0.03951
884.60895	0.03931
883.32318	0.03910
882.03742	0.03887
880.75165	0.03861
879.46588	0.03840
878.18011	0.03829
876.89434	0.03830
875.60857	0.03833
874.32280	0.03828
873.03703	0.03808
871.75126	0.03777
870.46550	0.03748
869.17973	0.03728
867.89396	0.03714
866.60819	0.03700
865.32242	0.03683
864.03665	0.03663
862.75088	0.03646
861.46511	0.03634
860.17935	0.03627
858.89358	0.03622
857.60781	0.03615
856.32204	0.03604
855.03627	0.03594
853.75050	0.03589
852.46473	0.03592
851.17896	0.03601
849.89319	0.03609
848.60743	0.03612
847.32166	0.03608
846.03589	0.03600
844.75012	0.03592
843.46435	0.03586
842.17858	0.03579
840.89281	0.03571
839.60704	0.03563
838.32128	0.03559
837.03551	0.03561
835.74974	0.03568
834.46397	0.03575
833.17820	0.03581
831.89243	0.03589
830.60666	0.03598
829.32089	0.03607
828.03512	0.03613
826.74936	0.03617
825.46359	0.03620
824.17782	0.03620
822.89205	0.03621
821.60628	0.03624
820.32051	0.03635
819.03474	0.03653
817.74897	0.03676
816.46321	0.03700
815.17744	0.03717
813.89167	0.03727
812.60590	0.03738
811.32013	0.03758
810.03436	0.03788
808.74859	0.03823
807.46282	0.03863
806.17705	0.03910
804.89129	0.03963
803.60552	0.04016
802.31975	0.04063
801.03398	0.04100
799.74821	0.04127
798.46244	0.04146
797.17667	0.04163
795.89090	0.04183
794.60513	0.04207
793.31937	0.04235
792.03360	0.04267
790.74783	0.04300
789.46206	0.04329
788.17629	0.04349
786.89052	0.04358
785.60475	0.04362
784.31898	0.04364
783.03322	0.04368
781.74745	0.04377
780.46168	0.04390
779.17591	0.04406
777.89014	0.04421
776.60437	0.04432
775.31860	0.04436
774.03283	0.04437
772.74706	0.04438
771.46130	0.04444
770.17553	0.04456
768.88976	0.04481
767.60399	0.04525
766.31822	0.04585
765.03245	0.04648
763.74668	0.04702
762.46091	0.04741
761.17515	0.04766
759.88938	0.04779
758.60361	0.04779
757.31784	0.04770
756.03207	0.04758
754.74630	0.04749
753.46053	0.04749
752.17476	0.04760
750.88899	0.04778
749.60323	0.04801
748.31746	0.04831
747.03169	0.04868
745.74592	0.04907
744.46015	0.04940
743.17438	0.04962
741.88861	0.04972
740.60284	0.04970
739.31708	0.04959
738.03131	0.04948
736.74554	0.04942
735.45977	0.04942
734.17400	0.04948
732.88823	0.04962
731.60246	0.04985
730.31669	0.05016
729.03092	0.05053
727.74516	0.05093
726.45939	0.05135
725.17362	0.05177
723.88785	0.05213
722.60208	0.05248
721.31631	0.05272
720.03054	0.05282
718.74477	0.05279
717.45901	0.05272
716.17324	0.05264
714.88747	0.05257
713.60170	0.05252
712.31593	0.05251
711.03016	0.05255
709.74439	0.05267
708.45862	0.05288
707.17285	0.05315
705.88709	0.05344
704.60132	0.05372
703.31555	0.05399
702.02978	0.05425
700.74401	0.05450
699.45824	0.05473
698.17247	0.05493
696.88670	0.05509
695.60094	0.05520
694.31517	0.05523
693.02940	0.05515
691.74363	0.05499
690.45786	0.05481
689.17209	0.05466
687.88632	0.05462
686.60055	0.05468
685.31478	0.05481
684.02902	0.05495
682.74325	0.05504
681.45748	0.05512
680.17171	0.05521
678.88594	0.05535
677.60017	0.05552
676.31440	0.05569
675.02863	0.05587
673.74287	0.05605
672.45710	0.05623
671.17133	0.05639
669.88556	0.05656
668.59979	0.05671
667.31402	0.05681
666.02825	0.05688
664.74248	0.05697
663.45671	0.05713
662.17095	0.05734
660.88518	0.05759
659.59941	0.05786
658.31364	0.05816
657.02787	0.05850
655.74210	0.05888
654.45633	0.05930
653.17056	0.05975
651.88480	0.06019
650.59903	0.06058
649.31326	0.06088
648.02749	0.06106
646.74172	0.06109
645.45595	0.06099
644.17018	0.06082
642.88441	0.06063
641.59864	0.06043
640.31288	0.06020
639.02711	0.05998
637.74134	0.05980
636.45557	0.05971
635.16980	0.05969
633.88403	0.05968
632.59826	0.05963
631.31249	0.05946
630.02673	0.05898
628.74096	0.05840
627.45519	0.05865
626.16942	0.05830
624.88365	0.05741
623.59788	0.05627
622.31211	0.05506
621.02634	0.05417
619.74057	0.05407
618.45481	0.05504
617.16904	0.05682
615.88327	0.05866
614.59750	0.05987
613.31173	0.06043
612.02596	0.06079
610.74019	0.06122
609.45442	0.06162
608.16866	0.06181
606.88289	0.06180
605.59712	0.06164
604.31135	0.06149
603.02558	0.06166
601.73981	0.06230
600.45404	0.06319
599.16827	0.06397
597.88250	0.06444
596.59674	0.06466
595.31097	0.06481
594.02520	0.06496
592.73943	0.06511
591.45366	0.06521
590.16789	0.06528
588.88212	0.06531
587.59635	0.06530
586.31059	0.06527
585.02482	0.06526
583.73905	0.06530
582.45328	0.06533
581.16751	0.06527
579.88174	0.06510
578.59597	0.06482
577.31020	0.06446
576.02443	0.06408
574.73867	0.06373
573.45290	0.06344
572.16713	0.06317
570.88136	0.06288
569.59559	0.06260
568.30982	0.06244
567.02405	0.06245
565.73828	0.06257
564.45251	0.06267
563.16675	0.06265
561.88098	0.06254
560.59521	0.06239
559.30944	0.06222
558.02367	0.06205
556.73790	0.06192
555.45213	0.06184
554.16636	0.06175
552.88060	0.06158
551.59483	0.06135
550.30906	0.06122
549.02329	0.06132
547.73752	0.06164
546.45175	0.06201
545.16598	0.06224
543.88021	0.06230
542.59444	0.06224
541.30868	0.06216
540.02291	0.06215
538.73714	0.06224
537.45137	0.06243
536.16560	0.06268
534.87983	0.06293
533.59406	0.06308
532.30829	0.06309
531.02253	0.06299
529.73676	0.06291
528.45099	0.06292
527.16522	0.06300
525.87945	0.06302
524.59368	0.06287
523.30791	0.06254
522.02214	0.06210
520.73637	0.06165
519.45061	0.06123
518.16484	0.06087
516.87907	0.06059
515.59330	0.06044
514.30753	0.06042
513.02176	0.06045
511.73599	0.06038
510.45022	0.06015
509.16446	0.05980
507.87869	0.05946
506.59292	0.05918
505.30715	0.05898
504.02138	0.05881
502.73561	0.05858
501.44984	0.05823
500.16407	0.05777
498.87830	0.05730
497.59254	0.05689
496.30677	0.05656
495.02100	0.05629
493.73523	0.05604
492.44946	0.05582
491.16369	0.05563
489.87792	0.05554
488.59215	0.05557
487.30639	0.05566
486.02062	0.05574
484.73485	0.05581
483.44908	0.05594
482.16331	0.05616
480.87754	0.05642
479.59177	0.05664
478.30600	0.05684
477.02023	0.05704
475.73447	0.05726
474.44870	0.05742
473.16293	0.05742
471.87716	0.05723
470.59139	0.05691
469.30562	0.05660
468.01985	0.05645
466.73408	0.05653
465.44832	0.05679
464.16255	0.05706
462.87678	0.05713
461.59101	0.05688
460.30524	0.05635
459.01947	0.05572
457.73370	0.05516
456.44793	0.05474
455.16216	0.05440
453.87640	0.05405
452.59063	0.05365
451.30486	0.05319
450.01909	0.05270
448.73332	0.05223
447.44755	0.05180
446.16178	0.05145
444.87601	0.05121
443.59025	0.05108
442.30448	0.05102
441.01871	0.05098
439.73294	0.05092
438.44717	0.05084
437.16140	0.05078
435.87563	0.05079
434.58986	0.05089
433.30409	0.05107
432.01833	0.05128
430.73256	0.05143
429.44679	0.05146
428.16102	0.05138
426.87525	0.05124
425.58948	0.05106
424.30371	0.05089
423.01794	0.05072
421.73218	0.05055
420.44641	0.05038
419.16064	0.05019
417.87487	0.04996
416.58910	0.04967
415.30333	0.04930
414.01756	0.04886
412.73179	0.04838
411.44602	0.04789
410.16026	0.04740
408.87449	0.04694
407.58872	0.04657
406.30295	0.04637
405.01718	0.04634
403.73141	0.04643
402.44564	0.04662
401.15987	0.04687
399.87411	0.04712
