3996.16951	0.00742
3994.24086	0.00756
3992.31221	0.00769
3990.38355	0.00774
3988.45490	0.00778
3986.52625	0.00792
3984.59759	0.00797
3982.66894	0.00782
3980.74029	0.00770
3978.81163	0.00770
3976.88298	0.00770
3974.95433	0.00764
3973.02567	0.00765
3971.09702	0.00773
3969.16837	0.00770
3967.23972	0.00754
3965.31106	0.00748
3963.38241	0.00761
3961.45376	0.00777
3959.52510	0.00782
3957.59645	0.00784
3955.66780	0.00793
3953.73914	0.00810
3951.81049	0.00819
3949.88184	0.00815
3947.95318	0.00801
3946.02453	0.00784
3944.09588	0.00774
3942.16722	0.00767
3940.23857	0.00758
3938.30992	0.00745
3936.38126	0.00728
3934.45261	0.00725
3932.52396	0.00738
3930.59530	0.00753
3928.66665	0.00773
3926.73800	0.00785
3924.80934	0.00773
3922.88069	0.00755
3920.95204	0.00748
3919.02338	0.00749
3917.09473	0.00755
3915.16608	0.00765
3913.23742	0.00774
3911.30877	0.00768
3909.38012	0.00755
3907.45146	0.00753
3905.52281	0.00766
3903.59416	0.00776
3901.66550	0.00779
3899.73685	0.00777
3897.80820	0.00771
3895.87955	0.00775
3893.95089	0.00787
3892.02224	0.00783
3890.09359	0.00749
3888.16493	0.00724
3886.23628	0.00732
3884.30763	0.00728
3882.37897	0.00720
3880.45032	0.00720
3878.52167	0.00700
3876.59301	0.00696
3874.66436	0.00718
3872.73571	0.00734
3870.80705	0.00744
3868.87840	0.00734
3866.94975	0.00724
3865.02109	0.00738
3863.09244	0.00750
3861.16379	0.00759
3859.23513	0.00753
3857.30648	0.00737
3855.37783	0.00749
3853.44917	0.00759
3851.52052	0.00737
3849.59187	0.00734
3847.66321	0.00752
3845.73456	0.00767
3843.80591	0.00768
3841.87725	0.00756
3839.94860	0.00763
3838.01995	0.00783
3836.09129	0.00771
3834.16264	0.00748
3832.23399	0.00739
3830.30534	0.00738
3828.37668	0.00744
3826.44803	0.00740
3824.51938	0.00721
3822.59072	0.00719
3820.66207	0.00713
3818.73342	0.00703
3816.80476	0.00734
3814.87611	0.00748
3812.94746	0.00747
3811.01880	0.00762
3809.09015	0.00770
3807.16150	0.00764
3805.23284	0.00736
3803.30419	0.00741
3801.37554	0.00765
3799.44688	0.00744
3797.51823	0.00729
3795.58958	0.00727
3793.66092	0.00733
3791.73227	0.00754
3789.80362	0.00760
3787.87496	0.00743
3785.94631	0.00720
3784.01766	0.00712
3782.08900	0.00727
3780.16035	0.00747
3778.23170	0.00740
3776.30304	0.00726
3774.37439	0.00726
3772.44574	0.00733
3770.51708	0.00742
3768.58843	0.00734
3766.65978	0.00721
3764.73112	0.00714
3762.80247	0.00718
3760.87382	0.00731
3758.94517	0.00726
3757.01651	0.00708
3755.08786	0.00694
3753.15921	0.00696
3751.23055	0.00699
3749.30190	0.00692
3747.37325	0.00683
3745.44459	0.00714
3743.51594	0.00706
3741.58729	0.00661
3739.65863	0.00659
3737.72998	0.00684
3735.80133	0.00700
3733.87267	0.00702
3731.94402	0.00701
3730.01537	0.00690
3728.08671	0.00695
3726.15806	0.00698
3724.22941	0.00693
3722.30075	0.00701
3720.37210	0.00703
3718.44345	0.00705
3716.51479	0.00703
3714.58614	0.00703
3712.65749	0.00705
3710.72883	0.00692
3708.80018	0.00678
3706.87153	0.00665
3704.94287	0.00664
3703.01422	0.00682
3701.08557	0.00700
3699.15691	0.00702
3697.22826	0.00699
3695.29961	0.00693
3693.37095	0.00692
3691.44230	0.00690
3689.51365	0.00689
3687.58500	0.00677
3685.65634	0.00657
3683.72769	0.00658
3681.79904	0.00671
3679.87038	0.00694
3677.94173	0.00722
3676.01308	0.00737
3674.08442	0.00703
3672.15577	0.00689
3670.22712	0.00707
3668.29846	0.00703
3666.36981	0.00703
3664.44116	0.00709
3662.51250	0.00711
3660.58385	0.00711
3658.65520	0.00718
3656.72654	0.00734
3654.79789	0.00737
3652.86924	0.00739
3650.94058	0.00746
3649.01193	0.00744
3647.08328	0.00743
3645.15462	0.00756
3643.22597	0.00772
3641.29732	0.00778
3639.36866	0.00780
3637.44001	0.00782
3635.51136	0.00779
3633.58270	0.00769
3631.65405	0.00764
3629.72540	0.00793
3627.79674	0.00804
3625.86809	0.00800
3623.93944	0.00792
3622.01079	0.00786
3620.08213	0.00785
3618.15348	0.00797
3616.22483	0.00826
3614.29617	0.00848
3612.36752	0.00847
3610.43887	0.00846
3608.51021	0.00855
3606.58156	0.00853
3604.65291	0.00859
3602.72425	0.00871
3600.79560	0.00871
3598.86695	0.00868
3596.93829	0.00888
3595.00964	0.00923
3593.08099	0.00939
3591.15233	0.00936
3589.22368	0.00935
3587.29503	0.00930
3585.36637	0.00922
3583.43772	0.00926
3581.50907	0.00937
3579.58041	0.00945
3577.65176	0.00955
3575.72311	0.00973
3573.79445	0.00996
3571.86580	0.01015
3569.93715	0.01027
3568.00849	0.01035
3566.07984	0.01036
3564.15119	0.01038
3562.22253	0.01051
3560.29388	0.01070
3558.36523	0.01087
3556.43657	0.01089
3554.50792	0.01074
3552.57927	0.01064
3550.65062	0.01076
3548.72196	0.01108
3546.79331	0.01137
3544.86466	0.01154
3542.93600	0.01167
3541.00735	0.01181
3539.07870	0.01188
3537.15004	0.01186
3535.22139	0.01181
3533.29274	0.01179
3531.36408	0.01184
3529.43543	0.01190
3527.50678	0.01195
3525.57812	0.01205
3523.64947	0.01222
3521.72082	0.01244
3519.79216	0.01268
3517.86351	0.01281
3515.93486	0.01279
3514.00620	0.01280
3512.07755	0.01288
3510.14890	0.01294
3508.22024	0.01288
3506.29159	0.01287
3504.36294	0.01313
3502.43428	0.01346
3500.50563	0.01355
3498.57698	0.01347
3496.64832	0.01344
3494.71967	0.01349
3492.79102	0.01360
3490.86236	0.01374
3488.93371	0.01385
3487.00506	0.01388
3485.07641	0.01388
3483.14775	0.01390
3481.21910	0.01398
3479.29045	0.01411
3477.36179	0.01419
3475.43314	0.01422
3473.50449	0.01426
3471.57583	0.01437
3469.64718	0.01449
3467.71853	0.01455
3465.78987	0.01456
3463.86122	0.01465
3461.93257	0.01479
3460.00391	0.01483
3458.07526	0.01478
3456.14661	0.01482
3454.21795	0.01499
3452.28930	0.01511
3450.36065	0.01511
3448.43199	0.01509
3446.50334	0.01516
3444.57469	0.01529
3442.64603	0.01540
3440.71738	0.01548
3438.78873	0.01548
3436.86007	0.01545
3434.93142	0.01548
3433.00277	0.01563
3431.07411	0.01578
3429.14546	0.01589
3427.21681	0.01597
3425.28815	0.01600
3423.35950	0.01607
3421.43085	0.01621
3419.50219	0.01630
3417.57354	0.01625
3415.64489	0.01615
3413.71624	0.01613
3411.78758	0.01624
3409.85893	0.01641
3407.93028	0.01652
3406.00162	0.01658
3404.07297	0.01661
3402.14432	0.01666
3400.21566	0.01675
3398.28701	0.01685
3396.35836	0.01692
3394.42970	0.01699
3392.50105	0.01708
3390.57240	0.01718
3388.64374	0.01723
3386.71509	0.01724
3384.78644	0.01729
3382.85778	0.01733
3380.92913	0.01731
3379.00048	0.01727
3377.07182	0.01729
3375.14317	0.01736
3373.21452	0.01741
3371.28586	0.01741
3369.35721	0.01742
3367.42856	0.01749
3365.49990	0.01761
3363.57125	0.01772
3361.64260	0.01781
3359.71394	0.01785
3357.78529	0.01785
3355.85664	0.01780
3353.92798	0.01779
3351.99933	0.01784
3350.07068	0.01781
3348.14202	0.01774
3346.21337	0.01776
3344.28472	0.01789
3342.35607	0.01804
3340.42741	0.01817
3338.49876	0.01829
3336.57011	0.01832
3334.64145	0.01828
3332.71280	0.01822
3330.78415	0.01826
3328.85549	0.01831
3326.92684	0.01827
3324.99819	0.01819
3323.06953	0.01824
3321.14088	0.01838
3319.21223	0.01852
3317.28357	0.01861
3315.35492	0.01859
3313.42627	0.01846
3311.49761	0.01835
3309.56896	0.01843
3307.64031	0.01864
3305.71165	0.01888
3303.78300	0.01906
3301.85435	0.01915
3299.92569	0.01913
3297.99704	0.01906
3296.06839	0.01898
3294.13973	0.01894
3292.21108	0.01899
3290.28243	0.01913
3288.35377	0.01922
3286.42512	0.01916
3284.49647	0.01908
3282.56781	0.01914
3280.63916	0.01924
3278.71051	0.01926
3276.78186	0.01924
3274.85320	0.01922
3272.92455	0.01915
3270.99590	0.01900
3269.06724	0.01892
3267.13859	0.01902
3265.20994	0.01916
3263.28128	0.01921
3261.35263	0.01922
3259.42398	0.01924
3257.49532	0.01915
3255.56667	0.01902
3253.63802	0.01904
3251.70936	0.01917
3249.78071	0.01926
3247.85206	0.01925
3245.92340	0.01921
3243.99475	0.01919
3242.06610	0.01921
3240.13744	0.01923
3238.20879	0.01923
3236.28014	0.01913
3234.35148	0.01898
3232.42283	0.01888
3230.49418	0.01894
3228.56552	0.01911
3226.63687	0.01928
3224.70822	0.01930
3222.77956	0.01912
3220.85091	0.01890
3218.92226	0.01879
3216.99360	0.01878
3215.06495	0.01877
3213.13630	0.01869
3211.20764	0.01860
3209.27899	0.01861
3207.35034	0.01875
3205.42169	0.01891
3203.49303	0.01892
3201.56438	0.01881
3199.63573	0.01871
3197.70707	0.01867
3195.77842	0.01870
3193.84977	0.01869
3191.92111	0.01860
3189.99246	0.01856
3188.06381	0.01861
3186.13515	0.01860
3184.20650	0.01849
3182.27785	0.01838
3180.34919	0.01835
3178.42054	0.01837
3176.49189	0.01836
3174.56323	0.01833
3172.63458	0.01830
3170.70593	0.01834
3168.77727	0.01839
3166.84862	0.01835
3164.91997	0.01823
3162.99131	0.01809
3161.06266	0.01795
3159.13401	0.01788
3157.20535	0.01788
3155.27670	0.01790
3153.34805	0.01788
3151.41939	0.01779
3149.49074	0.01772
3147.56209	0.01771
3145.63343	0.01766
3143.70478	0.01759
3141.77613	0.01756
3139.84748	0.01754
3137.91882	0.01757
3135.99017	0.01765
3134.06152	0.01769
3132.13286	0.01766
3130.20421	0.01761
3128.27556	0.01756
3126.34690	0.01747
3124.41825	0.01738
3122.48960	0.01730
3120.56094	0.01728
3118.63229	0.01733
3116.70364	0.01737
3114.77498	0.01728
3112.84633	0.01715
3110.91768	0.01715
3108.98902	0.01729
3107.06037	0.01737
3105.13172	0.01732
3103.20306	0.01719
3101.27441	0.01706
3099.34576	0.01697
3097.41710	0.01696
3095.48845	0.01704
3093.55980	0.01716
3091.63114	0.01726
3089.70249	0.01732
3087.77384	0.01738
3085.84518	0.01739
3083.91653	0.01736
3081.98788	0.01735
3080.05922	0.01734
3078.13057	0.01729
3076.20192	0.01718
3074.27326	0.01712
3072.34461	0.01713
3070.41596	0.01713
3068.48731	0.01710
3066.55865	0.01704
3064.63000	0.01694
3062.70135	0.01691
3060.77269	0.01701
3058.84404	0.01714
3056.91539	0.01720
3054.98673	0.01717
3053.05808	0.01708
3051.12943	0.01699
3049.20077	0.01698
3047.27212	0.01701
3045.34347	0.01695
3043.41481	0.01686
3041.48616	0.01680
3039.55751	0.01680
3037.62885	0.01686
3035.70020	0.01692
3033.77155	0.01691
3031.84289	0.01686
3029.91424	0.01684
3027.98559	0.01683
3026.05693	0.01675
3024.12828	0.01662
3022.19963	0.01653
3020.27097	0.01649
3018.34232	0.01646
3016.41367	0.01642
3014.48501	0.01639
3012.55636	0.01640
3010.62771	0.01644
3008.69905	0.01643
3006.77040	0.01635
3004.84175	0.01629
3002.91309	0.01631
3000.98444	0.01633
2999.05579	0.01628
2997.12714	0.01617
2995.19848	0.01609
2993.26983	0.01606
2991.34118	0.01615
2989.41252	0.01633
2987.48387	0.01638
2985.55522	0.01624
2983.62656	0.01613
2981.69791	0.01617
2979.76926	0.01629
2977.84060	0.01637
2975.91195	0.01641
2973.98330	0.01645
2972.05464	0.01651
2970.12599	0.01657
2968.19734	0.01662
2966.26868	0.01667
2964.34003	0.01671
2962.41138	0.01673
2960.48272	0.01666
2958.55407	0.01654
2956.62542	0.01655
2954.69676	0.01659
2952.76811	0.01654
2950.83946	0.01645
2948.91080	0.01642
2946.98215	0.01651
2945.05350	0.01663
2943.12484	0.01669
2941.19619	0.01673
2939.26754	0.01678
2937.33888	0.01679
2935.41023	0.01679
2933.48158	0.01687
2931.55293	0.01704
2929.62427	0.01722
2927.69562	0.01729
2925.76697	0.01727
2923.83831	0.01730
2921.90966	0.01739
2919.98101	0.01735
2918.05235	0.01717
2916.12370	0.01704
2914.19505	0.01694
2912.26639	0.01677
2910.33774	0.01658
2908.40909	0.01647
2906.48043	0.01641
2904.55178	0.01621
2902.62313	0.01602
2900.69447	0.01602
2898.76582	0.01611
2896.83717	0.01611
2894.90851	0.01599
2892.97986	0.01585
2891.05121	0.01580
2889.12255	0.01583
2887.19390	0.01582
2885.26525	0.01574
2883.33659	0.01569
2881.40794	0.01568
2879.47929	0.01564
2877.55063	0.01555
2875.62198	0.01557
2873.69333	0.01572
2871.76467	0.01579
2869.83602	0.01573
2867.90737	0.01563
2865.97871	0.01546
2864.05006	0.01538
2862.12141	0.01549
2860.19276	0.01560
2858.26410	0.01559
2856.33545	0.01549
2854.40680	0.01542
2852.47814	0.01542
2850.54949	0.01544
2848.62084	0.01543
2846.69218	0.01533
2844.76353	0.01515
2842.83488	0.01501
2840.90622	0.01499
2838.97757	0.01501
2837.04892	0.01492
2835.12026	0.01469
2833.19161	0.01448
2831.26296	0.01439
2829.33430	0.01441
2827.40565	0.01446
2825.47700	0.01445
2823.54834	0.01440
2821.61969	0.01435
2819.69104	0.01432
2817.76238	0.01425
2815.83373	0.01422
2813.90508	0.01427
2811.97642	0.01433
2810.04777	0.01431
2808.11912	0.01421
2806.19046	0.01413
2804.26181	0.01412
2802.33316	0.01414
2800.40450	0.01412
2798.47585	0.01405
2796.54720	0.01397
2794.61855	0.01391
2792.68989	0.01389
2790.76124	0.01388
2788.83259	0.01388
2786.90393	0.01385
2784.97528	0.01378
2783.04663	0.01375
2781.11797	0.01380
2779.18932	0.01389
2777.26067	0.01390
2775.33201	0.01378
2773.40336	0.01369
2771.47471	0.01372
2769.54605	0.01377
2767.61740	0.01371
2765.68875	0.01364
2763.76009	0.01364
2761.83144	0.01358
2759.90279	0.01345
2757.97413	0.01344
2756.04548	0.01355
2754.11683	0.01357
2752.18817	0.01347
2750.25952	0.01339
2748.33087	0.01336
2746.40221	0.01334
2744.47356	0.01334
2742.54491	0.01335
2740.61625	0.01336
2738.68760	0.01334
2736.75895	0.01328
2734.83029	0.01322
2732.90164	0.01323
2730.97299	0.01325
2729.04433	0.01320
2727.11568	0.01318
2725.18703	0.01321
2723.25838	0.01322
2721.32972	0.01317
2719.40107	0.01306
2717.47242	0.01294
2715.54376	0.01290
2713.61511	0.01292
2711.68646	0.01296
2709.75780	0.01299
2707.82915	0.01296
2705.90050	0.01287
2703.97184	0.01281
2702.04319	0.01277
2700.11454	0.01278
2698.18588	0.01284
2696.25723	0.01282
2694.32858	0.01271
2692.39992	0.01265
2690.47127	0.01271
2688.54262	0.01278
2686.61396	0.01272
2684.68531	0.01264
2682.75666	0.01264
2680.82800	0.01264
2678.89935	0.01259
2676.97070	0.01256
2675.04204	0.01259
2673.11339	0.01262
2671.18474	0.01263
2669.25608	0.01262
2667.32743	0.01259
2665.39878	0.01249
2663.47012	0.01244
2661.54147	0.01252
2659.61282	0.01264
2657.68417	0.01265
2655.75551	0.01257
2653.82686	0.01243
2651.89821	0.01230
2649.96955	0.01222
2648.04090	0.01215
2646.11225	0.01211
2644.18359	0.01217
2642.25494	0.01223
2640.32629	0.01219
2638.39763	0.01210
2636.46898	0.01199
2634.54033	0.01188
2632.61167	0.01184
2630.68302	0.01178
2628.75437	0.01167
2626.82571	0.01159
2624.89706	0.01155
2622.96841	0.01149
2621.03975	0.01150
2619.11110	0.01157
2617.18245	0.01157
2615.25379	0.01151
2613.32514	0.01143
2611.39649	0.01140
2609.46783	0.01132
2607.53918	0.01118
2605.61053	0.01112
2603.68187	0.01114
2601.75322	0.01116
2599.82457	0.01115
2597.89591	0.01111
2595.96726	0.01110
2594.03861	0.01105
2592.10995	0.01086
2590.18130	0.01065
2588.25265	0.01053
2586.32400	0.01051
2584.39534	0.01057
2582.46669	0.01069
2580.53804	0.01081
2578.60938	0.01089
2576.68073	0.01088
2574.75208	0.01082
2572.82342	0.01081
2570.89477	0.01082
2568.96612	0.01080
2567.03746	0.01078
2565.10881	0.01070
2563.18016	0.01054
2561.25150	0.01046
2559.32285	0.01053
2557.39420	0.01057
2555.46554	0.01047
2553.53689	0.01031
2551.60824	0.01020
2549.67958	0.01019
2547.75093	0.01033
2545.82228	0.01048
2543.89362	0.01049
2541.96497	0.01041
2540.03632	0.01030
2538.10766	0.01023
2536.17901	0.01023
2534.25036	0.01026
2532.32170	0.01025
2530.39305	0.01021
2528.46440	0.01018
2526.53574	0.01019
2524.60709	0.01015
2522.67844	0.01008
2520.74978	0.01012
2518.82113	0.01027
2516.89248	0.01041
2514.96383	0.01047
2513.03517	0.01036
2511.10652	0.01010
2509.17787	0.00985
2507.24921	0.00974
2505.32056	0.00977
2503.39191	0.00984
2501.46325	0.00998
2499.53460	0.01015
2497.60595	0.01020
2495.67729	0.01011
2493.74864	0.01001
2491.81999	0.01002
2489.89133	0.01010
2487.96268	0.01011
2486.03403	0.01002
2484.10537	0.00992
2482.17672	0.00988
2480.24807	0.00992
2478.31941	0.00999
2476.39076	0.01002
2474.46211	0.01002
2472.53345	0.01005
2470.60480	0.01012
2468.67615	0.01016
2466.74749	0.01016
2464.81884	0.01019
2462.89019	0.01017
2460.96153	0.01006
2459.03288	0.01006
2457.10423	0.01010
2455.17557	0.01003
2453.24692	0.01001
2451.31827	0.01010
2449.38962	0.01010
2447.46096	0.01003
2445.53231	0.00999
2443.60366	0.00992
2441.67500	0.00978
2439.74635	0.00965
2437.81770	0.00965
2435.88904	0.00980
2433.96039	0.00997
2432.03174	0.00995
2430.10308	0.00977
2428.17443	0.00967
2426.24578	0.00969
2424.31712	0.00975
2422.38847	0.00990
2420.45982	0.01001
2418.53116	0.00994
2416.60251	0.00985
2414.67386	0.00984
2412.74520	0.00982
2410.81655	0.00976
2408.88790	0.00974
2406.95924	0.00979
2405.03059	0.00980
2403.10194	0.00975
2401.17328	0.00980
2399.24463	0.00994
2397.31598	0.01006
2395.38732	0.01007
2393.45867	0.01002
2391.53002	0.00996
2389.60136	0.00991
2387.67271	0.00989
2385.74406	0.00988
2383.81540	0.00986
2381.88675	0.00983
2379.95810	0.00985
2378.02945	0.00993
2376.10079	0.01004
2374.17214	0.01015
2372.24349	0.01022
2370.31483	0.01022
2368.38618	0.01007
2366.45753	0.00991
2364.52887	0.00989
2362.60022	0.01003
2360.67157	0.01016
2358.74291	0.01017
2356.81426	0.01013
2354.88561	0.01018
2352.95695	0.01031
2351.02830	0.01042
2349.09965	0.01047
2347.17099	0.01046
2345.24234	0.01044
2343.31369	0.01039
2341.38503	0.01032
2339.45638	0.01033
2337.52773	0.01036
2335.59907	0.01038
2333.67042	0.01042
2331.74177	0.01043
2329.81311	0.01041
2327.88446	0.01050
2325.95581	0.01080
2324.02715	0.01102
2322.09850	0.01089
2320.16985	0.01061
2318.24119	0.01040
2316.31254	0.01026
2314.38389	0.01016
2312.45524	0.01014
2310.52658	0.01012
2308.59793	0.01000
2306.66928	0.00976
2304.74062	0.00949
2302.81197	0.00938
2300.88332	0.00949
2298.95466	0.00963
2297.02601	0.00962
2295.09736	0.00952
2293.16870	0.00956
2291.24005	0.00972
2289.31140	0.00983
2287.38274	0.00980
2285.45409	0.00965
2283.52544	0.00944
2281.59678	0.00933
2279.66813	0.00939
2277.73948	0.00940
2275.81082	0.00920
2273.88217	0.00895
2271.95352	0.00888
2270.02486	0.00895
2268.09621	0.00890
2266.16756	0.00872
2264.23890	0.00854
2262.31025	0.00844
2260.38160	0.00840
2258.45294	0.00827
2256.52429	0.00809
2254.59564	0.00790
2252.66698	0.00765
2250.73833	0.00758
2248.80968	0.00783
2246.88102	0.00800
2244.95237	0.00819
2243.02372	0.00831
2241.09507	0.00800
2239.16641	0.00746
2237.23776	0.00717
2235.30911	0.00726
2233.38045	0.00763
2231.45180	0.00784
2229.52315	0.00774
2227.59449	0.00777
2225.66584	0.00781
2223.73719	0.00754
2221.80853	0.00732
2219.87988	0.00746
2217.95123	0.00768
2216.02257	0.00768
2214.09392	0.00728
2212.16527	0.00670
2210.23661	0.00649
2208.30796	0.00656
2206.37931	0.00637
2204.45065	0.00617
2202.52200	0.00638
2200.59335	0.00665
2198.66469	0.00662
2196.73604	0.00661
2194.80739	0.00679
2192.87873	0.00692
2190.95008	0.00684
2189.02143	0.00654
2187.09277	0.00630
2185.16412	0.00625
2183.23547	0.00612
2181.30681	0.00596
2179.37816	0.00622
2177.44951	0.00668
2175.52085	0.00651
2173.59220	0.00586
2171.66355	0.00547
2169.73490	0.00522
2167.80624	0.00505
2165.87759	0.00543
2163.94894	0.00580
2162.02028	0.00515
2160.09163	0.00396
2158.16298	0.00333
2156.23432	0.00335
2154.30567	0.00380
2152.37702	0.00442
2150.44836	0.00482
2148.51971	0.00499
2146.59106	0.00514
2144.66240	0.00545
2142.73375	0.00570
2140.80510	0.00560
2138.87644	0.00546
2136.94779	0.00542
2135.01914	0.00531
2133.09048	0.00530
2131.16183	0.00578
2129.23318	0.00656
2127.30452	0.00700
2125.37587	0.00694
2123.44722	0.00670
2121.51856	0.00657
2119.58991	0.00665
2117.66126	0.00686
2115.73260	0.00704
2113.80395	0.00701
2111.87530	0.00685
2109.94664	0.00678
2108.01799	0.00670
2106.08934	0.00656
2104.16069	0.00645
2102.23203	0.00648
2100.30338	0.00659
2098.37473	0.00678
2096.44607	0.00685
2094.51742	0.00669
2092.58877	0.00643
2090.66011	0.00633
2088.73146	0.00642
2086.80281	0.00663
2084.87415	0.00676
2082.94550	0.00675
2081.01685	0.00663
2079.08819	0.00648
2077.15954	0.00633
2075.23089	0.00618
2073.30223	0.00617
2071.37358	0.00627
2069.44493	0.00606
2067.51627	0.00563
2065.58762	0.00552
2063.65897	0.00567
2061.73031	0.00568
2059.80166	0.00547
2057.87301	0.00519
2055.94435	0.00489
2054.01570	0.00462
2052.08705	0.00462
2050.15839	0.00493
2048.22974	0.00514
2046.30109	0.00509
2044.37243	0.00507
2042.44378	0.00514
2040.51513	0.00494
2038.58647	0.00441
2036.65782	0.00393
2034.72917	0.00381
2032.80052	0.00387
2030.87186	0.00381
2028.94321	0.00379
2027.01456	0.00392
2025.08590	0.00420
2023.15725	0.00479
2021.22860	0.00554
2019.29994	0.00566
2017.37129	0.00483
2015.44264	0.00417
2013.51398	0.00466
2011.58533	0.00529
2009.65668	0.00510
2007.72802	0.00472
2005.79937	0.00467
2003.87072	0.00483
2001.94206	0.00500
2000.01341	0.00526
1998.08476	0.00556
1996.15610	0.00555
1994.22745	0.00525
1992.29880	0.00495
1990.37014	0.00480
1988.44149	0.00485
1986.51284	0.00483
1984.58418	0.00462
1982.65553	0.00463
1980.72688	0.00536
1978.79822	0.00651
1976.86957	0.00706
1974.94092	0.00684
1973.01226	0.00648
1971.08361	0.00622
1969.15496	0.00616
1967.22631	0.00607
1965.29765	0.00576
1963.36900	0.00555
1961.44035	0.00537
1959.51169	0.00510
1957.58304	0.00523
1955.65439	0.00588
1953.72573	0.00649
1951.79708	0.00662
1949.86843	0.00626
1947.93977	0.00588
1946.01112	0.00587
1944.08247	0.00610
1942.15381	0.00647
1940.22516	0.00700
1938.29651	0.00739
1936.36785	0.00730
1934.43920	0.00701
1932.51055	0.00690
1930.58189	0.00690
1928.65324	0.00696
1926.72459	0.00714
1924.79593	0.00726
1922.86728	0.00714
1920.93863	0.00691
1919.00997	0.00686
1917.08132	0.00684
1915.15267	0.00675
1913.22401	0.00684
1911.29536	0.00715
1909.36671	0.00741
1907.43805	0.00741
1905.50940	0.00744
1903.58075	0.00768
1901.65209	0.00788
1899.72344	0.00774
1897.79479	0.00745
1895.86614	0.00739
1893.93748	0.00762
1892.00883	0.00786
1890.08018	0.00781
1888.15152	0.00751
1886.22287	0.00744
1884.29422	0.00765
1882.36556	0.00773
1880.43691	0.00770
1878.50826	0.00776
1876.57960	0.00779
1874.65095	0.00771
1872.72230	0.00772
1870.79364	0.00783
1868.86499	0.00780
1866.93634	0.00758
1865.00768	0.00744
1863.07903	0.00744
1861.15038	0.00748
1859.22172	0.00752
1857.29307	0.00752
1855.36442	0.00754
1853.43576	0.00759
1851.50711	0.00766
1849.57846	0.00771
1847.64980	0.00768
1845.72115	0.00770
1843.79250	0.00768
1841.86384	0.00747
1839.93519	0.00745
1838.00654	0.00764
1836.07788	0.00780
1834.14923	0.00780
1832.22058	0.00773
1830.29192	0.00777
1828.36327	0.00782
1826.43462	0.00796
1824.50597	0.00808
1822.57731	0.00804
1820.64866	0.00801
1818.72001	0.00798
1816.79135	0.00785
1814.86270	0.00770
1812.93405	0.00767
1811.00539	0.00769
1809.07674	0.00771
1807.14809	0.00774
1805.21943	0.00777
1803.29078	0.00782
1801.36213	0.00792
1799.43347	0.00801
1797.50482	0.00812
1795.57617	0.00823
1793.64751	0.00829
1791.71886	0.00819
1789.79021	0.00807
1787.86155	0.00814
1785.93290	0.00822
1784.00425	0.00817
1782.07559	0.00808
1780.14694	0.00802
1778.21829	0.00794
1776.28963	0.00791
1774.36098	0.00803
1772.43233	0.00816
1770.50367	0.00803
1768.57502	0.00792
1766.64637	0.00778
1764.71771	0.00771
1762.78906	0.00784
1760.86041	0.00793
1758.93176	0.00797
1757.00310	0.00809
1755.07445	0.00807
1753.14580	0.00810
1751.21714	0.00822
1749.28849	0.00821
1747.35984	0.00822
1745.43118	0.00826
1743.50253	0.00834
1741.57388	0.00847
1739.64522	0.00855
1737.71657	0.00836
1735.78792	0.00839
1733.85926	0.00858
1731.93061	0.00843
1730.00196	0.00838
1728.07330	0.00845
1726.14465	0.00851
1724.21600	0.00859
1722.28734	0.00863
1720.35869	0.00874
1718.43004	0.00907
1716.50138	0.00918
1714.57273	0.00913
1712.64408	0.00923
1710.71542	0.00942
1708.78677	0.00968
1706.85812	0.01003
1704.92946	0.01031
1703.00081	0.01062
1701.07216	0.01130
1699.14350	0.01174
1697.21485	0.01238
1695.28620	0.01332
1693.35754	0.01386
1691.42889	0.01459
1689.50024	0.01539
1687.57159	0.01614
1685.64293	0.01723
1683.71428	0.01813
1681.78563	0.01863
1679.85697	0.01934
1677.92832	0.02014
1675.99967	0.02105
1674.07101	0.02178
1672.14236	0.02245
1670.21371	0.02331
1668.28505	0.02400
1666.35640	0.02454
1664.42775	0.02523
1662.49909	0.02597
1660.57044	0.02660
1658.64179	0.02717
1656.71313	0.02759
1654.78448	0.02823
1652.85583	0.02880
1650.92717	0.02867
1648.99852	0.02884
1647.06987	0.02937
1645.14121	0.02956
1643.21256	0.02957
1641.28391	0.02964
1639.35525	0.02958
1637.42660	0.02953
1635.49795	0.02943
1633.56929	0.02900
1631.64064	0.02859
1629.71199	0.02822
1627.78333	0.02771
1625.85468	0.02719
1623.92603	0.02676
1621.99738	0.02613
1620.06872	0.02542
1618.14007	0.02499
1616.21142	0.02448
1614.28276	0.02367
1612.35411	0.02310
1610.42546	0.02264
1608.49680	0.02213
1606.56815	0.02165
1604.63950	0.02127
1602.71084	0.02096
1600.78219	0.02069
1598.85354	0.02050
1596.92488	0.02033
1594.99623	0.02014
1593.06758	0.01998
1591.13892	0.01989
1589.21027	0.01983
1587.28162	0.01981
1585.35296	0.01983
1583.42431	0.01993
1581.49566	0.02002
1579.56700	0.02008
1577.63835	0.02036
1575.70970	0.02060
1573.78104	0.02051
1571.85239	0.02072
1569.92374	0.02111
1567.99508	0.02130
1566.06643	0.02151
1564.13778	0.02172
1562.20912	0.02196
1560.28047	0.02257
1558.35182	0.02290
1556.42316	0.02286
1554.49451	0.02315
1552.56586	0.02341
1550.63721	0.02357
1548.70855	0.02365
1546.77990	0.02373
1544.85125	0.02383
1542.92259	0.02389
1540.99394	0.02404
1539.06529	0.02399
1537.13663	0.02359
1535.20798	0.02345
1533.27933	0.02342
1531.35067	0.02315
1529.42202	0.02293
1527.49337	0.02279
1525.56471	0.02251
1523.63606	0.02218
1521.70741	0.02204
1519.77875	0.02171
1517.85010	0.02143
1515.92145	0.02117
1513.99279	0.02073
1512.06414	0.02025
1510.13549	0.01979
1508.20683	0.01962
1506.27818	0.01948
1504.34953	0.01890
1502.42087	0.01849
1500.49222	0.01836
1498.56357	0.01822
1496.63491	0.01804
1494.70626	0.01772
1492.77761	0.01751
1490.84895	0.01753
1488.92030	0.01748
1486.99165	0.01741
1485.06299	0.01742
1483.13434	0.01757
1481.20569	0.01779
1479.27704	0.01800
1477.34838	0.01826
1475.41973	0.01855
1473.49108	0.01893
1471.56242	0.01920
1469.63377	0.01938
1467.70512	0.01967
1465.77646	0.02001
1463.84781	0.02019
1461.91916	0.02029
1459.99050	0.02058
1458.06185	0.02108
1456.13320	0.02128
1454.20454	0.02111
1452.27589	0.02111
1450.34724	0.02106
1448.41858	0.02089
1446.48993	0.02066
1444.56128	0.02043
1442.63262	0.02023
1440.70397	0.02001
1438.77532	0.01994
1436.84666	0.02000
1434.91801	0.01986
1432.98936	0.01983
1431.06070	0.02002
1429.13205	0.02019
1427.20340	0.02033
1425.27474	0.02048
1423.34609	0.02058
1421.41744	0.02072
1419.48878	0.02094
1417.56013	0.02093
1415.63148	0.02090
1413.70283	0.02095
1411.77417	0.02093
1409.84552	0.02078
1407.91687	0.02053
1405.98821	0.02026
1404.05956	0.01994
1402.13091	0.01958
1400.20225	0.01924
1398.27360	0.01882
1396.34495	0.01839
1394.41629	0.01803
1392.48764	0.01760
1390.55899	0.01724
1388.63033	0.01702
1386.70168	0.01674
1384.77303	0.01634
1382.84437	0.01600
1380.91572	0.01569
1378.98707	0.01542
1377.05841	0.01518
1375.12976	0.01498
1373.20111	0.01473
1371.27245	0.01447
1369.34380	0.01427
1367.41515	0.01406
1365.48649	0.01385
1363.55784	0.01368
1361.62919	0.01348
1359.70053	0.01333
1357.77188	0.01332
1355.84323	0.01342
1353.91457	0.01348
1351.98592	0.01342
1350.05727	0.01333
1348.12861	0.01330
1346.19996	0.01335
1344.27131	0.01342
1342.34266	0.01342
1340.41400	0.01339
1338.48535	0.01336
1336.55670	0.01337
1334.62804	0.01340
1332.69939	0.01341
1330.77074	0.01337
1328.84208	0.01328
1326.91343	0.01319
1324.98478	0.01312
1323.05612	0.01308
1321.12747	0.01303
1319.19882	0.01299
1317.27016	0.01297
1315.34151	0.01300
1313.41286	0.01303
1311.48420	0.01301
1309.55555	0.01294
1307.62690	0.01286
1305.69824	0.01278
1303.76959	0.01268
1301.84094	0.01256
1299.91228	0.01244
1297.98363	0.01236
1296.05498	0.01234
1294.12632	0.01246
1292.19767	0.01263
1290.26902	0.01271
1288.34036	0.01270
1286.41171	0.01267
1284.48306	0.01267
1282.55440	0.01268
1280.62575	0.01268
1278.69710	0.01270
1276.76845	0.01273
1274.83979	0.01274
1272.91114	0.01272
1270.98249	0.01273
1269.05383	0.01277
1267.12518	0.01277
1265.19653	0.01278
1263.26787	0.01284
1261.33922	0.01293
1259.41057	0.01298
1257.48191	0.01302
1255.55326	0.01305
1253.62461	0.01307
1251.69595	0.01314
1249.76730	0.01331
1247.83865	0.01343
1245.90999	0.01343
1243.98134	0.01340
1242.05269	0.01336
1240.12403	0.01325
1238.19538	0.01315
1236.26673	0.01309
1234.33807	0.01299
1232.40942	0.01284
1230.48077	0.01272
1228.55211	0.01261
1226.62346	0.01247
1224.69481	0.01228
1222.76615	0.01212
1220.83750	0.01200
1218.90885	0.01187
1216.98019	0.01174
1215.05154	0.01164
1213.12289	0.01161
1211.19423	0.01163
1209.26558	0.01165
1207.33693	0.01170
1205.40828	0.01181
1203.47962	0.01195
1201.55097	0.01208
1199.62232	0.01203
1197.69366	0.01202
1195.76501	0.01199
1193.83636	0.01199
1191.90770	0.01201
1189.97905	0.01202
1188.05040	0.01209
1186.12174	0.01226
1184.19309	0.01246
1182.26444	0.01267
1180.33578	0.01293
1178.40713	0.01321
1176.47848	0.01354
1174.54982	0.01387
1172.62117	0.01416
1170.69252	0.01449
1168.76386	0.01487
1166.83521	0.01534
1164.90656	0.01591
1162.97790	0.01653
1161.04925	0.01711
1159.12060	0.01766
1157.19194	0.01826
1155.26329	0.01893
1153.33464	0.01958
1151.40598	0.02021
1149.47733	0.02086
1147.54868	0.02151
1145.62002	0.02218
1143.69137	0.02294
1141.76272	0.02367
1139.83406	0.02428
1137.90541	0.02494
1135.97676	0.02582
1134.04811	0.02687
1132.11945	0.02810
1130.19080	0.02967
1128.26215	0.03156
1126.33349	0.03354
1124.40484	0.03562
1122.47619	0.03792
1120.54753	0.04044
1118.61888	0.04312
1116.69023	0.04592
1114.76157	0.04870
1112.83292	0.05140
1110.90427	0.05416
1108.97561	0.05704
1107.04696	0.05991
1105.11831	0.06269
1103.18965	0.06543
1101.26100	0.06810
1099.33235	0.07054
1097.40369	0.07263
1095.47504	0.07441
1093.54639	0.07592
1091.61773	0.07716
1089.68908	0.07814
1087.76043	0.07895
1085.83177	0.07989
1083.90312	0.08123
1081.97447	0.08302
1080.04581	0.08522
1078.11716	0.08778
1076.18851	0.09054
1074.25985	0.09334
1072.33120	0.09611
1070.40255	0.09884
1068.47390	0.10151
1066.54524	0.10409
1064.61659	0.10664
1062.68794	0.10933
1060.75928	0.11226
1058.83063	0.11529
1056.90198	0.11830
1054.97332	0.12136
1053.04467	0.12452
1051.11602	0.12775
1049.18736	0.13095
1047.25871	0.13406
1045.33006	0.13724
1043.40140	0.14062
1041.47275	0.14403
1039.54410	0.14721
1037.61544	0.15018
1035.68679	0.15298
1033.75814	0.15552
1031.82948	0.15767
1029.90083	0.15923
1027.97218	0.15992
1026.04352	0.15974
1024.11487	0.15909
1022.18622	0.15832
1020.25756	0.15737
1018.32891	0.15607
1016.40026	0.15434
1014.47160	0.15220
1012.54295	0.14969
1010.61430	0.14698
1008.68564	0.14426
1006.75699	0.14155
1004.82834	0.13881
1002.89968	0.13602
1000.97103	0.13312
999.04238	0.13012
997.11373	0.12703
995.18507	0.12382
993.25642	0.12059
991.32777	0.11744
989.39911	0.11424
987.47046	0.11092
985.54181	0.10761
983.61315	0.10443
981.68450	0.10135
979.75585	0.09824
977.82719	0.09517
975.89854	0.09230
973.96989	0.08965
972.04123	0.08733
970.11258	0.08568
968.18393	0.08494
966.25527	0.08494
964.32662	0.08506
962.39797	0.08472
960.46931	0.08385
958.54066	0.08268
956.61201	0.08128
954.68335	0.07955
952.75470	0.07764
950.82605	0.07583
948.89739	0.07413
946.96874	0.07240
945.04009	0.07068
943.11143	0.06907
941.18278	0.06747
939.25413	0.06583
937.32547	0.06422
935.39682	0.06272
933.46817	0.06154
931.53952	0.06055
929.61086	0.05945
927.68221	0.05830
925.75356	0.05741
923.82490	0.05671
921.89625	0.05598
919.96760	0.05519
918.03894	0.05447
916.11029	0.05386
914.18164	0.05324
912.25298	0.05252
910.32433	0.05181
908.39568	0.05144
906.46702	0.05146
904.53837	0.05143
902.60972	0.05113
900.68106	0.05083
898.75241	0.05081
896.82376	0.05092
894.89510	0.05093
892.96645	0.05073
891.03780	0.05040
889.10914	0.05018
887.18049	0.05016
885.25184	0.05016
883.32318	0.05017
881.39453	0.05031
879.46588	0.05055
877.53722	0.05082
875.60857	0.05122
873.67992	0.05167
871.75126	0.05187
869.82261	0.05178
867.89396	0.05151
865.96530	0.05112
864.03665	0.05078
862.10800	0.05045
860.17935	0.04988
858.25069	0.04908
856.32204	0.04843
854.39339	0.04814
852.46473	0.04789
850.53608	0.04739
848.60743	0.04672
846.67877	0.04609
844.75012	0.04561
842.82147	0.04518
840.89281	0.04471
838.96416	0.04423
837.03551	0.04383
835.10685	0.04354
833.17820	0.04325
831.24955	0.04283
829.32089	0.04234
827.39224	0.04196
825.46359	0.04176
823.53493	0.04152
821.60628	0.04117
819.67763	0.04099
817.74897	0.04093
815.82032	0.04065
813.89167	0.04027
811.96301	0.04012
810.03436	0.04006
808.10571	0.03993
806.17705	0.03972
804.24840	0.03951
802.31975	0.03951
800.39109	0.03972
798.46244	0.03990
796.53379	0.03979
794.60513	0.03937
792.67648	0.03888
790.74783	0.03871
788.81918	0.03898
786.89052	0.03946
784.96187	0.03981
783.03322	0.03987
781.10456	0.03977
779.17591	0.03974
777.24726	0.03972
775.31860	0.03960
773.38995	0.03932
771.46130	0.03897
769.53264	0.03876
767.60399	0.03874
765.67534	0.03889
763.74668	0.03912
761.81803	0.03942
759.88938	0.03982
757.96072	0.04036
756.03207	0.04075
754.10342	0.04056
752.17476	0.04011
750.24611	0.04005
748.31746	0.04021
746.38880	0.04019
744.46015	0.04012
742.53150	0.04019
740.60284	0.04029
738.67419	0.04031
736.74554	0.04027
734.81688	0.04036
732.88823	0.04074
730.95958	0.04134
729.03092	0.04176
727.10227	0.04164
725.17362	0.04122
723.24497	0.04080
721.31631	0.04088
719.38766	0.04101
717.45901	0.04114
715.53035	0.04124
713.60170	0.04118
711.67305	0.04112
709.74439	0.04126
707.81574	0.04149
705.88709	0.04168
703.95843	0.04181
702.02978	0.04180
700.10113	0.04167
698.17247	0.04159
696.24382	0.04163
694.31517	0.04165
692.38651	0.04151
690.45786	0.04130
688.52921	0.04115
686.60055	0.04117
684.67190	0.04135
682.74325	0.04155
680.81459	0.04147
678.88594	0.04112
676.95729	0.04100
675.02863	0.04127
673.09998	0.04153
671.17133	0.04157
669.24267	0.04158
667.31402	0.04151
665.38537	0.04122
663.45671	0.04095
661.52806	0.04090
659.59941	0.04092
657.67075	0.04095
655.74210	0.04116
653.81345	0.04140
651.88480	0.04171
649.95614	0.04201
648.02749	0.04152
646.09884	0.04045
644.17018	0.04021
642.24153	0.04084
640.31288	0.04146
638.38422	0.04200
636.45557	0.04262
634.52692	0.04314
632.59826	0.04354
630.66961	0.04317
628.74096	0.04048
626.81230	0.04431
624.88365	0.05131
622.95500	0.05849
621.02634	0.06230
619.09769	0.06373
617.16904	0.06411
615.24038	0.06293
613.31173	0.06623
611.38308	0.07774
609.45442	0.08941
607.52577	0.09776
605.59712	0.10783
603.66846	0.11803
601.73981	0.12192
599.81116	0.11813
597.88250	0.11092
595.95385	0.10428
594.02520	0.09955
592.09654	0.09658
590.16789	0.09512
588.23924	0.09533
586.31059	0.09741
584.38193	0.10127
582.45328	0.10646
580.52463	0.11248
578.59597	0.11877
576.66732	0.12449
574.73867	0.12904
572.81001	0.13326
570.88136	0.13872
568.95271	0.14536
567.02405	0.15198
565.09540	0.15778
563.16675	0.16175
561.23809	0.16281
559.30944	0.16108
557.38079	0.15727
555.45213	0.15207
553.52348	0.14647
551.59483	0.14106
549.66617	0.13595
547.73752	0.13171
545.80887	0.12834
543.88021	0.12504
541.95156	0.12169
540.02291	0.11871
538.09425	0.11626
536.16560	0.11416
534.23695	0.11195
532.30829	0.10961
530.37964	0.10758
528.45099	0.10589
526.52233	0.10399
524.59368	0.10170
522.66503	0.09944
520.73637	0.09708
518.80772	0.09425
516.87907	0.09154
514.95042	0.08944
513.02176	0.08773
511.09311	0.08623
509.16446	0.08480
507.23580	0.08335
505.30715	0.08181
503.37850	0.07953
501.44984	0.07649
499.52119	0.07438
497.59254	0.07425
495.66388	0.07485
493.73523	0.07461
491.80658	0.07318
489.87792	0.07141
487.94927	0.07040
486.02062	0.07009
484.09196	0.06961
482.16331	0.06895
480.23466	0.06877
478.30600	0.06891
476.37735	0.06871
474.44870	0.06835
472.52004	0.06843
470.59139	0.06898
468.66274	0.06942
466.73408	0.06933
464.80543	0.06881
462.87678	0.06797
460.94812	0.06696
459.01947	0.06611
457.09082	0.06543
455.16216	0.06470
453.23351	0.06392
451.30486	0.06319
449.37620	0.06260
447.44755	0.06222
445.51890	0.06196
443.59025	0.06152
441.66159	0.06090
439.73294	0.06067
437.80429	0.06083
435.87563	0.06077
433.94698	0.06040
432.01833	0.05997
430.08967	0.05950
428.16102	0.05916
426.23237	0.05901
424.30371	0.05885
422.37506	0.05863
420.44641	0.05852
418.51775	0.05818
416.58910	0.05767
414.66045	0.05758
412.73179	0.05774
410.80314	0.05788
408.87449	0.05800
406.94583	0.05816
405.01718	0.05801
403.08853	0.05745
401.15987	0.05691
399.23122	0.05661
