3997.45528	0.01510
3996.16951	0.01486
3994.88374	0.01466
3993.59798	0.01462
3992.31221	0.01477
3991.02644	0.01505
3989.74067	0.01546
3988.45490	0.01601
3987.16913	0.01661
3985.88336	0.01710
3984.59759	0.01729
3983.31183	0.01709
3982.02606	0.01660
3980.74029	0.01609
3979.45452	0.01577
3978.16875	0.01561
3976.88298	0.01537
3975.59721	0.01492
3974.31144	0.01438
3973.02567	0.01410
3971.73991	0.01438
3970.45414	0.01529
3969.16837	0.01648
3967.88260	0.01738
3966.59683	0.01754
3965.31106	0.01692
3964.02529	0.01583
3962.73952	0.01468
3961.45376	0.01383
3960.16799	0.01342
3958.88222	0.01340
3957.59645	0.01358
3956.31068	0.01378
3955.02491	0.01393
3953.73914	0.01407
3952.45337	0.01429
3951.16760	0.01463
3949.88184	0.01501
3948.59607	0.01530
3947.31030	0.01539
3946.02453	0.01533
3944.73876	0.01526
3943.45299	0.01533
3942.16722	0.01549
3940.88145	0.01561
3939.59569	0.01566
3938.30992	0.01562
3937.02415	0.01540
3935.73838	0.01496
3934.45261	0.01445
3933.16684	0.01411
3931.88107	0.01406
3930.59530	0.01424
3929.30953	0.01455
3928.02377	0.01500
3926.73800	0.01554
3925.45223	0.01606
3924.16646	0.01638
3922.88069	0.01643
3921.59492	0.01625
3920.30915	0.01586
3919.02338	0.01530
3917.73762	0.01466
3916.45185	0.01406
3915.16608	0.01375
3913.88031	0.01396
3912.59454	0.01456
3911.30877	0.01512
3910.02300	0.01521
3908.73723	0.01480
3907.45146	0.01428
3906.16570	0.01408
3904.87993	0.01420
3903.59416	0.01438
3902.30839	0.01437
3901.02262	0.01418
3899.73685	0.01388
3898.45108	0.01352
3897.16531	0.01319
3895.87955	0.01299
3894.59378	0.01302
3893.30801	0.01334
3892.02224	0.01383
3890.73647	0.01420
3889.45070	0.01438
3888.16493	0.01466
3886.87916	0.01509
3885.59339	0.01528
3884.30763	0.01496
3883.02186	0.01445
3881.73609	0.01417
3880.45032	0.01401
3879.16455	0.01364
3877.87878	0.01311
3876.59301	0.01291
3875.30724	0.01331
3874.02148	0.01410
3872.73571	0.01497
3871.44994	0.01568
3870.16417	0.01592
3868.87840	0.01550
3867.59263	0.01473
3866.30686	0.01404
3865.02109	0.01354
3863.73532	0.01323
3862.44956	0.01334
3861.16379	0.01386
3859.87802	0.01432
3858.59225	0.01423
3857.30648	0.01372
3856.02071	0.01343
3854.73494	0.01358
3853.44917	0.01375
3852.16341	0.01363
3850.87764	0.01345
3849.59187	0.01351
3848.30610	0.01371
3847.02033	0.01398
3845.73456	0.01427
3844.44879	0.01446
3843.16302	0.01430
3841.87725	0.01376
3840.59149	0.01324
3839.30572	0.01313
3838.01995	0.01335
3836.73418	0.01354
3835.44841	0.01360
3834.16264	0.01363
3832.87687	0.01365
3831.59110	0.01356
3830.30534	0.01336
3829.01957	0.01325
3827.73380	0.01342
3826.44803	0.01378
3825.16226	0.01410
3823.87649	0.01430
3822.59072	0.01431
3821.30495	0.01397
3820.01918	0.01347
3818.73342	0.01342
3817.44765	0.01414
3816.16188	0.01502
3814.87611	0.01540
3813.59034	0.01534
3812.30457	0.01518
3811.01880	0.01496
3809.73303	0.01464
3808.44726	0.01430
3807.16150	0.01379
3805.87573	0.01303
3804.58996	0.01251
3803.30419	0.01281
3802.01842	0.01372
3800.73265	0.01443
3799.44688	0.01466
3798.16111	0.01476
3796.87535	0.01501
3795.58958	0.01532
3794.30381	0.01556
3793.01804	0.01566
3791.73227	0.01554
3790.44650	0.01522
3789.16073	0.01490
3787.87496	0.01486
3786.58919	0.01515
3785.30343	0.01551
3784.01766	0.01557
3782.73189	0.01527
3781.44612	0.01492
3780.16035	0.01465
3778.87458	0.01432
3777.58881	0.01384
3776.30304	0.01341
3775.01728	0.01314
3773.73151	0.01295
3772.44574	0.01278
3771.15997	0.01268
3769.87420	0.01272
3768.58843	0.01291
3767.30266	0.01322
3766.01689	0.01345
3764.73112	0.01336
3763.44536	0.01302
3762.15959	0.01281
3760.87382	0.01296
3759.58805	0.01334
3758.30228	0.01360
3757.01651	0.01347
3755.73074	0.01305
3754.44497	0.01281
3753.15921	0.01305
3751.87344	0.01357
3750.58767	0.01388
3749.30190	0.01361
3748.01613	0.01293
3746.73036	0.01255
3745.44459	0.01270
3744.15882	0.01276
3742.87305	0.01240
3741.58729	0.01206
3740.30152	0.01206
3739.01575	0.01229
3737.72998	0.01260
3736.44421	0.01287
3735.15844	0.01308
3733.87267	0.01343
3732.58690	0.01404
3731.30114	0.01463
3730.01537	0.01487
3728.72960	0.01474
3727.44383	0.01440
3726.15806	0.01407
3724.87229	0.01391
3723.58652	0.01387
3722.30075	0.01365
3721.01498	0.01307
3719.72922	0.01236
3718.44345	0.01189
3717.15768	0.01181
3715.87191	0.01202
3714.58614	0.01250
3713.30037	0.01329
3712.01460	0.01429
3710.72883	0.01517
3709.44307	0.01556
3708.15730	0.01528
3706.87153	0.01443
3705.58576	0.01338
3704.29999	0.01250
3703.01422	0.01196
3701.72845	0.01172
3700.44268	0.01168
3699.15691	0.01186
3697.87115	0.01220
3696.58538	0.01253
3695.29961	0.01269
3694.01384	0.01263
3692.72807	0.01238
3691.44230	0.01207
3690.15653	0.01189
3688.87076	0.01180
3687.58500	0.01160
3686.29923	0.01140
3685.01346	0.01152
3683.72769	0.01199
3682.44192	0.01247
3681.15615	0.01267
3679.87038	0.01254
3678.58461	0.01240
3677.29884	0.01254
3676.01308	0.01275
3674.72731	0.01268
3673.44154	0.01252
3672.15577	0.01275
3670.87000	0.01319
3669.58423	0.01330
3668.29846	0.01304
3667.01269	0.01283
3665.72693	0.01278
3664.44116	0.01273
3663.15539	0.01257
3661.86962	0.01237
3660.58385	0.01230
3659.29808	0.01259
3658.01231	0.01332
3656.72654	0.01420
3655.44077	0.01469
3654.15501	0.01453
3652.86924	0.01388
3651.58347	0.01307
3650.29770	0.01230
3649.01193	0.01178
3647.72616	0.01165
3646.44039	0.01192
3645.15462	0.01255
3643.86886	0.01342
3642.58309	0.01437
3641.29732	0.01515
3640.01155	0.01551
3638.72578	0.01537
3637.44001	0.01498
3636.15424	0.01468
3634.86847	0.01462
3633.58270	0.01462
3632.29694	0.01463
3631.01117	0.01482
3629.72540	0.01527
3628.43963	0.01575
3627.15386	0.01606
3625.86809	0.01620
3624.58232	0.01615
3623.29655	0.01594
3622.01079	0.01580
3620.72502	0.01598
3619.43925	0.01632
3618.15348	0.01652
3616.86771	0.01643
3615.58194	0.01619
3614.29617	0.01592
3613.01040	0.01561
3611.72463	0.01526
3610.43887	0.01491
3609.15310	0.01464
3607.86733	0.01447
3606.58156	0.01447
3605.29579	0.01469
3604.01002	0.01506
3602.72425	0.01542
3601.43848	0.01575
3600.15272	0.01613
3598.86695	0.01658
3597.58118	0.01697
3596.29541	0.01714
3595.00964	0.01709
3593.72387	0.01701
3592.43810	0.01702
3591.15233	0.01710
3589.86656	0.01715
3588.58080	0.01710
3587.29503	0.01707
3586.00926	0.01721
3584.72349	0.01753
3583.43772	0.01784
3582.15195	0.01792
3580.86618	0.01780
3579.58041	0.01765
3578.29464	0.01759
3577.00888	0.01758
3575.72311	0.01756
3574.43734	0.01753
3573.15157	0.01756
3571.86580	0.01775
3570.58003	0.01819
3569.29426	0.01884
3568.00849	0.01953
3566.72273	0.02007
3565.43696	0.02037
3564.15119	0.02042
3562.86542	0.02031
3561.57965	0.02021
3560.29388	0.02032
3559.00811	0.02062
3557.72234	0.02088
3556.43657	0.02091
3555.15081	0.02074
3553.86504	0.02054
3552.57927	0.02036
3551.29350	0.02020
3550.00773	0.02010
3548.72196	0.02013
3547.43619	0.02032
3546.15042	0.02060
3544.86466	0.02089
3543.57889	0.02108
3542.29312	0.02107
3541.00735	0.02087
3539.72158	0.02064
3538.43581	0.02058
3537.15004	0.02073
3535.86427	0.02099
3534.57850	0.02119
3533.29274	0.02128
3532.00697	0.02129
3530.72120	0.02129
3529.43543	0.02133
3528.14966	0.02146
3526.86389	0.02176
3525.57812	0.02223
3524.29235	0.02274
3523.00659	0.02312
3521.72082	0.02332
3520.43505	0.02344
3519.14928	0.02357
3517.86351	0.02362
3516.57774	0.02352
3515.29197	0.02334
3514.00620	0.02330
3512.72043	0.02354
3511.43467	0.02408
3510.14890	0.02474
3508.86313	0.02521
3507.57736	0.02521
3506.29159	0.02474
3505.00582	0.02406
3503.72005	0.02349
3502.43428	0.02320
3501.14852	0.02327
3499.86275	0.02371
3498.57698	0.02437
3497.29121	0.02492
3496.00544	0.02506
3494.71967	0.02481
3493.43390	0.02447
3492.14813	0.02436
3490.86236	0.02458
3489.57660	0.02499
3488.29083	0.02543
3487.00506	0.02573
3485.71929	0.02578
3484.43352	0.02558
3483.14775	0.02534
3481.86198	0.02535
3480.57621	0.02577
3479.29045	0.02641
3478.00468	0.02694
3476.71891	0.02715
3475.43314	0.02709
3474.14737	0.02691
3472.86160	0.02667
3471.57583	0.02633
3470.29006	0.02591
3469.00429	0.02555
3467.71853	0.02543
3466.43276	0.02554
3465.14699	0.02574
3463.86122	0.02596
3462.57545	0.02623
3461.28968	0.02660
3460.00391	0.02697
3458.71814	0.02719
3457.43238	0.02723
3456.14661	0.02717
3454.86084	0.02710
3453.57507	0.02698
3452.28930	0.02676
3451.00353	0.02651
3449.71776	0.02648
3448.43199	0.02681
3447.14622	0.02731
3445.86046	0.02771
3444.57469	0.02792
3443.28892	0.02808
3442.00315	0.02827
3440.71738	0.02847
3439.43161	0.02864
3438.14584	0.02871
3436.86007	0.02863
3435.57431	0.02839
3434.28854	0.02820
3433.00277	0.02825
3431.71700	0.02849
3430.43123	0.02872
3429.14546	0.02886
3427.85969	0.02911
3426.57392	0.02960
3425.28815	0.03012
3424.00239	0.03026
3422.71662	0.02989
3421.43085	0.02931
3420.14508	0.02894
3418.85931	0.02890
3417.57354	0.02905
3416.28777	0.02927
3415.00200	0.02954
3413.71624	0.02980
3412.43047	0.02995
3411.14470	0.02991
3409.85893	0.02976
3408.57316	0.02962
3407.28739	0.02960
3406.00162	0.02976
3404.71585	0.03011
3403.43008	0.03061
3402.14432	0.03108
3400.85855	0.03137
3399.57278	0.03154
3398.28701	0.03174
3397.00124	0.03203
3395.71547	0.03237
3394.42970	0.03254
3393.14393	0.03241
3391.85817	0.03211
3390.57240	0.03193
3389.28663	0.03206
3388.00086	0.03241
3386.71509	0.03272
3385.42932	0.03275
3384.14355	0.03247
3382.85778	0.03211
3381.57201	0.03199
3380.28625	0.03229
3379.00048	0.03289
3377.71471	0.03344
3376.42894	0.03368
3375.14317	0.03357
3373.85740	0.03323
3372.57163	0.03288
3371.28586	0.03276
3370.00010	0.03299
3368.71433	0.03352
3367.42856	0.03412
3366.14279	0.03453
3364.85702	0.03462
3363.57125	0.03442
3362.28548	0.03409
3360.99971	0.03383
3359.71394	0.03383
3358.42818	0.03418
3357.14241	0.03473
3355.85664	0.03518
3354.57087	0.03534
3353.28510	0.03527
3351.99933	0.03516
3350.71356	0.03517
3349.42779	0.03532
3348.14202	0.03565
3346.85626	0.03616
3345.57049	0.03674
3344.28472	0.03719
3342.99895	0.03729
3341.71318	0.03704
3340.42741	0.03669
3339.14164	0.03663
3337.85587	0.03706
3336.57011	0.03782
3335.28434	0.03847
3333.99857	0.03869
3332.71280	0.03852
3331.42703	0.03823
3330.14126	0.03806
3328.85549	0.03806
3327.56972	0.03816
3326.28395	0.03833
3324.99819	0.03856
3323.71242	0.03878
3322.42665	0.03889
3321.14088	0.03891
3319.85511	0.03890
3318.56934	0.03893
3317.28357	0.03902
3315.99780	0.03916
3314.71204	0.03927
3313.42627	0.03934
3312.14050	0.03944
3310.85473	0.03964
3309.56896	0.03985
3308.28319	0.03994
3306.99742	0.03986
3305.71165	0.03974
3304.42588	0.03976
3303.14012	0.03997
3301.85435	0.04030
3300.56858	0.04067
3299.28281	0.04097
3297.99704	0.04111
3296.71127	0.04104
3295.42550	0.04081
3294.13973	0.04061
3292.85397	0.04057
3291.56820	0.04066
3290.28243	0.04076
3288.99666	0.04084
3287.71089	0.04095
3286.42512	0.04112
3285.13935	0.04124
3283.85358	0.04117
3282.56781	0.04092
3281.28205	0.04071
3279.99628	0.04074
3278.71051	0.04103
3277.42474	0.04136
3276.13897	0.04152
3274.85320	0.04142
3273.56743	0.04115
3272.28166	0.04081
3270.99590	0.04048
3269.71013	0.04020
3268.42436	0.04005
3267.13859	0.04005
3265.85282	0.04012
3264.56705	0.04016
3263.28128	0.04013
3261.99551	0.04001
3260.70974	0.03972
3259.42398	0.03927
3258.13821	0.03880
3256.85244	0.03857
3255.56667	0.03874
3254.28090	0.03918
3252.99513	0.03966
3251.70936	0.04001
3250.42359	0.04018
3249.13783	0.04014
3247.85206	0.03989
3246.56629	0.03949
3245.28052	0.03913
3243.99475	0.03896
3242.70898	0.03893
3241.42321	0.03892
3240.13744	0.03883
3238.85167	0.03868
3237.56591	0.03846
3236.28014	0.03815
3234.99437	0.03776
3233.70860	0.03736
3232.42283	0.03699
3231.13706	0.03665
3229.85129	0.03636
3228.56552	0.03623
3227.27976	0.03632
3225.99399	0.03655
3224.70822	0.03671
3223.42245	0.03672
3222.13668	0.03668
3220.85091	0.03684
3219.56514	0.03725
3218.27937	0.03769
3216.99360	0.03785
3215.70784	0.03765
3214.42207	0.03727
3213.13630	0.03691
3211.85053	0.03665
3210.56476	0.03643
3209.27899	0.03616
3207.99322	0.03581
3206.70745	0.03547
3205.42169	0.03526
3204.13592	0.03530
3202.85015	0.03554
3201.56438	0.03582
3200.27861	0.03598
3198.99284	0.03600
3197.70707	0.03596
3196.42130	0.03593
3195.13553	0.03584
3193.84977	0.03565
3192.56400	0.03541
3191.27823	0.03525
3189.99246	0.03521
3188.70669	0.03529
3187.42092	0.03545
3186.13515	0.03562
3184.84938	0.03568
3183.56362	0.03554
3182.27785	0.03524
3180.99208	0.03490
3179.70631	0.03464
3178.42054	0.03446
3177.13477	0.03430
3175.84900	0.03412
3174.56323	0.03401
3173.27746	0.03407
3171.99170	0.03432
3170.70593	0.03457
3169.42016	0.03459
3168.13439	0.03425
3166.84862	0.03371
3165.56285	0.03324
3164.27708	0.03299
3162.99131	0.03284
3161.70555	0.03264
3160.41978	0.03240
3159.13401	0.03226
3157.84824	0.03231
3156.56247	0.03244
3155.27670	0.03253
3153.99093	0.03252
3152.70516	0.03247
3151.41939	0.03242
3150.13363	0.03235
3148.84786	0.03225
3147.56209	0.03215
3146.27632	0.03206
3144.99055	0.03197
3143.70478	0.03189
3142.41901	0.03192
3141.13324	0.03209
3139.84748	0.03230
3138.56171	0.03234
3137.27594	0.03207
3135.99017	0.03157
3134.70440	0.03102
3133.41863	0.03062
3132.13286	0.03051
3130.84709	0.03066
3129.56132	0.03090
3128.27556	0.03102
3126.98979	0.03092
3125.70402	0.03062
3124.41825	0.03023
3123.13248	0.02992
3121.84671	0.02980
3120.56094	0.02984
3119.27517	0.02990
3117.98940	0.02985
3116.70364	0.02970
3115.41787	0.02951
3114.13210	0.02929
3112.84633	0.02908
3111.56056	0.02894
3110.27479	0.02899
3108.98902	0.02925
3107.70325	0.02967
3106.41749	0.03009
3105.13172	0.03037
3103.84595	0.03048
3102.56018	0.03052
3101.27441	0.03062
3099.98864	0.03083
3098.70287	0.03103
3097.41710	0.03104
3096.13133	0.03086
3094.84557	0.03066
3093.55980	0.03062
3092.27403	0.03069
3090.98826	0.03076
3089.70249	0.03074
3088.41672	0.03061
3087.13095	0.03031
3085.84518	0.02986
3084.55942	0.02943
3083.27365	0.02922
3081.98788	0.02928
3080.70211	0.02950
3079.41634	0.02978
3078.13057	0.03012
3076.84480	0.03048
3075.55903	0.03073
3074.27326	0.03080
3072.98750	0.03077
3071.70173	0.03071
3070.41596	0.03064
3069.13019	0.03049
3067.84442	0.03022
3066.55865	0.02989
3065.27288	0.02964
3063.98711	0.02963
3062.70135	0.02987
3061.41558	0.03027
3060.12981	0.03068
3058.84404	0.03098
3057.55827	0.03107
3056.27250	0.03095
3054.98673	0.03073
3053.70096	0.03054
3052.41519	0.03041
3051.12943	0.03031
3049.84366	0.03013
3048.55789	0.02984
3047.27212	0.02949
3045.98635	0.02918
3044.70058	0.02903
3043.41481	0.02906
3042.12904	0.02919
3040.84328	0.02929
3039.55751	0.02929
3038.27174	0.02921
3036.98597	0.02916
3035.70020	0.02918
3034.41443	0.02922
3033.12866	0.02911
3031.84289	0.02879
3030.55712	0.02834
3029.27136	0.02793
3027.98559	0.02770
3026.69982	0.02761
3025.41405	0.02749
3024.12828	0.02728
3022.84251	0.02705
3021.55674	0.02689
3020.27097	0.02684
3018.98521	0.02690
3017.69944	0.02705
3016.41367	0.02728
3015.12790	0.02746
3013.84213	0.02748
3012.55636	0.02730
3011.27059	0.02705
3009.98482	0.02687
3008.69905	0.02680
3007.41329	0.02681
3006.12752	0.02687
3004.84175	0.02698
3003.55598	0.02710
3002.27021	0.02714
3000.98444	0.02701
2999.69867	0.02679
2998.41290	0.02653
2997.12714	0.02645
2995.84137	0.02656
2994.55560	0.02680
2993.26983	0.02706
2991.98406	0.02730
2990.69829	0.02747
2989.41252	0.02747
2988.12675	0.02732
2986.84098	0.02716
2985.55522	0.02716
2984.26945	0.02729
2982.98368	0.02741
2981.69791	0.02750
2980.41214	0.02763
2979.12637	0.02780
2977.84060	0.02791
2976.55483	0.02796
2975.26907	0.02807
2973.98330	0.02833
2972.69753	0.02860
2971.41176	0.02869
2970.12599	0.02857
2968.84022	0.02840
2967.55445	0.02839
2966.26868	0.02856
2964.98291	0.02880
2963.69715	0.02895
2962.41138	0.02899
2961.12561	0.02899
2959.83984	0.02900
2958.55407	0.02905
2957.26830	0.02916
2955.98253	0.02928
2954.69676	0.02930
2953.41100	0.02915
2952.12523	0.02893
2950.83946	0.02885
2949.55369	0.02898
2948.26792	0.02920
2946.98215	0.02936
2945.69638	0.02941
2944.41061	0.02942
2943.12484	0.02945
2941.83908	0.02950
2940.55331	0.02955
2939.26754	0.02959
2937.98177	0.02965
2936.69600	0.02972
2935.41023	0.02970
2934.12446	0.02952
2932.83869	0.02921
2931.55293	0.02896
2930.26716	0.02890
2928.98139	0.02903
2927.69562	0.02923
2926.40985	0.02941
2925.12408	0.02953
2923.83831	0.02957
2922.55254	0.02957
2921.26677	0.02957
2919.98101	0.02955
2918.69524	0.02946
2917.40947	0.02928
2916.12370	0.02907
2914.83793	0.02888
2913.55216	0.02873
2912.26639	0.02855
2910.98062	0.02829
2909.69486	0.02796
2908.40909	0.02764
2907.12332	0.02735
2905.83755	0.02712
2904.55178	0.02694
2903.26601	0.02686
2901.98024	0.02690
2900.69447	0.02700
2899.40870	0.02706
2898.12294	0.02697
2896.83717	0.02674
2895.55140	0.02646
2894.26563	0.02620
2892.97986	0.02600
2891.69409	0.02588
2890.40832	0.02583
2889.12255	0.02591
2887.83678	0.02615
2886.55102	0.02647
2885.26525	0.02675
2883.97948	0.02681
2882.69371	0.02663
2881.40794	0.02631
2880.12217	0.02600
2878.83640	0.02583
2877.55063	0.02578
2876.26487	0.02574
2874.97910	0.02565
2873.69333	0.02554
2872.40756	0.02553
2871.12179	0.02562
2869.83602	0.02571
2868.55025	0.02571
2867.26448	0.02561
2865.97871	0.02552
2864.69295	0.02555
2863.40718	0.02576
2862.12141	0.02603
2860.83564	0.02617
2859.54987	0.02602
2858.26410	0.02564
2856.97833	0.02520
2855.69256	0.02492
2854.40680	0.02487
2853.12103	0.02490
2851.83526	0.02477
2850.54949	0.02438
2849.26372	0.02395
2847.97795	0.02380
2846.69218	0.02397
2845.40641	0.02424
2844.12064	0.02438
2842.83488	0.02433
2841.54911	0.02418
2840.26334	0.02403
2838.97757	0.02389
2837.69180	0.02372
2836.40603	0.02356
2835.12026	0.02349
2833.83449	0.02355
2832.54873	0.02363
2831.26296	0.02361
2829.97719	0.02346
2828.69142	0.02324
2827.40565	0.02301
2826.11988	0.02277
2824.83411	0.02254
2823.54834	0.02235
2822.26257	0.02222
2820.97681	0.02211
2819.69104	0.02205
2818.40527	0.02206
2817.11950	0.02212
2815.83373	0.02216
2814.54796	0.02211
2813.26219	0.02200
2811.97642	0.02203
2810.69066	0.02229
2809.40489	0.02269
2808.11912	0.02301
2806.83335	0.02308
2805.54758	0.02293
2804.26181	0.02272
2802.97604	0.02258
2801.69027	0.02256
2800.40450	0.02260
2799.11874	0.02260
2797.83297	0.02250
2796.54720	0.02225
2795.26143	0.02189
2793.97566	0.02157
2792.68989	0.02145
2791.40412	0.02158
2790.11835	0.02178
2788.83259	0.02188
2787.54682	0.02182
2786.26105	0.02174
2784.97528	0.02173
2783.68951	0.02179
2782.40374	0.02187
2781.11797	0.02194
2779.83220	0.02201
2778.54643	0.02202
2777.26067	0.02193
2775.97490	0.02173
2774.68913	0.02149
2773.40336	0.02131
2772.11759	0.02123
2770.83182	0.02120
2769.54605	0.02116
2768.26028	0.02106
2766.97452	0.02091
2765.68875	0.02077
2764.40298	0.02067
2763.11721	0.02060
2761.83144	0.02050
2760.54567	0.02037
2759.25990	0.02026
2757.97413	0.02022
2756.68836	0.02027
2755.40260	0.02040
2754.11683	0.02057
2752.83106	0.02071
2751.54529	0.02081
2750.25952	0.02084
2748.97375	0.02084
2747.68798	0.02081
2746.40221	0.02077
2745.11645	0.02072
2743.83068	0.02064
2742.54491	0.02045
2741.25914	0.02014
2739.97337	0.01977
2738.68760	0.01946
2737.40183	0.01931
2736.11606	0.01935
2734.83029	0.01949
2733.54453	0.01966
2732.25876	0.01982
2730.97299	0.01998
2729.68722	0.02011
2728.40145	0.02009
2727.11568	0.01988
2725.82991	0.01957
2724.54414	0.01929
2723.25838	0.01916
2721.97261	0.01925
2720.68684	0.01952
2719.40107	0.01980
2718.11530	0.01993
2716.82953	0.01985
2715.54376	0.01962
2714.25799	0.01938
2712.97222	0.01920
2711.68646	0.01908
2710.40069	0.01902
2709.11492	0.01899
2707.82915	0.01899
2706.54338	0.01900
2705.25761	0.01896
2703.97184	0.01887
2702.68607	0.01877
2701.40031	0.01870
2700.11454	0.01870
2698.82877	0.01875
2697.54300	0.01880
2696.25723	0.01886
2694.97146	0.01891
2693.68569	0.01895
2692.39992	0.01893
2691.11415	0.01883
2689.82839	0.01868
2688.54262	0.01860
2687.25685	0.01865
2685.97108	0.01874
2684.68531	0.01874
2683.39954	0.01860
2682.11377	0.01842
2680.82800	0.01830
2679.54224	0.01829
2678.25647	0.01837
2676.97070	0.01843
2675.68493	0.01838
2674.39916	0.01817
2673.11339	0.01790
2671.82762	0.01770
2670.54185	0.01768
2669.25608	0.01787
2667.97032	0.01814
2666.68455	0.01830
2665.39878	0.01828
2664.11301	0.01813
2662.82724	0.01799
2661.54147	0.01790
2660.25570	0.01785
2658.96993	0.01782
2657.68417	0.01785
2656.39840	0.01795
2655.11263	0.01805
2653.82686	0.01804
2652.54109	0.01788
2651.25532	0.01762
2649.96955	0.01734
2648.68378	0.01709
2647.39801	0.01691
2646.11225	0.01689
2644.82648	0.01707
2643.54071	0.01733
2642.25494	0.01749
2640.96917	0.01744
2639.68340	0.01725
2638.39763	0.01708
2637.11186	0.01698
2635.82609	0.01686
2634.54033	0.01661
2633.25456	0.01624
2631.96879	0.01587
2630.68302	0.01561
2629.39725	0.01552
2628.11148	0.01563
2626.82571	0.01590
2625.53994	0.01624
2624.25418	0.01655
2622.96841	0.01678
2621.68264	0.01691
2620.39687	0.01691
2619.11110	0.01678
2617.82533	0.01656
2616.53956	0.01634
2615.25379	0.01617
2613.96802	0.01595
2612.68226	0.01565
2611.39649	0.01537
2610.11072	0.01527
2608.82495	0.01536
2607.53918	0.01543
2606.25341	0.01539
2604.96764	0.01531
2603.68187	0.01530
2602.39611	0.01527
2601.11034	0.01507
2599.82457	0.01470
2598.53880	0.01437
2597.25303	0.01428
2595.96726	0.01441
2594.68149	0.01457
2593.39572	0.01463
2592.10995	0.01466
2590.82419	0.01477
2589.53842	0.01491
2588.25265	0.01490
2586.96688	0.01470
2585.68111	0.01444
2584.39534	0.01429
2583.10957	0.01432
2581.82380	0.01450
2580.53804	0.01483
2579.25227	0.01525
2577.96650	0.01561
2576.68073	0.01585
2575.39496	0.01597
2574.10919	0.01596
2572.82342	0.01564
2571.53765	0.01496
2570.25188	0.01426
2568.96612	0.01397
2567.68035	0.01415
2566.39458	0.01444
2565.10881	0.01455
2563.82304	0.01452
2562.53727	0.01455
2561.25150	0.01465
2559.96573	0.01475
2558.67997	0.01479
2557.39420	0.01482
2556.10843	0.01488
2554.82266	0.01499
2553.53689	0.01510
2552.25112	0.01512
2550.96535	0.01495
2549.67958	0.01463
2548.39381	0.01423
2547.10805	0.01379
2545.82228	0.01337
2544.53651	0.01312
2543.25074	0.01314
2541.96497	0.01338
2540.67920	0.01364
2539.39343	0.01384
2538.10766	0.01402
2536.82190	0.01416
2535.53613	0.01416
2534.25036	0.01391
2532.96459	0.01346
2531.67882	0.01300
2530.39305	0.01271
2529.10728	0.01268
2527.82151	0.01283
2526.53574	0.01300
2525.24998	0.01308
2523.96421	0.01302
2522.67844	0.01286
2521.39267	0.01274
2520.10690	0.01282
2518.82113	0.01315
2517.53536	0.01366
2516.24959	0.01414
2514.96383	0.01436
2513.67806	0.01418
2512.39229	0.01370
2511.10652	0.01317
2509.82075	0.01280
2508.53498	0.01261
2507.24921	0.01256
2505.96344	0.01266
2504.67767	0.01288
2503.39191	0.01310
2502.10614	0.01319
2500.82037	0.01317
2499.53460	0.01311
2498.24883	0.01302
2496.96306	0.01287
2495.67729	0.01272
2494.39152	0.01262
2493.10576	0.01256
2491.81999	0.01247
2490.53422	0.01232
2489.24845	0.01210
2487.96268	0.01176
2486.67691	0.01135
2485.39114	0.01107
2484.10537	0.01112
2482.81960	0.01149
2481.53384	0.01201
2480.24807	0.01247
2478.96230	0.01273
2477.67653	0.01277
2476.39076	0.01265
2475.10499	0.01258
2473.81922	0.01268
2472.53345	0.01285
2471.24769	0.01285
2469.96192	0.01262
2468.67615	0.01240
2467.39038	0.01242
2466.10461	0.01270
2464.81884	0.01305
2463.53307	0.01333
2462.24730	0.01349
2460.96153	0.01353
2459.67577	0.01344
2458.39000	0.01320
2457.10423	0.01287
2455.81846	0.01255
2454.53269	0.01236
2453.24692	0.01235
2451.96115	0.01250
2450.67538	0.01278
2449.38962	0.01316
2448.10385	0.01353
2446.81808	0.01373
2445.53231	0.01364
2444.24654	0.01331
2442.96077	0.01293
2441.67500	0.01271
2440.38923	0.01273
2439.10346	0.01291
2437.81770	0.01310
2436.53193	0.01315
2435.24616	0.01302
2433.96039	0.01278
2432.67462	0.01254
2431.38885	0.01239
2430.10308	0.01234
2428.81731	0.01237
2427.53155	0.01240
2426.24578	0.01237
2424.96001	0.01226
2423.67424	0.01215
2422.38847	0.01216
2421.10270	0.01229
2419.81693	0.01243
2418.53116	0.01245
2417.24539	0.01235
2415.95963	0.01226
2414.67386	0.01229
2413.38809	0.01244
2412.10232	0.01258
2410.81655	0.01262
2409.53078	0.01254
2408.24501	0.01234
2406.95924	0.01204
2405.67347	0.01173
2404.38771	0.01157
2403.10194	0.01170
2401.81617	0.01204
2400.53040	0.01236
2399.24463	0.01232
2397.95886	0.01223
2396.67309	0.01200
2395.38732	0.01173
2394.10156	0.01161
2392.81579	0.01168
2391.53002	0.01188
2390.24425	0.01211
2388.95848	0.01229
2387.67271	0.01237
2386.38694	0.01234
2385.10117	0.01221
2383.81540	0.01204
2382.52964	0.01191
2381.24387	0.01186
2379.95810	0.01189
2378.67233	0.01197
2377.38656	0.01208
2376.10079	0.01218
2374.81502	0.01222
2373.52925	0.01220
2372.24349	0.01217
2370.95772	0.01219
2369.67195	0.01224
2368.38618	0.01223
2367.10041	0.01214
2365.81464	0.01204
2364.52887	0.01204
2363.24310	0.01217
2361.95733	0.01238
2360.67157	0.01260
2359.38580	0.01280
2358.10003	0.01296
2356.81426	0.01304
2355.52849	0.01297
2354.24272	0.01277
2352.95695	0.01254
2351.67118	0.01241
2350.38542	0.01242
2349.09965	0.01250
2347.81388	0.01261
2346.52811	0.01277
2345.24234	0.01302
2343.95657	0.01333
2342.67080	0.01358
2341.38503	0.01365
2340.09926	0.01349
2338.81350	0.01322
2337.52773	0.01298
2336.24196	0.01284
2334.95619	0.01275
2333.67042	0.01268
2332.38465	0.01262
2331.09888	0.01257
2329.81311	0.01252
2328.52735	0.01244
2327.24158	0.01232
2325.95581	0.01221
2324.67004	0.01208
2323.38427	0.01190
2322.09850	0.01176
2320.81273	0.01178
2319.52696	0.01197
2318.24119	0.01216
2316.95543	0.01212
2315.66966	0.01180
2314.38389	0.01134
2313.09812	0.01097
2311.81235	0.01083
2310.52658	0.01091
2309.24081	0.01112
2307.95504	0.01134
2306.66928	0.01144
2305.38351	0.01137
2304.09774	0.01121
2302.81197	0.01120
2301.52620	0.01137
2300.24043	0.01149
2298.95466	0.01133
2297.66889	0.01092
2296.38312	0.01053
2295.09736	0.01033
2293.81159	0.01024
2292.52582	0.01022
2291.24005	0.01030
2289.95428	0.01052
2288.66851	0.01077
2287.38274	0.01089
2286.09697	0.01087
2284.81121	0.01078
2283.52544	0.01070
2282.23967	0.01056
2280.95390	0.01029
2279.66813	0.00991
2278.38236	0.00951
2277.09659	0.00920
2275.81082	0.00904
2274.52505	0.00902
2273.23929	0.00908
2271.95352	0.00915
2270.66775	0.00917
2269.38198	0.00913
2268.09621	0.00904
2266.81044	0.00903
2265.52467	0.00924
2264.23890	0.00968
2262.95314	0.01011
2261.66737	0.01024
2260.38160	0.01003
2259.09583	0.00969
2257.81006	0.00954
2256.52429	0.00964
2255.23852	0.00983
2253.95275	0.00991
2252.66698	0.00991
2251.38122	0.00991
2250.09545	0.00986
2248.80968	0.00945
2247.52391	0.00889
2246.23814	0.00838
2244.95237	0.00823
2243.66660	0.00849
2242.38083	0.00886
2241.09507	0.00893
2239.80930	0.00855
2238.52353	0.00791
2237.23776	0.00730
2235.95199	0.00699
2234.66622	0.00713
2233.38045	0.00768
2232.09468	0.00836
2230.80891	0.00881
2229.52315	0.00891
2228.23738	0.00873
2226.95161	0.00841
2225.66584	0.00803
2224.38007	0.00764
2223.09430	0.00731
2221.80853	0.00699
2220.52276	0.00662
2219.23700	0.00627
2217.95123	0.00616
2216.66546	0.00641
2215.37969	0.00682
2214.09392	0.00693
2212.80815	0.00656
2211.52238	0.00599
2210.23661	0.00570
2208.95084	0.00582
2207.66508	0.00597
2206.37931	0.00569
2205.09354	0.00492
2203.80777	0.00409
2202.52200	0.00385
2201.23623	0.00443
2199.95046	0.00539
2198.66469	0.00601
2197.37893	0.00600
2196.09316	0.00556
2194.80739	0.00493
2193.52162	0.00413
2192.23585	0.00332
2190.95008	0.00300
2189.66431	0.00351
2188.37854	0.00457
2187.09277	0.00567
2185.80701	0.00658
2184.52124	0.00732
2183.23547	0.00778
2181.94970	0.00786
2180.66393	0.00776
2179.37816	0.00774
2178.09239	0.00774
2176.80662	0.00751
2175.52085	0.00706
2174.23509	0.00674
2172.94932	0.00664
2171.66355	0.00631
2170.37778	0.00535
2169.09201	0.00397
2167.80624	0.00289
2166.52047	0.00270
2165.23470	0.00339
2163.94894	0.00447
2162.66317	0.00522
2161.37740	0.00505
2160.09163	0.00404
2158.80586	0.00317
2157.52009	0.00337
2156.23432	0.00442
2154.94855	0.00536
2153.66278	0.00569
2152.37702	0.00575
2151.09125	0.00593
2149.80548	0.00621
2148.51971	0.00630
2147.23394	0.00615
2145.94817	0.00598
2144.66240	0.00591
2143.37663	0.00589
2142.09087	0.00588
2140.80510	0.00595
2139.51933	0.00614
2138.23356	0.00637
2136.94779	0.00654
2135.66202	0.00666
2134.37625	0.00678
2133.09048	0.00692
2131.80471	0.00714
2130.51895	0.00753
2129.23318	0.00802
2127.94741	0.00832
2126.66164	0.00818
2125.37587	0.00770
2124.09010	0.00732
2122.80433	0.00735
2121.51856	0.00765
2120.23280	0.00788
2118.94703	0.00785
2117.66126	0.00768
2116.37549	0.00753
2115.08972	0.00745
2113.80395	0.00736
2112.51818	0.00721
2111.23241	0.00694
2109.94664	0.00657
2108.66088	0.00624
2107.37511	0.00606
2106.08934	0.00604
2104.80357	0.00608
2103.51780	0.00608
2102.23203	0.00601
2100.94626	0.00600
2099.66049	0.00662
2098.37473	0.00691
2097.08896	0.00679
2095.80319	0.00651
2094.51742	0.00632
2093.23165	0.00645
2091.94588	0.00688
2090.66011	0.00737
2089.37434	0.00764
2088.08857	0.00758
2086.80281	0.00731
2085.51704	0.00702
2084.23127	0.00680
2082.94550	0.00659
2081.65973	0.00629
2080.37396	0.00599
2079.08819	0.00592
2077.80242	0.00623
2076.51666	0.00678
2075.23089	0.00716
2073.94512	0.00709
2072.65935	0.00674
2071.37358	0.00657
2070.08781	0.00678
2068.80204	0.00706
2067.51627	0.00698
2066.23050	0.00642
2064.94474	0.00559
2063.65897	0.00485
2062.37320	0.00448
2061.08743	0.00451
2059.80166	0.00468
2058.51589	0.00463
2057.23012	0.00428
2055.94435	0.00392
2054.65859	0.00382
2053.37282	0.00401
2052.08705	0.00424
2050.80128	0.00417
2049.51551	0.00363
2048.22974	0.00281
2046.94397	0.00228
2045.65820	0.00252
2044.37243	0.00333
2043.08667	0.00392
2041.80090	0.00381
2040.51513	0.00330
2039.22936	0.00311
2037.94359	0.00351
2036.65782	0.00413
2035.37205	0.00453
2034.08628	0.00472
2032.80052	0.00496
2031.51475	0.00537
2030.22898	0.00582
2028.94321	0.00608
2027.65744	0.00597
2026.37167	0.00536
2025.08590	0.00436
2023.80013	0.00343
2022.51436	0.00309
2021.22860	0.00349
2019.94283	0.00421
2018.65706	0.00467
2017.37129	0.00453
2016.08552	0.00393
2014.79975	0.00333
2013.51398	0.00317
2012.22821	0.00364
2010.94245	0.00464
2009.65668	0.00584
2008.37091	0.00677
2007.08514	0.00698
2005.79937	0.00634
2004.51360	0.00525
2003.22783	0.00437
2001.94206	0.00401
2000.65629	0.00394
1999.37053	0.00383
1998.08476	0.00367
1996.79899	0.00368
1995.51322	0.00392
1994.22745	0.00429
1992.94168	0.00470
1991.65591	0.00505
1990.37014	0.00513
1989.08438	0.00479
1987.79861	0.00425
1986.51284	0.00397
1985.22707	0.00422
1983.94130	0.00478
1982.65553	0.00515
1981.36976	0.00497
1980.08399	0.00446
1978.79822	0.00424
1977.51246	0.00475
1976.22669	0.00580
1974.94092	0.00687
1973.65515	0.00770
1972.36938	0.00829
1971.08361	0.00847
1969.79784	0.00792
1968.51207	0.00670
1967.22631	0.00534
1965.94054	0.00449
1964.65477	0.00442
1963.36900	0.00497
1962.08323	0.00574
1960.79746	0.00639
1959.51169	0.00679
1958.22592	0.00691
1956.94015	0.00675
1955.65439	0.00636
1954.36862	0.00593
1953.08285	0.00570
1951.79708	0.00575
1950.51131	0.00597
1949.22554	0.00617
1947.93977	0.00626
1946.65400	0.00628
1945.36823	0.00627
1944.08247	0.00626
1942.79670	0.00626
1941.51093	0.00634
1940.22516	0.00658
1938.93939	0.00690
1937.65362	0.00719
1936.36785	0.00734
1935.08208	0.00737
1933.79632	0.00734
1932.51055	0.00727
1931.22478	0.00715
1929.93901	0.00696
1928.65324	0.00669
1927.36747	0.00641
1926.08170	0.00624
1924.79593	0.00632
1923.51016	0.00668
1922.22440	0.00713
1920.93863	0.00741
1919.65286	0.00737
1918.36709	0.00705
1917.08132	0.00669
1915.79555	0.00656
1914.50978	0.00675
1913.22401	0.00706
1911.93825	0.00724
1910.65248	0.00720
1909.36671	0.00701
1908.08094	0.00684
1906.79517	0.00680
1905.50940	0.00690
1904.22363	0.00708
1902.93786	0.00734
1901.65209	0.00768
1900.36633	0.00801
1899.08056	0.00817
1897.79479	0.00809
1896.50902	0.00785
1895.22325	0.00766
1893.93748	0.00759
1892.65171	0.00760
1891.36594	0.00761
1890.08018	0.00758
1888.79441	0.00748
1887.50864	0.00733
1886.22287	0.00716
1884.93710	0.00703
1883.65133	0.00696
1882.36556	0.00693
1881.07979	0.00689
1879.79402	0.00679
1878.50826	0.00672
1877.22249	0.00678
1875.93672	0.00696
1874.65095	0.00715
1873.36518	0.00727
1872.07941	0.00731
1870.79364	0.00733
1869.50787	0.00726
1868.22211	0.00709
1866.93634	0.00690
1865.65057	0.00684
1864.36480	0.00698
1863.07903	0.00727
1861.79326	0.00759
1860.50749	0.00775
1859.22172	0.00760
1857.93595	0.00716
1856.65019	0.00666
1855.36442	0.00633
1854.07865	0.00626
1852.79288	0.00636
1851.50711	0.00651
1850.22134	0.00664
1848.93557	0.00673
1847.64980	0.00680
1846.36404	0.00690
1845.07827	0.00703
1843.79250	0.00706
1842.50673	0.00693
1841.22096	0.00675
1839.93519	0.00669
1838.64942	0.00674
1837.36365	0.00682
1836.07788	0.00682
1834.79212	0.00670
1833.50635	0.00652
1832.22058	0.00636
1830.93481	0.00626
1829.64904	0.00619
1828.36327	0.00608
1827.07750	0.00600
1825.79173	0.00604
1824.50597	0.00624
1823.22020	0.00657
1821.93443	0.00696
1820.64866	0.00722
1819.36289	0.00722
1818.07712	0.00698
1816.79135	0.00666
1815.50558	0.00647
1814.21981	0.00652
1812.93405	0.00670
1811.64828	0.00687
1810.36251	0.00691
1809.07674	0.00686
1807.79097	0.00682
1806.50520	0.00686
1805.21943	0.00697
1803.93366	0.00710
1802.64790	0.00716
1801.36213	0.00712
1800.07636	0.00700
1798.79059	0.00688
1797.50482	0.00680
1796.21905	0.00677
1794.93328	0.00677
1793.64751	0.00680
1792.36174	0.00680
1791.07598	0.00676
1789.79021	0.00678
1788.50444	0.00689
1787.21867	0.00703
1785.93290	0.00707
1784.64713	0.00700
1783.36136	0.00691
1782.07559	0.00691
1780.78983	0.00701
1779.50406	0.00709
1778.21829	0.00709
1776.93252	0.00703
1775.64675	0.00696
1774.36098	0.00694
1773.07521	0.00694
1771.78944	0.00688
1770.50367	0.00679
1769.21791	0.00678
1767.93214	0.00678
1766.64637	0.00673
1765.36060	0.00667
1764.07483	0.00669
1762.78906	0.00679
1761.50329	0.00683
1760.21752	0.00679
1758.93176	0.00676
1757.64599	0.00680
1756.36022	0.00680
1755.07445	0.00670
1753.78868	0.00662
1752.50291	0.00665
1751.21714	0.00672
1749.93137	0.00673
1748.64560	0.00671
1747.35984	0.00672
1746.07407	0.00682
1744.78830	0.00699
1743.50253	0.00718
1742.21676	0.00737
1740.93099	0.00754
1739.64522	0.00759
1738.35945	0.00745
1737.07369	0.00728
1735.78792	0.00731
1734.50215	0.00752
1733.21638	0.00770
1731.93061	0.00780
1730.64484	0.00787
1729.35907	0.00792
1728.07330	0.00791
1726.78753	0.00792
1725.50177	0.00803
1724.21600	0.00821
1722.93023	0.00832
1721.64446	0.00834
1720.35869	0.00837
1719.07292	0.00851
1717.78715	0.00869
1716.50138	0.00882
1715.21561	0.00895
1713.92985	0.00917
1712.64408	0.00952
1711.35831	0.00995
1710.07254	0.01042
1708.78677	0.01090
1707.50100	0.01135
1706.21523	0.01173
1704.92946	0.01196
1703.64370	0.01221
1702.35793	0.01275
1701.07216	0.01356
1699.78639	0.01432
1698.50062	0.01498
1697.21485	0.01577
1695.92908	0.01663
1694.64331	0.01731
1693.35754	0.01783
1692.07178	0.01838
1690.78601	0.01896
1689.50024	0.01947
1688.21447	0.01995
1686.92870	0.02063
1685.64293	0.02153
1684.35716	0.02239
1683.07139	0.02300
1681.78563	0.02354
1680.49986	0.02419
1679.21409	0.02495
1677.92832	0.02579
1676.64255	0.02671
1675.35678	0.02760
1674.07101	0.02833
1672.78524	0.02899
1671.49947	0.02974
1670.21371	0.03058
1668.92794	0.03139
1667.64217	0.03211
1666.35640	0.03282
1665.07063	0.03361
1663.78486	0.03448
1662.49909	0.03533
1661.21332	0.03606
1659.92756	0.03663
1658.64179	0.03703
1657.35602	0.03727
1656.07025	0.03757
1654.78448	0.03815
1653.49871	0.03885
1652.21294	0.03930
1650.92717	0.03949
1649.64140	0.03975
1648.35564	0.04026
1647.06987	0.04086
1645.78410	0.04131
1644.49833	0.04153
1643.21256	0.04163
1641.92679	0.04169
1640.64102	0.04171
1639.35525	0.04172
1638.06949	0.04181
1636.78372	0.04202
1635.49795	0.04218
1634.21218	0.04220
1632.92641	0.04216
1631.64064	0.04216
1630.35487	0.04214
1629.06910	0.04195
1627.78333	0.04157
1626.49757	0.04111
1625.21180	0.04070
1623.92603	0.04034
1622.64026	0.03989
1621.35449	0.03926
1620.06872	0.03855
1618.78295	0.03792
1617.49718	0.03734
1616.21142	0.03667
1614.92565	0.03586
1613.63988	0.03504
1612.35411	0.03431
1611.06834	0.03363
1609.78257	0.03296
1608.49680	0.03229
1607.21103	0.03160
1605.92526	0.03092
1604.63950	0.03027
1603.35373	0.02967
1602.06796	0.02911
1600.78219	0.02860
1599.49642	0.02814
1598.21065	0.02773
1596.92488	0.02736
1595.63911	0.02703
1594.35335	0.02671
1593.06758	0.02644
1591.78181	0.02622
1590.49604	0.02603
1589.21027	0.02587
1587.92450	0.02574
1586.63873	0.02564
1585.35296	0.02555
1584.06719	0.02546
1582.78143	0.02534
1581.49566	0.02519
1580.20989	0.02504
1578.92412	0.02501
1577.63835	0.02522
1576.35258	0.02554
1575.06681	0.02578
1573.78104	0.02596
1572.49528	0.02625
1571.20951	0.02668
1569.92374	0.02715
1568.63797	0.02755
1567.35220	0.02790
1566.06643	0.02824
1564.78066	0.02850
1563.49489	0.02867
1562.20912	0.02892
1560.92336	0.02941
1559.63759	0.03002
1558.35182	0.03051
1557.06605	0.03086
1555.78028	0.03127
1554.49451	0.03174
1553.20874	0.03219
1551.92297	0.03261
1550.63721	0.03305
1549.35144	0.03348
1548.06567	0.03382
1546.77990	0.03408
1545.49413	0.03427
1544.20836	0.03440
1542.92259	0.03453
1541.63682	0.03478
1540.35105	0.03509
1539.06529	0.03528
1537.77952	0.03530
1536.49375	0.03533
1535.20798	0.03552
1533.92221	0.03578
1532.63644	0.03595
1531.35067	0.03601
1530.06490	0.03602
1528.77914	0.03597
1527.49337	0.03585
1526.20760	0.03568
1524.92183	0.03552
1523.63606	0.03547
1522.35029	0.03554
1521.06452	0.03560
1519.77875	0.03555
1518.49298	0.03548
1517.20722	0.03544
1515.92145	0.03536
1514.63568	0.03522
1513.34991	0.03506
1512.06414	0.03483
1510.77837	0.03446
1509.49260	0.03402
1508.20683	0.03363
1506.92107	0.03328
1505.63530	0.03285
1504.34953	0.03234
1503.06376	0.03185
1501.77799	0.03139
1500.49222	0.03088
1499.20645	0.03033
1497.92068	0.02979
1496.63491	0.02925
1495.34915	0.02865
1494.06338	0.02804
1492.77761	0.02751
1491.49184	0.02708
1490.20607	0.02666
1488.92030	0.02619
1487.63453	0.02570
1486.34876	0.02520
1485.06299	0.02472
1483.77723	0.02431
1482.49146	0.02399
1481.20569	0.02375
1479.91992	0.02358
1478.63415	0.02349
1477.34838	0.02348
1476.06261	0.02356
1474.77684	0.02371
1473.49108	0.02387
1472.20531	0.02395
1470.91954	0.02391
1469.63377	0.02389
1468.34800	0.02400
1467.06223	0.02427
1465.77646	0.02462
1464.49069	0.02494
1463.20492	0.02519
1461.91916	0.02538
1460.63339	0.02558
1459.34762	0.02588
1458.06185	0.02628
1456.77608	0.02662
1455.49031	0.02679
1454.20454	0.02689
1452.91877	0.02700
1451.63301	0.02712
1450.34724	0.02721
1449.06147	0.02728
1447.77570	0.02733
1446.48993	0.02735
1445.20416	0.02732
1443.91839	0.02726
1442.63262	0.02712
1441.34685	0.02691
1440.06109	0.02669
1438.77532	0.02653
1437.48955	0.02643
1436.20378	0.02628
1434.91801	0.02607
1433.63224	0.02590
1432.34647	0.02584
1431.06070	0.02581
1429.77494	0.02575
1428.48917	0.02564
1427.20340	0.02552
1425.91763	0.02541
1424.63186	0.02529
1423.34609	0.02511
1422.06032	0.02496
1420.77455	0.02492
1419.48878	0.02494
1418.20302	0.02493
1416.91725	0.02490
1415.63148	0.02492
1414.34571	0.02498
1413.05994	0.02501
1411.77417	0.02497
1410.48840	0.02489
1409.20263	0.02480
1407.91687	0.02474
1406.63110	0.02474
1405.34533	0.02477
1404.05956	0.02477
1402.77379	0.02471
1401.48802	0.02462
1400.20225	0.02453
1398.91648	0.02443
1397.63071	0.02431
1396.34495	0.02422
1395.05918	0.02414
1393.77341	0.02404
1392.48764	0.02389
1391.20187	0.02377
1389.91610	0.02371
1388.63033	0.02368
1387.34456	0.02362
1386.05880	0.02350
1384.77303	0.02337
1383.48726	0.02328
1382.20149	0.02322
1380.91572	0.02314
1379.62995	0.02303
1378.34418	0.02287
1377.05841	0.02268
1375.77264	0.02248
1374.48688	0.02229
1373.20111	0.02209
1371.91534	0.02190
1370.62957	0.02172
1369.34380	0.02154
1368.05803	0.02130
1366.77226	0.02103
1365.48649	0.02077
1364.20073	0.02057
1362.91496	0.02041
1361.62919	0.02026
1360.34342	0.02012
1359.05765	0.02000
1357.77188	0.01994
1356.48611	0.01992
1355.20034	0.01991
1353.91457	0.01990
1352.62881	0.01986
1351.34304	0.01983
1350.05727	0.01980
1348.77150	0.01979
1347.48573	0.01980
1346.19996	0.01984
1344.91419	0.01991
1343.62842	0.02000
1342.34266	0.02010
1341.05689	0.02020
1339.77112	0.02026
1338.48535	0.02028
1337.19958	0.02027
1335.91381	0.02024
1334.62804	0.02020
1333.34227	0.02015
1332.05650	0.02008
1330.77074	0.02001
1329.48497	0.01994
1328.19920	0.01987
1326.91343	0.01975
1325.62766	0.01961
1324.34189	0.01946
1323.05612	0.01934
1321.77035	0.01925
1320.48459	0.01918
1319.19882	0.01914
1317.91305	0.01914
1316.62728	0.01915
1315.34151	0.01913
1314.05574	0.01908
1312.76997	0.01900
1311.48420	0.01892
1310.19843	0.01887
1308.91267	0.01882
1307.62690	0.01875
1306.34113	0.01870
1305.05536	0.01867
1303.76959	0.01868
1302.48382	0.01867
1301.19805	0.01861
1299.91228	0.01849
1298.62652	0.01835
1297.34075	0.01824
1296.05498	0.01821
1294.76921	0.01823
1293.48344	0.01827
1292.19767	0.01830
1290.91190	0.01835
1289.62613	0.01842
1288.34036	0.01853
1287.05460	0.01865
1285.76883	0.01873
1284.48306	0.01876
1283.19729	0.01878
1281.91152	0.01885
1280.62575	0.01895
1279.33998	0.01906
1278.05421	0.01914
1276.76845	0.01917
1275.48268	0.01917
1274.19691	0.01917
1272.91114	0.01919
1271.62537	0.01922
1270.33960	0.01926
1269.05383	0.01932
1267.76806	0.01940
1266.48229	0.01951
1265.19653	0.01965
1263.91076	0.01980
1262.62499	0.01994
1261.33922	0.02007
1260.05345	0.02017
1258.76768	0.02024
1257.48191	0.02030
1256.19614	0.02036
1254.91037	0.02044
1253.62461	0.02056
1252.33884	0.02069
1251.05307	0.02083
1249.76730	0.02096
1248.48153	0.02111
1247.19576	0.02130
1245.90999	0.02153
1244.62422	0.02178
1243.33846	0.02203
1242.05269	0.02225
1240.76692	0.02240
1239.48115	0.02246
1238.19538	0.02248
1236.90961	0.02250
1235.62384	0.02256
1234.33807	0.02267
1233.05230	0.02278
1231.76654	0.02288
1230.48077	0.02295
1229.19500	0.02297
1227.90923	0.02292
1226.62346	0.02280
1225.33769	0.02261
1224.05192	0.02235
1222.76615	0.02204
1221.48039	0.02174
1220.19462	0.02148
1218.90885	0.02127
1217.62308	0.02110
1216.33731	0.02094
1215.05154	0.02077
1213.76577	0.02062
1212.48000	0.02049
1211.19423	0.02040
1209.90847	0.02034
1208.62270	0.02029
1207.33693	0.02025
1206.05116	0.02021
1204.76539	0.02019
1203.47962	0.02015
1202.19385	0.02011
1200.90808	0.02000
1199.62232	0.01979
1198.33655	0.01965
1197.05078	0.01947
1195.76501	0.01927
1194.47924	0.01910
1193.19347	0.01898
1191.90770	0.01886
1190.62193	0.01870
1189.33616	0.01850
1188.05040	0.01829
1186.76463	0.01815
1185.47886	0.01807
1184.19309	0.01799
1182.90732	0.01788
1181.62155	0.01776
1180.33578	0.01770
1179.05001	0.01771
1177.76425	0.01776
1176.47848	0.01781
1175.19271	0.01783
1173.90694	0.01782
1172.62117	0.01778
1171.33540	0.01777
1170.04963	0.01782
1168.76386	0.01793
1167.47809	0.01808
1166.19233	0.01822
1164.90656	0.01834
1163.62079	0.01841
1162.33502	0.01846
1161.04925	0.01850
1159.76348	0.01856
1158.47771	0.01865
1157.19194	0.01875
1155.90618	0.01882
1154.62041	0.01884
1153.33464	0.01883
1152.04887	0.01883
1150.76310	0.01887
1149.47733	0.01893
1148.19156	0.01898
1146.90579	0.01900
1145.62002	0.01894
1144.33426	0.01883
1143.04849	0.01872
1141.76272	0.01866
1140.47695	0.01867
1139.19118	0.01872
1137.90541	0.01879
1136.61964	0.01885
1135.33387	0.01891
1134.04811	0.01897
1132.76234	0.01908
1131.47657	0.01931
1130.19080	0.01971
1128.90503	0.02026
1127.61926	0.02090
1126.33349	0.02155
1125.04772	0.02221
1123.76195	0.02288
1122.47619	0.02358
1121.19042	0.02431
1119.90465	0.02506
1118.61888	0.02583
1117.33311	0.02665
1116.04734	0.02754
1114.76157	0.02844
1113.47580	0.02927
1112.19004	0.02998
1110.90427	0.03061
1109.61850	0.03128
1108.33273	0.03204
1107.04696	0.03288
1105.76119	0.03373
1104.47542	0.03451
1103.18965	0.03520
1101.90388	0.03579
1100.61812	0.03630
1099.33235	0.03677
1098.04658	0.03721
1096.76081	0.03760
1095.47504	0.03790
1094.18927	0.03806
1092.90350	0.03810
1091.61773	0.03806
1090.33197	0.03800
1089.04620	0.03792
1087.76043	0.03784
1086.47466	0.03782
1085.18889	0.03792
1083.90312	0.03822
1082.61735	0.03873
1081.33158	0.03937
1080.04581	0.04003
1078.76005	0.04061
1077.47428	0.04114
1076.18851	0.04171
1074.90274	0.04239
1073.61697	0.04313
1072.33120	0.04380
1071.04543	0.04434
1069.75966	0.04479
1068.47390	0.04523
1067.18813	0.04570
1065.90236	0.04618
1064.61659	0.04665
1063.33082	0.04709
1062.04505	0.04756
1060.75928	0.04813
1059.47351	0.04879
1058.18774	0.04947
1056.90198	0.05012
1055.61621	0.05072
1054.33044	0.05131
1053.04467	0.05187
1051.75890	0.05241
1050.47313	0.05294
1049.18736	0.05348
1047.90159	0.05406
1046.61583	0.05468
1045.33006	0.05536
1044.04429	0.05609
1042.75852	0.05683
1041.47275	0.05755
1040.18698	0.05822
1038.90121	0.05888
1037.61544	0.05957
1036.32967	0.06033
1035.04391	0.06115
1033.75814	0.06200
1032.47237	0.06282
1031.18660	0.06353
1029.90083	0.06406
1028.61506	0.06433
1027.32929	0.06429
1026.04352	0.06396
1024.75775	0.06342
1023.47199	0.06275
1022.18622	0.06200
1020.90045	0.06120
1019.61468	0.06034
1018.32891	0.05938
1017.04314	0.05834
1015.75737	0.05723
1014.47160	0.05608
1013.18584	0.05493
1011.90007	0.05381
1010.61430	0.05274
1009.32853	0.05178
1008.04276	0.05094
1006.75699	0.05018
1005.47122	0.04942
1004.18545	0.04862
1002.89968	0.04779
1001.61392	0.04697
1000.32815	0.04622
999.04238	0.04551
997.75661	0.04478
996.47084	0.04400
995.18507	0.04322
993.89930	0.04253
992.61353	0.04194
991.32777	0.04143
990.04200	0.04093
988.75623	0.04040
987.47046	0.03986
986.18469	0.03934
984.89892	0.03884
983.61315	0.03836
982.32738	0.03792
981.04161	0.03751
979.75585	0.03711
978.47008	0.03671
977.18431	0.03631
975.89854	0.03588
974.61277	0.03543
973.32700	0.03500
972.04123	0.03468
970.75546	0.03456
969.46970	0.03462
968.18393	0.03478
966.89816	0.03493
965.61239	0.03494
964.32662	0.03475
963.04085	0.03443
961.75508	0.03410
960.46931	0.03385
959.18354	0.03364
957.89778	0.03334
956.61201	0.03293
955.32624	0.03247
954.04047	0.03208
952.75470	0.03178
951.46893	0.03148
950.18316	0.03112
948.89739	0.03069
947.61163	0.03028
946.32586	0.02994
945.04009	0.02968
943.75432	0.02945
942.46855	0.02925
941.18278	0.02906
939.89701	0.02889
938.61124	0.02870
937.32547	0.02848
936.03971	0.02823
934.75394	0.02797
933.46817	0.02772
932.18240	0.02747
930.89663	0.02720
929.61086	0.02691
928.32509	0.02661
927.03932	0.02632
925.75356	0.02608
924.46779	0.02593
923.18202	0.02584
921.89625	0.02575
920.61048	0.02559
919.32471	0.02538
918.03894	0.02513
916.75317	0.02483
915.46740	0.02449
914.18164	0.02415
912.89587	0.02390
911.61010	0.02380
910.32433	0.02378
909.03856	0.02373
907.75279	0.02359
906.46702	0.02339
905.18125	0.02321
903.89549	0.02306
902.60972	0.02292
901.32395	0.02277
900.03818	0.02259
898.75241	0.02241
897.46664	0.02224
896.18087	0.02207
894.89510	0.02188
893.60933	0.02172
892.32357	0.02165
891.03780	0.02166
889.75203	0.02168
888.46626	0.02161
887.18049	0.02143
885.89472	0.02121
884.60895	0.02106
883.32318	0.02104
882.03742	0.02111
880.75165	0.02127
879.46588	0.02145
878.18011	0.02161
876.89434	0.02167
875.60857	0.02162
874.32280	0.02151
873.03703	0.02142
871.75126	0.02139
870.46550	0.02139
869.17973	0.02139
867.89396	0.02136
866.60819	0.02138
865.32242	0.02145
864.03665	0.02152
862.75088	0.02151
861.46511	0.02137
860.17935	0.02116
858.89358	0.02098
857.60781	0.02089
856.32204	0.02090
855.03627	0.02095
853.75050	0.02097
852.46473	0.02091
851.17896	0.02075
849.89319	0.02052
848.60743	0.02027
847.32166	0.02002
846.03589	0.01979
844.75012	0.01959
843.46435	0.01942
842.17858	0.01926
840.89281	0.01909
839.60704	0.01892
838.32128	0.01881
837.03551	0.01878
835.74974	0.01875
834.46397	0.01867
833.17820	0.01853
831.89243	0.01836
830.60666	0.01819
829.32089	0.01806
828.03512	0.01799
826.74936	0.01800
825.46359	0.01805
824.17782	0.01808
822.89205	0.01806
821.60628	0.01802
820.32051	0.01800
819.03474	0.01801
817.74897	0.01800
816.46321	0.01798
815.17744	0.01792
813.89167	0.01784
812.60590	0.01776
811.32013	0.01771
810.03436	0.01766
808.74859	0.01756
807.46282	0.01743
806.17705	0.01732
804.89129	0.01733
803.60552	0.01744
802.31975	0.01757
801.03398	0.01763
799.74821	0.01760
798.46244	0.01748
797.17667	0.01734
795.89090	0.01724
794.60513	0.01722
793.31937	0.01726
792.03360	0.01731
790.74783	0.01732
789.46206	0.01728
788.17629	0.01720
786.89052	0.01710
785.60475	0.01701
784.31898	0.01697
783.03322	0.01698
781.74745	0.01700
780.46168	0.01701
779.17591	0.01698
777.89014	0.01695
776.60437	0.01691
775.31860	0.01688
774.03283	0.01682
772.74706	0.01673
771.46130	0.01664
770.17553	0.01660
768.88976	0.01669
767.60399	0.01684
766.31822	0.01697
765.03245	0.01703
763.74668	0.01704
762.46091	0.01702
761.17515	0.01697
759.88938	0.01690
758.60361	0.01680
757.31784	0.01671
756.03207	0.01664
754.74630	0.01660
753.46053	0.01663
752.17476	0.01673
750.88899	0.01688
749.60323	0.01706
748.31746	0.01723
747.03169	0.01735
745.74592	0.01735
744.46015	0.01726
743.17438	0.01716
741.88861	0.01714
740.60284	0.01718
739.31708	0.01719
738.03131	0.01709
736.74554	0.01694
735.45977	0.01684
734.17400	0.01684
732.88823	0.01695
731.60246	0.01714
730.31669	0.01733
729.03092	0.01744
727.74516	0.01743
726.45939	0.01729
725.17362	0.01712
723.88785	0.01699
722.60208	0.01703
721.31631	0.01717
720.03054	0.01733
718.74477	0.01746
717.45901	0.01756
716.17324	0.01761
714.88747	0.01763
713.60170	0.01761
712.31593	0.01758
711.03016	0.01753
709.74439	0.01749
708.45862	0.01749
707.17285	0.01750
705.88709	0.01752
704.60132	0.01751
703.31555	0.01746
702.02978	0.01741
700.74401	0.01741
699.45824	0.01744
698.17247	0.01745
696.88670	0.01740
695.60094	0.01730
694.31517	0.01721
693.02940	0.01716
691.74363	0.01715
690.45786	0.01718
689.17209	0.01725
687.88632	0.01733
686.60055	0.01740
685.31478	0.01742
684.02902	0.01739
682.74325	0.01733
681.45748	0.01729
680.17171	0.01730
678.88594	0.01735
677.60017	0.01739
676.31440	0.01738
675.02863	0.01730
673.74287	0.01719
672.45710	0.01707
671.17133	0.01697
669.88556	0.01692
668.59979	0.01692
667.31402	0.01697
666.02825	0.01705
664.74248	0.01712
663.45671	0.01718
662.17095	0.01720
660.88518	0.01719
659.59941	0.01716
658.31364	0.01711
657.02787	0.01708
655.74210	0.01709
654.45633	0.01715
653.17056	0.01719
651.88480	0.01714
650.59903	0.01703
649.31326	0.01692
648.02749	0.01690
646.74172	0.01692
645.45595	0.01690
644.17018	0.01679
642.88441	0.01661
641.59864	0.01644
640.31288	0.01632
639.02711	0.01629
637.74134	0.01634
636.45557	0.01644
635.16980	0.01653
633.88403	0.01653
632.59826	0.01639
631.31249	0.01628
630.02673	0.01659
628.74096	0.01684
627.45519	0.01575
626.16942	0.01580
624.88365	0.01661
623.59788	0.01735
622.31211	0.01786
621.02634	0.01797
619.74057	0.01734
618.45481	0.01594
617.16904	0.01438
615.88327	0.01341
614.59750	0.01334
613.31173	0.01422
612.02596	0.01629
610.74019	0.01981
609.45442	0.02432
608.16866	0.02852
606.88289	0.03125
605.59712	0.03244
604.31135	0.03277
603.02558	0.03291
601.73981	0.03301
600.45404	0.03286
599.16827	0.03232
597.88250	0.03141
596.59674	0.03025
595.31097	0.02904
594.02520	0.02802
592.73943	0.02731
591.45366	0.02692
590.16789	0.02671
588.88212	0.02658
587.59635	0.02649
586.31059	0.02647
585.02482	0.02662
583.73905	0.02701
582.45328	0.02767
581.16751	0.02851
579.88174	0.02941
578.59597	0.03027
577.31020	0.03099
576.02443	0.03155
574.73867	0.03201
573.45290	0.03245
572.16713	0.03293
570.88136	0.03352
569.59559	0.03424
568.30982	0.03511
567.02405	0.03603
565.73828	0.03683
564.45251	0.03733
563.16675	0.03753
561.88098	0.03752
560.59521	0.03737
559.30944	0.03709
558.02367	0.03668
556.73790	0.03618
555.45213	0.03566
554.16636	0.03511
552.88060	0.03452
551.59483	0.03388
550.30906	0.03321
549.02329	0.03258
547.73752	0.03202
546.45175	0.03154
545.16598	0.03114
543.88021	0.03077
542.59444	0.03039
541.30868	0.03000
540.02291	0.02965
538.73714	0.02938
537.45137	0.02919
536.16560	0.02901
534.87983	0.02875
533.59406	0.02845
532.30829	0.02813
531.02253	0.02784
529.73676	0.02755
528.45099	0.02724
527.16522	0.02691
525.87945	0.02661
524.59368	0.02635
523.30791	0.02608
522.02214	0.02579
520.73637	0.02554
519.45061	0.02539
518.16484	0.02532
516.87907	0.02521
515.59330	0.02496
514.30753	0.02458
513.02176	0.02417
511.73599	0.02386
510.45022	0.02366
509.16446	0.02353
507.87869	0.02339
506.59292	0.02322
505.30715	0.02300
504.02138	0.02274
502.73561	0.02242
501.44984	0.02211
500.16407	0.02186
498.87830	0.02165
497.59254	0.02142
496.30677	0.02114
495.02100	0.02086
493.73523	0.02065
492.44946	0.02053
491.16369	0.02049
489.87792	0.02048
488.59215	0.02042
487.30639	0.02028
486.02062	0.02010
484.73485	0.01995
483.44908	0.01985
482.16331	0.01975
480.87754	0.01962
479.59177	0.01948
478.30600	0.01938
477.02023	0.01933
475.73447	0.01933
474.44870	0.01936
473.16293	0.01940
471.87716	0.01945
470.59139	0.01951
469.30562	0.01956
468.01985	0.01953
466.73408	0.01939
465.44832	0.01913
464.16255	0.01883
462.87678	0.01853
461.59101	0.01828
460.30524	0.01808
459.01947	0.01796
457.73370	0.01788
456.44793	0.01776
455.16216	0.01757
453.87640	0.01736
452.59063	0.01714
451.30486	0.01688
450.01909	0.01657
448.73332	0.01629
447.44755	0.01613
446.16178	0.01610
444.87601	0.01612
443.59025	0.01608
442.30448	0.01596
441.01871	0.01584
439.73294	0.01577
438.44717	0.01578
437.16140	0.01583
435.87563	0.01588
434.58986	0.01588
433.30409	0.01580
432.01833	0.01565
430.73256	0.01546
429.44679	0.01529
428.16102	0.01519
426.87525	0.01515
425.58948	0.01513
424.30371	0.01507
423.01794	0.01497
421.73218	0.01485
420.44641	0.01475
419.16064	0.01465
417.87487	0.01453
416.58910	0.01438
415.30333	0.01424
414.01756	0.01413
412.73179	0.01406
411.44602	0.01402
410.16026	0.01396
408.87449	0.01386
407.58872	0.01374
406.30295	0.01365
405.01718	0.01362
403.73141	0.01365
402.44564	0.01369
401.15987	0.01370
399.87411	0.01366
