3997.45528	0.02567
3996.16951	0.02477
3994.88374	0.02425
3993.59798	0.02425
3992.31221	0.02464
3991.02644	0.02513
3989.74067	0.02545
3988.45490	0.02548
3987.16913	0.02533
3985.88336	0.02514
3984.59759	0.02494
3983.31183	0.02478
3982.02606	0.02478
3980.74029	0.02512
3979.45452	0.02575
3978.16875	0.02626
3976.88298	0.02626
3975.59721	0.02573
3974.31144	0.02502
3973.02567	0.02452
3971.73991	0.02447
3970.45414	0.02490
3969.16837	0.02564
3967.88260	0.02634
3966.59683	0.02658
3965.31106	0.02622
3964.02529	0.02542
3962.73952	0.02449
3961.45376	0.02376
3960.16799	0.02343
3958.88222	0.02352
3957.59645	0.02389
3956.31068	0.02420
3955.02491	0.02422
3953.73914	0.02403
3952.45337	0.02392
3951.16760	0.02402
3949.88184	0.02424
3948.59607	0.02444
3947.31030	0.02471
3946.02453	0.02522
3944.73876	0.02596
3943.45299	0.02665
3942.16722	0.02693
3940.88145	0.02671
3939.59569	0.02619
3938.30992	0.02566
3937.02415	0.02519
3935.73838	0.02478
3934.45261	0.02451
3933.16684	0.02447
3931.88107	0.02456
3930.59530	0.02462
3929.30953	0.02461
3928.02377	0.02469
3926.73800	0.02493
3925.45223	0.02509
3924.16646	0.02487
3922.88069	0.02431
3921.59492	0.02383
3920.30915	0.02372
3919.02338	0.02393
3917.73762	0.02417
3916.45185	0.02432
3915.16608	0.02451
3913.88031	0.02484
3912.59454	0.02519
3911.30877	0.02534
3910.02300	0.02526
3908.73723	0.02514
3907.45146	0.02519
3906.16570	0.02539
3904.87993	0.02554
3903.59416	0.02548
3902.30839	0.02515
3901.02262	0.02455
3899.73685	0.02372
3898.45108	0.02281
3897.16531	0.02207
3895.87955	0.02171
3894.59378	0.02180
3893.30801	0.02230
3892.02224	0.02300
3890.73647	0.02361
3889.45070	0.02398
3888.16493	0.02416
3886.87916	0.02418
3885.59339	0.02393
3884.30763	0.02349
3883.02186	0.02317
3881.73609	0.02309
3880.45032	0.02310
3879.16455	0.02297
3877.87878	0.02281
3876.59301	0.02294
3875.30724	0.02351
3874.02148	0.02429
3872.73571	0.02491
3871.44994	0.02511
3870.16417	0.02480
3868.87840	0.02411
3867.59263	0.02343
3866.30686	0.02308
3865.02109	0.02306
3863.73532	0.02322
3862.44956	0.02350
3861.16379	0.02389
3859.87802	0.02424
3858.59225	0.02440
3857.30648	0.02438
3856.02071	0.02428
3854.73494	0.02406
3853.44917	0.02359
3852.16341	0.02304
3850.87764	0.02285
3849.59187	0.02323
3848.30610	0.02391
3847.02033	0.02446
3845.73456	0.02463
3844.44879	0.02439
3843.16302	0.02390
3841.87725	0.02338
3840.59149	0.02304
3839.30572	0.02301
3838.01995	0.02319
3836.73418	0.02343
3835.44841	0.02372
3834.16264	0.02406
3832.87687	0.02431
3831.59110	0.02424
3830.30534	0.02382
3829.01957	0.02323
3827.73380	0.02274
3826.44803	0.02252
3825.16226	0.02258
3823.87649	0.02284
3822.59072	0.02305
3821.30495	0.02296
3820.01918	0.02261
3818.73342	0.02237
3817.44765	0.02243
3816.16188	0.02247
3814.87611	0.02226
3813.59034	0.02202
3812.30457	0.02204
3811.01880	0.02223
3809.73303	0.02232
3808.44726	0.02222
3807.16150	0.02199
3805.87573	0.02186
3804.58996	0.02223
3803.30419	0.02332
3802.01842	0.02467
3800.73265	0.02550
3799.44688	0.02546
3798.16111	0.02483
3796.87535	0.02417
3795.58958	0.02388
3794.30381	0.02392
3793.01804	0.02393
3791.73227	0.02360
3790.44650	0.02299
3789.16073	0.02247
3787.87496	0.02225
3786.58919	0.02229
3785.30343	0.02238
3784.01766	0.02248
3782.73189	0.02268
3781.44612	0.02308
3780.16035	0.02354
3778.87458	0.02377
3777.58881	0.02363
3776.30304	0.02329
3775.01728	0.02299
3773.73151	0.02277
3772.44574	0.02252
3771.15997	0.02217
3769.87420	0.02179
3768.58843	0.02158
3767.30266	0.02164
3766.01689	0.02185
3764.73112	0.02200
3763.44536	0.02199
3762.15959	0.02191
3760.87382	0.02182
3759.58805	0.02170
3758.30228	0.02155
3757.01651	0.02141
3755.73074	0.02132
3754.44497	0.02139
3753.15921	0.02167
3751.87344	0.02201
3750.58767	0.02216
3749.30190	0.02195
3748.01613	0.02150
3746.73036	0.02114
3745.44459	0.02090
3744.15882	0.02040
3742.87305	0.01964
3741.58729	0.01914
3740.30152	0.01915
3739.01575	0.01950
3737.72998	0.01998
3736.44421	0.02054
3735.15844	0.02113
3733.87267	0.02167
3732.58690	0.02204
3731.30114	0.02214
3730.01537	0.02204
3728.72960	0.02184
3727.44383	0.02156
3726.15806	0.02122
3724.87229	0.02102
3723.58652	0.02107
3722.30075	0.02115
3721.01498	0.02102
3719.72922	0.02071
3718.44345	0.02053
3717.15768	0.02068
3715.87191	0.02110
3714.58614	0.02165
3713.30037	0.02223
3712.01460	0.02275
3710.72883	0.02305
3709.44307	0.02299
3708.15730	0.02252
3706.87153	0.02177
3705.58576	0.02099
3704.29999	0.02042
3703.01422	0.02014
3701.72845	0.02009
3700.44268	0.02014
3699.15691	0.02027
3697.87115	0.02044
3696.58538	0.02063
3695.29961	0.02098
3694.01384	0.02155
3692.72807	0.02211
3691.44230	0.02238
3690.15653	0.02232
3688.87076	0.02203
3687.58500	0.02163
3686.29923	0.02132
3685.01346	0.02125
3683.72769	0.02131
3682.44192	0.02137
3681.15615	0.02136
3679.87038	0.02136
3678.58461	0.02145
3677.29884	0.02159
3676.01308	0.02151
3674.72731	0.02108
3673.44154	0.02066
3672.15577	0.02066
3670.87000	0.02099
3669.58423	0.02121
3668.29846	0.02125
3667.01269	0.02131
3665.72693	0.02155
3664.44116	0.02193
3663.15539	0.02230
3661.86962	0.02249
3660.58385	0.02245
3659.29808	0.02235
3658.01231	0.02247
3656.72654	0.02285
3655.44077	0.02330
3654.15501	0.02364
3652.86924	0.02384
3651.58347	0.02380
3650.29770	0.02340
3649.01193	0.02271
3647.72616	0.02208
3646.44039	0.02182
3645.15462	0.02202
3643.86886	0.02252
3642.58309	0.02312
3641.29732	0.02371
3640.01155	0.02425
3638.72578	0.02472
3637.44001	0.02509
3636.15424	0.02547
3634.86847	0.02592
3633.58270	0.02638
3632.29694	0.02669
3631.01117	0.02675
3629.72540	0.02650
3628.43963	0.02600
3627.15386	0.02548
3625.86809	0.02526
3624.58232	0.02542
3623.29655	0.02583
3622.01079	0.02630
3620.72502	0.02657
3619.43925	0.02650
3618.15348	0.02618
3616.86771	0.02593
3615.58194	0.02589
3614.29617	0.02591
3613.01040	0.02576
3611.72463	0.02548
3610.43887	0.02535
3609.15310	0.02553
3607.86733	0.02589
3606.58156	0.02627
3605.29579	0.02658
3604.01002	0.02684
3602.72425	0.02707
3601.43848	0.02727
3600.15272	0.02748
3598.86695	0.02773
3597.58118	0.02797
3596.29541	0.02815
3595.00964	0.02829
3593.72387	0.02853
3592.43810	0.02891
3591.15233	0.02932
3589.86656	0.02966
3588.58080	0.02984
3587.29503	0.02993
3586.00926	0.03009
3584.72349	0.03037
3583.43772	0.03061
3582.15195	0.03061
3580.86618	0.03038
3579.58041	0.03007
3578.29464	0.02991
3577.00888	0.03000
3575.72311	0.03033
3574.43734	0.03078
3573.15157	0.03123
3571.86580	0.03164
3570.58003	0.03202
3569.29426	0.03236
3568.00849	0.03260
3566.72273	0.03274
3565.43696	0.03285
3564.15119	0.03304
3562.86542	0.03329
3561.57965	0.03347
3560.29388	0.03347
3559.00811	0.03327
3557.72234	0.03299
3556.43657	0.03280
3555.15081	0.03290
3553.86504	0.03330
3552.57927	0.03381
3551.29350	0.03417
3550.00773	0.03435
3548.72196	0.03456
3547.43619	0.03494
3546.15042	0.03545
3544.86466	0.03594
3543.57889	0.03630
3542.29312	0.03648
3541.00735	0.03643
3539.72158	0.03625
3538.43581	0.03615
3537.15004	0.03629
3535.86427	0.03665
3534.57850	0.03712
3533.29274	0.03757
3532.00697	0.03790
3530.72120	0.03804
3529.43543	0.03799
3528.14966	0.03791
3526.86389	0.03799
3525.57812	0.03831
3524.29235	0.03876
3523.00659	0.03915
3521.72082	0.03941
3520.43505	0.03959
3519.14928	0.03973
3517.86351	0.03983
3516.57774	0.03992
3515.29197	0.04007
3514.00620	0.04038
3512.72043	0.04085
3511.43467	0.04140
3510.14890	0.04192
3508.86313	0.04227
3507.57736	0.04241
3506.29159	0.04242
3505.00582	0.04241
3503.72005	0.04241
3502.43428	0.04229
3501.14852	0.04203
3499.86275	0.04182
3498.57698	0.04191
3497.29121	0.04238
3496.00544	0.04305
3494.71967	0.04366
3493.43390	0.04407
3492.14813	0.04427
3490.86236	0.04429
3489.57660	0.04419
3488.29083	0.04408
3487.00506	0.04409
3485.71929	0.04426
3484.43352	0.04451
3483.14775	0.04475
3481.86198	0.04499
3480.57621	0.04533
3479.29045	0.04580
3478.00468	0.04629
3476.71891	0.04667
3475.43314	0.04683
3474.14737	0.04682
3472.86160	0.04677
3471.57583	0.04680
3470.29006	0.04696
3469.00429	0.04717
3467.71853	0.04731
3466.43276	0.04724
3465.14699	0.04696
3463.86122	0.04668
3462.57545	0.04664
3461.28968	0.04691
3460.00391	0.04733
3458.71814	0.04775
3457.43238	0.04806
3456.14661	0.04823
3454.86084	0.04828
3453.57507	0.04827
3452.28930	0.04829
3451.00353	0.04837
3449.71776	0.04853
3448.43199	0.04873
3447.14622	0.04891
3445.86046	0.04902
3444.57469	0.04912
3443.28892	0.04939
3442.00315	0.04986
3440.71738	0.05041
3439.43161	0.05088
3438.14584	0.05123
3436.86007	0.05145
3435.57431	0.05148
3434.28854	0.05131
3433.00277	0.05109
3431.71700	0.05100
3430.43123	0.05117
3429.14546	0.05155
3427.85969	0.05203
3426.57392	0.05248
3425.28815	0.05280
3424.00239	0.05288
3422.71662	0.05271
3421.43085	0.05242
3420.14508	0.05227
3418.85931	0.05246
3417.57354	0.05296
3416.28777	0.05352
3415.00200	0.05385
3413.71624	0.05388
3412.43047	0.05379
3411.14470	0.05380
3409.85893	0.05393
3408.57316	0.05404
3407.28739	0.05407
3406.00162	0.05416
3404.71585	0.05447
3403.43008	0.05494
3402.14432	0.05534
3400.85855	0.05551
3399.57278	0.05550
3398.28701	0.05557
3397.00124	0.05589
3395.71547	0.05637
3394.42970	0.05681
3393.14393	0.05705
3391.85817	0.05711
3390.57240	0.05711
3389.28663	0.05721
3388.00086	0.05747
3386.71509	0.05787
3385.42932	0.05824
3384.14355	0.05840
3382.85778	0.05827
3381.57201	0.05806
3380.28625	0.05813
3379.00048	0.05864
3377.71471	0.05938
3376.42894	0.05996
3375.14317	0.06020
3373.85740	0.06020
3372.57163	0.06017
3371.28586	0.06024
3370.00010	0.06046
3368.71433	0.06084
3367.42856	0.06132
3366.14279	0.06175
3364.85702	0.06205
3363.57125	0.06225
3362.28548	0.06246
3360.99971	0.06272
3359.71394	0.06298
3358.42818	0.06323
3357.14241	0.06352
3355.85664	0.06391
3354.57087	0.06433
3353.28510	0.06464
3351.99933	0.06480
3350.71356	0.06490
3349.42779	0.06512
3348.14202	0.06554
3346.85626	0.06614
3345.57049	0.06679
3344.28472	0.06734
3342.99895	0.06765
3341.71318	0.06774
3340.42741	0.06776
3339.14164	0.06799
3337.85587	0.06858
3336.57011	0.06940
3335.28434	0.07009
3333.99857	0.07032
3332.71280	0.07005
3331.42703	0.06959
3330.14126	0.06931
3328.85549	0.06936
3327.56972	0.06970
3326.28395	0.07021
3324.99819	0.07082
3323.71242	0.07144
3322.42665	0.07194
3321.14088	0.07224
3319.85511	0.07237
3318.56934	0.07242
3317.28357	0.07241
3315.99780	0.07233
3314.71204	0.07225
3313.42627	0.07232
3312.14050	0.07271
3310.85473	0.07350
3309.56896	0.07454
3308.28319	0.07549
3306.99742	0.07602
3305.71165	0.07604
3304.42588	0.07573
3303.14012	0.07547
3301.85435	0.07549
3300.56858	0.07576
3299.28281	0.07609
3297.99704	0.07623
3296.71127	0.07610
3295.42550	0.07577
3294.13973	0.07541
3292.85397	0.07522
3291.56820	0.07528
3290.28243	0.07552
3288.99666	0.07579
3287.71089	0.07601
3286.42512	0.07621
3285.13935	0.07641
3283.85358	0.07653
3282.56781	0.07647
3281.28205	0.07632
3279.99628	0.07625
3278.71051	0.07633
3277.42474	0.07640
3276.13897	0.07630
3274.85320	0.07599
3273.56743	0.07558
3272.28166	0.07518
3270.99590	0.07487
3269.71013	0.07471
3268.42436	0.07468
3267.13859	0.07464
3265.85282	0.07446
3264.56705	0.07409
3263.28128	0.07361
3261.99551	0.07313
3260.70974	0.07268
3259.42398	0.07234
3258.13821	0.07220
3256.85244	0.07231
3255.56667	0.07257
3254.28090	0.07272
3252.99513	0.07263
3251.70936	0.07233
3250.42359	0.07201
3249.13783	0.07178
3247.85206	0.07154
3246.56629	0.07117
3245.28052	0.07074
3243.99475	0.07042
3242.70898	0.07026
3241.42321	0.07017
3240.13744	0.07002
3238.85167	0.06983
3237.56591	0.06965
3236.28014	0.06951
3234.99437	0.06941
3233.70860	0.06929
3232.42283	0.06907
3231.13706	0.06879
3229.85129	0.06864
3228.56552	0.06873
3227.27976	0.06888
3225.99399	0.06879
3224.70822	0.06835
3223.42245	0.06783
3222.13668	0.06759
3220.85091	0.06776
3219.56514	0.06806
3218.27937	0.06813
3216.99360	0.06786
3215.70784	0.06750
3214.42207	0.06739
3213.13630	0.06758
3211.85053	0.06779
3210.56476	0.06767
3209.27899	0.06706
3207.99322	0.06613
3206.70745	0.06520
3205.42169	0.06458
3204.13592	0.06439
3202.85015	0.06457
3201.56438	0.06492
3200.27861	0.06524
3198.99284	0.06538
3197.70707	0.06534
3196.42130	0.06517
3195.13553	0.06498
3193.84977	0.06486
3192.56400	0.06484
3191.27823	0.06484
3189.99246	0.06476
3188.70669	0.06463
3187.42092	0.06450
3186.13515	0.06438
3184.84938	0.06417
3183.56362	0.06377
3182.27785	0.06323
3180.99208	0.06277
3179.70631	0.06258
3178.42054	0.06268
3177.13477	0.06285
3175.84900	0.06284
3174.56323	0.06258
3173.27746	0.06226
3171.99170	0.06210
3170.70593	0.06211
3169.42016	0.06209
3168.13439	0.06184
3166.84862	0.06135
3165.56285	0.06077
3164.27708	0.06021
3162.99131	0.05964
3161.70555	0.05908
3160.41978	0.05861
3159.13401	0.05835
3157.84824	0.05827
3156.56247	0.05823
3155.27670	0.05813
3153.99093	0.05803
3152.70516	0.05796
3151.41939	0.05791
3150.13363	0.05785
3148.84786	0.05782
3147.56209	0.05787
3146.27632	0.05791
3144.99055	0.05777
3143.70478	0.05742
3142.41901	0.05696
3141.13324	0.05656
3139.84748	0.05626
3138.56171	0.05605
3137.27594	0.05594
3135.99017	0.05596
3134.70440	0.05601
3133.41863	0.05592
3132.13286	0.05569
3130.84709	0.05545
3129.56132	0.05531
3128.27556	0.05522
3126.98979	0.05509
3125.70402	0.05488
3124.41825	0.05468
3123.13248	0.05456
3121.84671	0.05450
3120.56094	0.05447
3119.27517	0.05450
3117.98940	0.05462
3116.70364	0.05476
3115.41787	0.05475
3114.13210	0.05445
3112.84633	0.05386
3111.56056	0.05324
3110.27479	0.05292
3108.98902	0.05311
3107.70325	0.05369
3106.41749	0.05434
3105.13172	0.05472
3103.84595	0.05471
3102.56018	0.05443
3101.27441	0.05417
3099.98864	0.05411
3098.70287	0.05422
3097.41710	0.05437
3096.13133	0.05446
3094.84557	0.05452
3093.55980	0.05460
3092.27403	0.05474
3090.98826	0.05493
3089.70249	0.05518
3088.41672	0.05539
3087.13095	0.05540
3085.84518	0.05518
3084.55942	0.05491
3083.27365	0.05479
3081.98788	0.05485
3080.70211	0.05502
3079.41634	0.05521
3078.13057	0.05535
3076.84480	0.05540
3075.55903	0.05537
3074.27326	0.05533
3072.98750	0.05535
3071.70173	0.05543
3070.41596	0.05552
3069.13019	0.05556
3067.84442	0.05553
3066.55865	0.05544
3065.27288	0.05539
3063.98711	0.05541
3062.70135	0.05543
3061.41558	0.05543
3060.12981	0.05548
3058.84404	0.05559
3057.55827	0.05564
3056.27250	0.05554
3054.98673	0.05533
3053.70096	0.05517
3052.41519	0.05504
3051.12943	0.05476
3049.84366	0.05419
3048.55789	0.05343
3047.27212	0.05276
3045.98635	0.05240
3044.70058	0.05239
3043.41481	0.05264
3042.12904	0.05303
3040.84328	0.05343
3039.55751	0.05367
3038.27174	0.05362
3036.98597	0.05332
3035.70020	0.05295
3034.41443	0.05263
3033.12866	0.05238
3031.84289	0.05216
3030.55712	0.05186
3029.27136	0.05140
3027.98559	0.05081
3026.69982	0.05022
3025.41405	0.04985
3024.12828	0.04978
3022.84251	0.04987
3021.55674	0.04991
3020.27097	0.04981
3018.98521	0.04965
3017.69944	0.04956
3016.41367	0.04960
3015.12790	0.04969
3013.84213	0.04976
3012.55636	0.04973
3011.27059	0.04962
3009.98482	0.04946
3008.69905	0.04926
3007.41329	0.04904
3006.12752	0.04885
3004.84175	0.04873
3003.55598	0.04865
3002.27021	0.04856
3000.98444	0.04845
2999.69867	0.04836
2998.41290	0.04843
2997.12714	0.04854
2995.84137	0.04866
2994.55560	0.04884
2993.26983	0.04902
2991.98406	0.04906
2990.69829	0.04890
2989.41252	0.04870
2988.12675	0.04864
2986.84098	0.04877
2985.55522	0.04905
2984.26945	0.04941
2982.98368	0.04977
2981.69791	0.05011
2980.41214	0.05049
2979.12637	0.05095
2977.84060	0.05145
2976.55483	0.05189
2975.26907	0.05221
2973.98330	0.05237
2972.69753	0.05236
2971.41176	0.05225
2970.12599	0.05219
2968.84022	0.05229
2967.55445	0.05252
2966.26868	0.05279
2964.98291	0.05310
2963.69715	0.05344
2962.41138	0.05375
2961.12561	0.05398
2959.83984	0.05416
2958.55407	0.05436
2957.26830	0.05461
2955.98253	0.05486
2954.69676	0.05497
2953.41100	0.05487
2952.12523	0.05462
2950.83946	0.05441
2949.55369	0.05434
2948.26792	0.05438
2946.98215	0.05446
2945.69638	0.05454
2944.41061	0.05467
2943.12484	0.05487
2941.83908	0.05514
2940.55331	0.05534
2939.26754	0.05540
2937.98177	0.05540
2936.69600	0.05550
2935.41023	0.05574
2934.12446	0.05600
2932.83869	0.05620
2931.55293	0.05638
2930.26716	0.05663
2928.98139	0.05693
2927.69562	0.05714
2926.40985	0.05719
2925.12408	0.05703
2923.83831	0.05675
2922.55254	0.05645
2921.26677	0.05621
2919.98101	0.05599
2918.69524	0.05570
2917.40947	0.05523
2916.12370	0.05458
2914.83793	0.05387
2913.55216	0.05328
2912.26639	0.05290
2910.98062	0.05270
2909.69486	0.05252
2908.40909	0.05223
2907.12332	0.05180
2905.83755	0.05132
2904.55178	0.05088
2903.26601	0.05054
2901.98024	0.05035
2900.69447	0.05033
2899.40870	0.05044
2898.12294	0.05059
2896.83717	0.05061
2895.55140	0.05043
2894.26563	0.05007
2892.97986	0.04963
2891.69409	0.04922
2890.40832	0.04893
2889.12255	0.04884
2887.83678	0.04896
2886.55102	0.04921
2885.26525	0.04948
2883.97948	0.04965
2882.69371	0.04963
2881.40794	0.04936
2880.12217	0.04898
2878.83640	0.04874
2877.55063	0.04879
2876.26487	0.04903
2874.97910	0.04922
2873.69333	0.04923
2872.40756	0.04916
2871.12179	0.04910
2869.83602	0.04906
2868.55025	0.04895
2867.26448	0.04870
2865.97871	0.04834
2864.69295	0.04808
2863.40718	0.04806
2862.12141	0.04823
2860.83564	0.04831
2859.54987	0.04808
2858.26410	0.04762
2856.97833	0.04719
2855.69256	0.04703
2854.40680	0.04716
2853.12103	0.04741
2851.83526	0.04755
2850.54949	0.04743
2849.26372	0.04710
2847.97795	0.04670
2846.69218	0.04628
2845.40641	0.04583
2844.12064	0.04531
2842.83488	0.04484
2841.54911	0.04453
2840.26334	0.04437
2838.97757	0.04424
2837.69180	0.04403
2836.40603	0.04375
2835.12026	0.04355
2833.83449	0.04350
2832.54873	0.04354
2831.26296	0.04352
2829.97719	0.04338
2828.69142	0.04316
2827.40565	0.04294
2826.11988	0.04272
2824.83411	0.04245
2823.54834	0.04215
2822.26257	0.04191
2820.97681	0.04183
2819.69104	0.04189
2818.40527	0.04202
2817.11950	0.04206
2815.83373	0.04192
2814.54796	0.04163
2813.26219	0.04135
2811.97642	0.04130
2810.69066	0.04154
2809.40489	0.04187
2808.11912	0.04204
2806.83335	0.04197
2805.54758	0.04177
2804.26181	0.04160
2802.97604	0.04151
2801.69027	0.04144
2800.40450	0.04131
2799.11874	0.04110
2797.83297	0.04083
2796.54720	0.04056
2795.26143	0.04030
2793.97566	0.04009
2792.68989	0.03998
2791.40412	0.04002
2790.11835	0.04015
2788.83259	0.04022
2787.54682	0.04017
2786.26105	0.04009
2784.97528	0.04007
2783.68951	0.04010
2782.40374	0.04012
2781.11797	0.04010
2779.83220	0.04008
2778.54643	0.04008
2777.26067	0.04004
2775.97490	0.03994
2774.68913	0.03982
2773.40336	0.03975
2772.11759	0.03974
2770.83182	0.03972
2769.54605	0.03962
2768.26028	0.03942
2766.97452	0.03921
2765.68875	0.03908
2764.40298	0.03899
2763.11721	0.03880
2761.83144	0.03844
2760.54567	0.03800
2759.25990	0.03768
2757.97413	0.03757
2756.68836	0.03761
2755.40260	0.03768
2754.11683	0.03773
2752.83106	0.03785
2751.54529	0.03805
2750.25952	0.03824
2748.97375	0.03828
2747.68798	0.03812
2746.40221	0.03785
2745.11645	0.03762
2743.83068	0.03748
2742.54491	0.03738
2741.25914	0.03725
2739.97337	0.03703
2738.68760	0.03676
2737.40183	0.03657
2736.11606	0.03656
2734.83029	0.03667
2733.54453	0.03679
2732.25876	0.03683
2730.97299	0.03681
2729.68722	0.03679
2728.40145	0.03678
2727.11568	0.03672
2725.82991	0.03659
2724.54414	0.03642
2723.25838	0.03631
2721.97261	0.03634
2720.68684	0.03649
2719.40107	0.03663
2718.11530	0.03663
2716.82953	0.03649
2715.54376	0.03633
2714.25799	0.03626
2712.97222	0.03626
2711.68646	0.03620
2710.40069	0.03599
2709.11492	0.03568
2707.82915	0.03540
2706.54338	0.03528
2705.25761	0.03531
2703.97184	0.03538
2702.68607	0.03540
2701.40031	0.03537
2700.11454	0.03530
2698.82877	0.03521
2697.54300	0.03510
2696.25723	0.03497
2694.97146	0.03487
2693.68569	0.03483
2692.39992	0.03488
2691.11415	0.03497
2689.82839	0.03502
2688.54262	0.03499
2687.25685	0.03490
2685.97108	0.03475
2684.68531	0.03453
2683.39954	0.03429
2682.11377	0.03414
2680.82800	0.03413
2679.54224	0.03421
2678.25647	0.03429
2676.97070	0.03432
2675.68493	0.03423
2674.39916	0.03403
2673.11339	0.03381
2671.82762	0.03370
2670.54185	0.03379
2669.25608	0.03408
2667.97032	0.03440
2666.68455	0.03454
2665.39878	0.03440
2664.11301	0.03407
2662.82724	0.03378
2661.54147	0.03368
2660.25570	0.03375
2658.96993	0.03390
2657.68417	0.03404
2656.39840	0.03408
2655.11263	0.03397
2653.82686	0.03370
2652.54109	0.03337
2651.25532	0.03311
2649.96955	0.03297
2648.68378	0.03292
2647.39801	0.03290
2646.11225	0.03292
2644.82648	0.03297
2643.54071	0.03299
2642.25494	0.03294
2640.96917	0.03282
2639.68340	0.03268
2638.39763	0.03253
2637.11186	0.03232
2635.82609	0.03206
2634.54033	0.03176
2633.25456	0.03141
2631.96879	0.03102
2630.68302	0.03063
2629.39725	0.03033
2628.11148	0.03022
2626.82571	0.03033
2625.53994	0.03059
2624.25418	0.03088
2622.96841	0.03112
2621.68264	0.03123
2620.39687	0.03119
2619.11110	0.03106
2617.82533	0.03094
2616.53956	0.03085
2615.25379	0.03071
2613.96802	0.03040
2612.68226	0.02990
2611.39649	0.02935
2610.11072	0.02898
2608.82495	0.02888
2607.53918	0.02893
2606.25341	0.02894
2604.96764	0.02882
2603.68187	0.02864
2602.39611	0.02850
2601.11034	0.02843
2599.82457	0.02838
2598.53880	0.02834
2597.25303	0.02832
2595.96726	0.02830
2594.68149	0.02824
2593.39572	0.02818
2592.10995	0.02820
2590.82419	0.02836
2589.53842	0.02851
2588.25265	0.02850
2586.96688	0.02829
2585.68111	0.02808
2584.39534	0.02798
2583.10957	0.02794
2581.82380	0.02778
2580.53804	0.02753
2579.25227	0.02745
2577.96650	0.02767
2576.68073	0.02804
2575.39496	0.02826
2574.10919	0.02814
2572.82342	0.02773
2571.53765	0.02726
2570.25188	0.02694
2568.96612	0.02690
2567.68035	0.02710
2566.39458	0.02740
2565.10881	0.02770
2563.82304	0.02795
2562.53727	0.02810
2561.25150	0.02811
2559.96573	0.02796
2558.67997	0.02768
2557.39420	0.02741
2556.10843	0.02721
2554.82266	0.02698
2553.53689	0.02664
2552.25112	0.02627
2550.96535	0.02606
2549.67958	0.02599
2548.39381	0.02585
2547.10805	0.02551
2545.82228	0.02510
2544.53651	0.02492
2543.25074	0.02518
2541.96497	0.02575
2540.67920	0.02626
2539.39343	0.02644
2538.10766	0.02636
2536.82190	0.02628
2535.53613	0.02627
2534.25036	0.02618
2532.96459	0.02588
2531.67882	0.02545
2530.39305	0.02507
2529.10728	0.02488
2527.82151	0.02487
2526.53574	0.02488
2525.24998	0.02473
2523.96421	0.02441
2522.67844	0.02405
2521.39267	0.02385
2520.10690	0.02392
2518.82113	0.02430
2517.53536	0.02494
2516.24959	0.02569
2514.96383	0.02629
2513.67806	0.02645
2512.39229	0.02611
2511.10652	0.02554
2509.82075	0.02509
2508.53498	0.02490
2507.24921	0.02487
2505.96344	0.02484
2504.67767	0.02471
2503.39191	0.02452
2502.10614	0.02438
2500.82037	0.02443
2499.53460	0.02458
2498.24883	0.02465
2496.96306	0.02451
2495.67729	0.02431
2494.39152	0.02430
2493.10576	0.02459
2491.81999	0.02504
2490.53422	0.02536
2489.24845	0.02528
2487.96268	0.02475
2486.67691	0.02401
2485.39114	0.02339
2484.10537	0.02307
2482.81960	0.02301
2481.53384	0.02305
2480.24807	0.02313
2478.96230	0.02325
2477.67653	0.02333
2476.39076	0.02328
2475.10499	0.02318
2473.81922	0.02322
2472.53345	0.02346
2471.24769	0.02371
2469.96192	0.02387
2468.67615	0.02404
2467.39038	0.02436
2466.10461	0.02470
2464.81884	0.02482
2463.53307	0.02471
2462.24730	0.02454
2460.96153	0.02441
2459.67577	0.02423
2458.39000	0.02394
2457.10423	0.02366
2455.81846	0.02355
2454.53269	0.02362
2453.24692	0.02378
2451.96115	0.02392
2450.67538	0.02399
2449.38962	0.02403
2448.10385	0.02409
2446.81808	0.02413
2445.53231	0.02409
2444.24654	0.02400
2442.96077	0.02405
2441.67500	0.02433
2440.38923	0.02469
2439.10346	0.02488
2437.81770	0.02477
2436.53193	0.02445
2435.24616	0.02408
2433.96039	0.02376
2432.67462	0.02354
2431.38885	0.02340
2430.10308	0.02324
2428.81731	0.02302
2427.53155	0.02280
2426.24578	0.02265
2424.96001	0.02263
2423.67424	0.02272
2422.38847	0.02289
2421.10270	0.02308
2419.81693	0.02324
2418.53116	0.02336
2417.24539	0.02345
2415.95963	0.02350
2414.67386	0.02342
2413.38809	0.02320
2412.10232	0.02294
2410.81655	0.02274
2409.53078	0.02256
2408.24501	0.02229
2406.95924	0.02194
2405.67347	0.02171
2404.38771	0.02180
2403.10194	0.02222
2401.81617	0.02274
2400.53040	0.02313
2399.24463	0.02328
2397.95886	0.02325
2396.67309	0.02313
2395.38732	0.02303
2394.10156	0.02300
2392.81579	0.02306
2391.53002	0.02318
2390.24425	0.02328
2388.95848	0.02330
2387.67271	0.02319
2386.38694	0.02297
2385.10117	0.02271
2383.81540	0.02244
2382.52964	0.02221
2381.24387	0.02211
2379.95810	0.02227
2378.67233	0.02259
2377.38656	0.02301
2376.10079	0.02348
2374.81502	0.02381
2373.52925	0.02369
2372.24349	0.02324
2370.95772	0.02293
2369.67195	0.02293
2368.38618	0.02311
2367.10041	0.02318
2365.81464	0.02319
2364.52887	0.02318
2363.24310	0.02329
2361.95733	0.02352
2360.67157	0.02371
2359.38580	0.02383
2358.10003	0.02391
2356.81426	0.02395
2355.52849	0.02402
2354.24272	0.02417
2352.95695	0.02427
2351.67118	0.02401
2350.38542	0.02364
2349.09965	0.02354
2347.81388	0.02367
2346.52811	0.02379
2345.24234	0.02405
2343.95657	0.02462
2342.67080	0.02537
2341.38503	0.02525
2340.09926	0.02447
2338.81350	0.02429
2337.52773	0.02466
2336.24196	0.02433
2334.95619	0.02370
2333.67042	0.02376
2332.38465	0.02425
2331.09888	0.02379
2329.81311	0.02361
2328.52735	0.02407
2327.24158	0.02423
2325.95581	0.02428
2324.67004	0.02439
2323.38427	0.02436
2322.09850	0.02383
2320.81273	0.02348
2319.52696	0.02323
2318.24119	0.02302
2316.95543	0.02289
2315.66966	0.02277
2314.38389	0.02280
2313.09812	0.02286
2311.81235	0.02269
2310.52658	0.02240
2309.24081	0.02206
2307.95504	0.02168
2306.66928	0.02142
2305.38351	0.02128
2304.09774	0.02132
2302.81197	0.02147
2301.52620	0.02160
2300.24043	0.02164
2298.95466	0.02156
2297.66889	0.02138
2296.38312	0.02107
2295.09736	0.02061
2293.81159	0.02014
2292.52582	0.01989
2291.24005	0.01998
2289.95428	0.02028
2288.66851	0.02052
2287.38274	0.02054
2286.09697	0.02046
2284.81121	0.02047
2283.52544	0.02061
2282.23967	0.02073
2280.95390	0.02066
2279.66813	0.02037
2278.38236	0.01997
2277.09659	0.01964
2275.81082	0.01952
2274.52505	0.01963
2273.23929	0.01986
2271.95352	0.02006
2270.66775	0.02008
2269.38198	0.01980
2268.09621	0.01921
2266.81044	0.01856
2265.52467	0.01818
2264.23890	0.01827
2262.95314	0.01867
2261.66737	0.01910
2260.38160	0.01935
2259.09583	0.01932
2257.81006	0.01891
2256.52429	0.01816
2255.23852	0.01728
2253.95275	0.01663
2252.66698	0.01641
2251.38122	0.01648
2250.09545	0.01653
2248.80968	0.01643
2247.52391	0.01623
2246.23814	0.01613
2244.95237	0.01618
2243.66660	0.01633
2242.38083	0.01653
2241.09507	0.01674
2239.80930	0.01689
2238.52353	0.01683
2237.23776	0.01644
2235.95199	0.01580
2234.66622	0.01520
2233.38045	0.01493
2232.09468	0.01495
2230.80891	0.01512
2229.52315	0.01540
2228.23738	0.01579
2226.95161	0.01617
2225.66584	0.01624
2224.38007	0.01582
2223.09430	0.01510
2221.80853	0.01442
2220.52276	0.01391
2219.23700	0.01351
2217.95123	0.01323
2216.66546	0.01328
2215.37969	0.01374
2214.09392	0.01428
2212.80815	0.01439
2211.52238	0.01399
2210.23661	0.01343
2208.95084	0.01316
2207.66508	0.01332
2206.37931	0.01363
2205.09354	0.01372
2203.80777	0.01355
2202.52200	0.01350
2201.23623	0.01379
2199.95046	0.01417
2198.66469	0.01426
2197.37893	0.01406
2196.09316	0.01387
2194.80739	0.01380
2193.52162	0.01363
2192.23585	0.01317
2190.95008	0.01258
2189.66431	0.01226
2188.37854	0.01251
2187.09277	0.01331
2185.80701	0.01429
2184.52124	0.01499
2183.23547	0.01517
2181.94970	0.01494
2180.66393	0.01448
2179.37816	0.01383
2178.09239	0.01304
2176.80662	0.01235
2175.52085	0.01209
2174.23509	0.01235
2172.94932	0.01282
2171.66355	0.01301
2170.37778	0.01262
2169.09201	0.01171
2167.80624	0.01062
2166.52047	0.00969
2165.23470	0.00917
2163.94894	0.00920
2162.66317	0.00961
2161.37740	0.00966
2160.09163	0.00874
2158.80586	0.00739
2157.52009	0.00683
2156.23432	0.00739
2154.94855	0.00814
2153.66278	0.00845
2152.37702	0.00872
2151.09125	0.00955
2149.80548	0.01067
2148.51971	0.01127
2147.23394	0.01097
2145.94817	0.01012
2144.66240	0.00925
2143.37663	0.00866
2142.09087	0.00857
2140.80510	0.00915
2139.51933	0.01026
2138.23356	0.01133
2136.94779	0.01178
2135.66202	0.01162
2134.37625	0.01138
2133.09048	0.01161
2131.80471	0.01242
2130.51895	0.01351
2129.23318	0.01443
2127.94741	0.01482
2126.66164	0.01471
2125.37587	0.01452
2124.09010	0.01455
2122.80433	0.01466
2121.51856	0.01450
2120.23280	0.01407
2118.94703	0.01376
2117.66126	0.01390
2116.37549	0.01439
2115.08972	0.01484
2113.80395	0.01493
2112.51818	0.01469
2111.23241	0.01433
2109.94664	0.01403
2108.66088	0.01389
2107.37511	0.01395
2106.08934	0.01420
2104.80357	0.01451
2103.51780	0.01475
2102.23203	0.01476
2100.94626	0.01464
2099.66049	0.01744
2098.37473	0.01867
2097.08896	0.01847
2095.80319	0.01792
2094.51742	0.01708
2093.23165	0.01598
2091.94588	0.01488
2090.66011	0.01406
2089.37434	0.01357
2088.08857	0.01332
2086.80281	0.01321
2085.51704	0.01324
2084.23127	0.01340
2082.94550	0.01368
2081.65973	0.01405
2080.37396	0.01460
2079.08819	0.01545
2077.80242	0.01659
2076.51666	0.01776
2075.23089	0.01846
2073.94512	0.01845
2072.65935	0.01792
2071.37358	0.01736
2070.08781	0.01699
2068.80204	0.01665
2067.51627	0.01607
2066.23050	0.01517
2064.94474	0.01412
2063.65897	0.01326
2062.37320	0.01278
2061.08743	0.01258
2059.80166	0.01233
2058.51589	0.01177
2057.23012	0.01091
2055.94435	0.00997
2054.65859	0.00923
2053.37282	0.00913
2052.08705	0.01009
2050.80128	0.01200
2049.51551	0.01401
2048.22974	0.01511
2046.94397	0.01494
2045.65820	0.01400
2044.37243	0.01303
2043.08667	0.01250
2041.80090	0.01252
2040.51513	0.01308
2039.22936	0.01408
2037.94359	0.01522
2036.65782	0.01602
2035.37205	0.01617
2034.08628	0.01580
2032.80052	0.01538
2031.51475	0.01525
2030.22898	0.01532
2028.94321	0.01532
2027.65744	0.01502
2026.37167	0.01439
2025.08590	0.01367
2023.80013	0.01322
2022.51436	0.01322
2021.22860	0.01350
2019.94283	0.01364
2018.65706	0.01334
2017.37129	0.01257
2016.08552	0.01157
2014.79975	0.01078
2013.51398	0.01063
2012.22821	0.01138
2010.94245	0.01293
2009.65668	0.01485
2008.37091	0.01645
2007.08514	0.01705
2005.79937	0.01641
2004.51360	0.01496
2003.22783	0.01344
2001.94206	0.01240
2000.65629	0.01193
1999.37053	0.01191
1998.08476	0.01213
1996.79899	0.01229
1995.51322	0.01214
1994.22745	0.01161
1992.94168	0.01089
1991.65591	0.01018
1990.37014	0.00944
1989.08438	0.00869
1987.79861	0.00821
1986.51284	0.00845
1985.22707	0.00954
1983.94130	0.01124
1982.65553	0.01320
1981.36976	0.01532
1980.08399	0.01755
1978.79822	0.01960
1977.51246	0.02082
1976.22669	0.02080
1974.94092	0.01983
1973.65515	0.01870
1972.36938	0.01791
1971.08361	0.01725
1969.79784	0.01634
1968.51207	0.01517
1967.22631	0.01418
1965.94054	0.01378
1964.65477	0.01404
1963.36900	0.01471
1962.08323	0.01541
1960.79746	0.01576
1959.51169	0.01554
1958.22592	0.01472
1956.94015	0.01355
1955.65439	0.01243
1954.36862	0.01181
1953.08285	0.01194
1951.79708	0.01264
1950.51131	0.01341
1949.22554	0.01383
1947.93977	0.01383
1946.65400	0.01365
1945.36823	0.01351
1944.08247	0.01356
1942.79670	0.01387
1941.51093	0.01441
1940.22516	0.01500
1938.93939	0.01541
1937.65362	0.01559
1936.36785	0.01565
1935.08208	0.01565
1933.79632	0.01551
1932.51055	0.01519
1931.22478	0.01475
1929.93901	0.01431
1928.65324	0.01390
1927.36747	0.01345
1926.08170	0.01298
1924.79593	0.01269
1923.51016	0.01270
1922.22440	0.01300
1920.93863	0.01346
1919.65286	0.01399
1918.36709	0.01460
1917.08132	0.01526
1915.79555	0.01582
1914.50978	0.01607
1913.22401	0.01598
1911.93825	0.01574
1910.65248	0.01561
1909.36671	0.01567
1908.08094	0.01579
1906.79517	0.01589
1905.50940	0.01596
1904.22363	0.01603
1902.93786	0.01609
1901.65209	0.01614
1900.36633	0.01618
1899.08056	0.01617
1897.79479	0.01608
1896.50902	0.01597
1895.22325	0.01593
1893.93748	0.01602
1892.65171	0.01618
1891.36594	0.01626
1890.08018	0.01610
1888.79441	0.01568
1887.50864	0.01518
1886.22287	0.01484
1884.93710	0.01474
1883.65133	0.01474
1882.36556	0.01467
1881.07979	0.01455
1879.79402	0.01451
1878.50826	0.01462
1877.22249	0.01482
1875.93672	0.01497
1874.65095	0.01501
1873.36518	0.01502
1872.07941	0.01511
1870.79364	0.01522
1869.50787	0.01524
1868.22211	0.01515
1866.93634	0.01502
1865.65057	0.01494
1864.36480	0.01493
1863.07903	0.01498
1861.79326	0.01509
1860.50749	0.01522
1859.22172	0.01527
1857.93595	0.01516
1856.65019	0.01495
1855.36442	0.01476
1854.07865	0.01470
1852.79288	0.01471
1851.50711	0.01466
1850.22134	0.01450
1848.93557	0.01428
1847.64980	0.01411
1846.36404	0.01404
1845.07827	0.01408
1843.79250	0.01410
1842.50673	0.01405
1841.22096	0.01398
1839.93519	0.01393
1838.64942	0.01388
1837.36365	0.01379
1836.07788	0.01363
1834.79212	0.01342
1833.50635	0.01324
1832.22058	0.01318
1830.93481	0.01328
1829.64904	0.01347
1828.36327	0.01372
1827.07750	0.01406
1825.79173	0.01452
1824.50597	0.01505
1823.22020	0.01558
1821.93443	0.01600
1820.64866	0.01616
1819.36289	0.01592
1818.07712	0.01526
1816.79135	0.01433
1815.50558	0.01339
1814.21981	0.01266
1812.93405	0.01221
1811.64828	0.01201
1810.36251	0.01200
1809.07674	0.01215
1807.79097	0.01236
1806.50520	0.01258
1805.21943	0.01278
1803.93366	0.01298
1802.64790	0.01319
1801.36213	0.01336
1800.07636	0.01344
1798.79059	0.01346
1797.50482	0.01349
1796.21905	0.01353
1794.93328	0.01356
1793.64751	0.01355
1792.36174	0.01352
1791.07598	0.01351
1789.79021	0.01359
1788.50444	0.01375
1787.21867	0.01395
1785.93290	0.01409
1784.64713	0.01408
1783.36136	0.01393
1782.07559	0.01374
1780.78983	0.01360
1779.50406	0.01352
1778.21829	0.01345
1776.93252	0.01338
1775.64675	0.01331
1774.36098	0.01327
1773.07521	0.01320
1771.78944	0.01304
1770.50367	0.01284
1769.21791	0.01268
1767.93214	0.01256
1766.64637	0.01242
1765.36060	0.01232
1764.07483	0.01235
1762.78906	0.01246
1761.50329	0.01252
1760.21752	0.01249
1758.93176	0.01247
1757.64599	0.01253
1756.36022	0.01262
1755.07445	0.01268
1753.78868	0.01274
1752.50291	0.01284
1751.21714	0.01294
1749.93137	0.01298
1748.64560	0.01297
1747.35984	0.01297
1746.07407	0.01303
1744.78830	0.01321
1743.50253	0.01346
1742.21676	0.01372
1740.93099	0.01396
1739.64522	0.01413
1738.35945	0.01422
1737.07369	0.01430
1735.78792	0.01444
1734.50215	0.01460
1733.21638	0.01469
1731.93061	0.01470
1730.64484	0.01469
1729.35907	0.01468
1728.07330	0.01467
1726.78753	0.01469
1725.50177	0.01482
1724.21600	0.01504
1722.93023	0.01530
1721.64446	0.01558
1720.35869	0.01589
1719.07292	0.01624
1717.78715	0.01660
1716.50138	0.01691
1715.21561	0.01723
1713.92985	0.01761
1712.64408	0.01804
1711.35831	0.01854
1710.07254	0.01915
1708.78677	0.01992
1707.50100	0.02085
1706.21523	0.02184
1704.92946	0.02282
1703.64370	0.02381
1702.35793	0.02494
1701.07216	0.02622
1699.78639	0.02749
1698.50062	0.02873
1697.21485	0.03006
1695.92908	0.03143
1694.64331	0.03270
1693.35754	0.03389
1692.07178	0.03512
1690.78601	0.03643
1689.50024	0.03778
1688.21447	0.03920
1686.92870	0.04077
1685.64293	0.04243
1684.35716	0.04400
1683.07139	0.04538
1681.78563	0.04674
1680.49986	0.04826
1679.21409	0.04995
1677.92832	0.05170
1676.64255	0.05347
1675.35678	0.05521
1674.07101	0.05691
1672.78524	0.05866
1671.49947	0.06047
1670.21371	0.06226
1668.92794	0.06397
1667.64217	0.06559
1666.35640	0.06724
1665.07063	0.06898
1663.78486	0.07075
1662.49909	0.07244
1661.21332	0.07398
1659.92756	0.07538
1658.64179	0.07669
1657.35602	0.07795
1656.07025	0.07919
1654.78448	0.08045
1653.49871	0.08156
1652.21294	0.08238
1650.92717	0.08298
1649.64140	0.08360
1648.35564	0.08435
1647.06987	0.08507
1645.78410	0.08561
1644.49833	0.08597
1643.21256	0.08626
1641.92679	0.08655
1640.64102	0.08686
1639.35525	0.08717
1638.06949	0.08751
1636.78372	0.08786
1635.49795	0.08812
1634.21218	0.08819
1632.92641	0.08810
1631.64064	0.08789
1630.35487	0.08755
1629.06910	0.08700
1627.78333	0.08623
1626.49757	0.08527
1625.21180	0.08419
1623.92603	0.08299
1622.64026	0.08163
1621.35449	0.08009
1620.06872	0.07848
1618.78295	0.07691
1617.49718	0.07537
1616.21142	0.07376
1614.92565	0.07207
1613.63988	0.07037
1612.35411	0.06870
1611.06834	0.06705
1609.78257	0.06539
1608.49680	0.06374
1607.21103	0.06215
1605.92526	0.06070
1604.63950	0.05943
1603.35373	0.05830
1602.06796	0.05724
1600.78219	0.05622
1599.49642	0.05525
1598.21065	0.05432
1596.92488	0.05344
1595.63911	0.05259
1594.35335	0.05181
1593.06758	0.05114
1591.78181	0.05059
1590.49604	0.05014
1589.21027	0.04976
1587.92450	0.04946
1586.63873	0.04924
1585.35296	0.04910
1584.06719	0.04905
1582.78143	0.04908
1581.49566	0.04916
1580.20989	0.04928
1578.92412	0.04949
1577.63835	0.04983
1576.35258	0.05028
1575.06681	0.05073
1573.78104	0.05124
1572.49528	0.05189
1571.20951	0.05269
1569.92374	0.05354
1568.63797	0.05438
1567.35220	0.05522
1566.06643	0.05609
1564.78066	0.05697
1563.49489	0.05784
1562.20912	0.05879
1560.92336	0.05989
1559.63759	0.06103
1558.35182	0.06206
1557.06605	0.06297
1555.78028	0.06388
1554.49451	0.06486
1553.20874	0.06582
1551.92297	0.06675
1550.63721	0.06764
1549.35144	0.06848
1548.06567	0.06925
1546.77990	0.06994
1545.49413	0.07055
1544.20836	0.07106
1542.92259	0.07151
1541.63682	0.07194
1540.35105	0.07233
1539.06529	0.07260
1537.77952	0.07276
1536.49375	0.07291
1535.20798	0.07312
1533.92221	0.07332
1532.63644	0.07342
1531.35067	0.07341
1530.06490	0.07335
1528.77914	0.07327
1527.49337	0.07318
1526.20760	0.07309
1524.92183	0.07300
1523.63606	0.07290
1522.35029	0.07278
1521.06452	0.07258
1519.77875	0.07234
1518.49298	0.07211
1517.20722	0.07188
1515.92145	0.07154
1514.63568	0.07104
1513.34991	0.07044
1512.06414	0.06977
1510.77837	0.06905
1509.49260	0.06829
1508.20683	0.06747
1506.92107	0.06652
1505.63530	0.06539
1504.34953	0.06417
1503.06376	0.06298
1501.77799	0.06188
1500.49222	0.06079
1499.20645	0.05967
1497.92068	0.05850
1496.63491	0.05729
1495.34915	0.05601
1494.06338	0.05472
1492.77761	0.05351
1491.49184	0.05243
1490.20607	0.05142
1488.92030	0.05041
1487.63453	0.04941
1486.34876	0.04844
1485.06299	0.04756
1483.77723	0.04681
1482.49146	0.04617
1481.20569	0.04563
1479.91992	0.04522
1478.63415	0.04498
1477.34838	0.04490
1476.06261	0.04496
1474.77684	0.04516
1473.49108	0.04545
1472.20531	0.04575
1470.91954	0.04603
1469.63377	0.04632
1468.34800	0.04670
1467.06223	0.04716
1465.77646	0.04765
1464.49069	0.04812
1463.20492	0.04857
1461.91916	0.04906
1460.63339	0.04963
1459.34762	0.05031
1458.06185	0.05106
1456.77608	0.05174
1455.49031	0.05225
1454.20454	0.05262
1452.91877	0.05289
1451.63301	0.05306
1450.34724	0.05315
1449.06147	0.05319
1447.77570	0.05319
1446.48993	0.05312
1445.20416	0.05295
1443.91839	0.05269
1442.63262	0.05237
1441.34685	0.05202
1440.06109	0.05166
1438.77532	0.05130
1437.48955	0.05091
1436.20378	0.05041
1434.91801	0.04983
1433.63224	0.04927
1432.34647	0.04879
1431.06070	0.04836
1429.77494	0.04798
1428.48917	0.04765
1427.20340	0.04739
1425.91763	0.04719
1424.63186	0.04702
1423.34609	0.04685
1422.06032	0.04673
1420.77455	0.04670
1419.48878	0.04670
1418.20302	0.04667
1416.91725	0.04662
1415.63148	0.04663
1414.34571	0.04670
1413.05994	0.04679
1411.77417	0.04685
1410.48840	0.04689
1409.20263	0.04694
1407.91687	0.04703
1406.63110	0.04714
1405.34533	0.04727
1404.05956	0.04741
1402.77379	0.04753
1401.48802	0.04760
1400.20225	0.04758
1398.91648	0.04749
1397.63071	0.04736
1396.34495	0.04727
1395.05918	0.04721
1393.77341	0.04714
1392.48764	0.04709
1391.20187	0.04708
1389.91610	0.04712
1388.63033	0.04713
1387.34456	0.04706
1386.05880	0.04691
1384.77303	0.04672
1383.48726	0.04654
1382.20149	0.04637
1380.91572	0.04617
1379.62995	0.04593
1378.34418	0.04563
1377.05841	0.04528
1375.77264	0.04495
1374.48688	0.04462
1373.20111	0.04429
1371.91534	0.04393
1370.62957	0.04352
1369.34380	0.04309
1368.05803	0.04267
1366.77226	0.04226
1365.48649	0.04189
1364.20073	0.04154
1362.91496	0.04118
1361.62919	0.04080
1360.34342	0.04041
1359.05765	0.04008
1357.77188	0.03982
1356.48611	0.03966
1355.20034	0.03956
1353.91457	0.03949
1352.62881	0.03944
1351.34304	0.03941
1350.05727	0.03943
1348.77150	0.03952
1347.48573	0.03967
1346.19996	0.03984
1344.91419	0.04001
1343.62842	0.04017
1342.34266	0.04035
1341.05689	0.04056
1339.77112	0.04074
1338.48535	0.04085
1337.19958	0.04088
1335.91381	0.04084
1334.62804	0.04077
1333.34227	0.04069
1332.05650	0.04058
1330.77074	0.04044
1329.48497	0.04028
1328.19920	0.04012
1326.91343	0.03995
1325.62766	0.03977
1324.34189	0.03958
1323.05612	0.03938
1321.77035	0.03921
1320.48459	0.03910
1319.19882	0.03908
1317.91305	0.03909
1316.62728	0.03908
1315.34151	0.03900
1314.05574	0.03885
1312.76997	0.03868
1311.48420	0.03854
1310.19843	0.03846
1308.91267	0.03843
1307.62690	0.03841
1306.34113	0.03838
1305.05536	0.03830
1303.76959	0.03817
1302.48382	0.03801
1301.19805	0.03784
1299.91228	0.03768
1298.62652	0.03756
1297.34075	0.03748
1296.05498	0.03746
1294.76921	0.03747
1293.48344	0.03750
1292.19767	0.03756
1290.91190	0.03766
1289.62613	0.03783
1288.34036	0.03802
1287.05460	0.03821
1285.76883	0.03835
1284.48306	0.03845
1283.19729	0.03853
1281.91152	0.03862
1280.62575	0.03873
1279.33998	0.03885
1278.05421	0.03895
1276.76845	0.03900
1275.48268	0.03903
1274.19691	0.03908
1272.91114	0.03916
1271.62537	0.03925
1270.33960	0.03934
1269.05383	0.03943
1267.76806	0.03955
1266.48229	0.03972
1265.19653	0.03994
1263.91076	0.04017
1262.62499	0.04038
1261.33922	0.04057
1260.05345	0.04075
1258.76768	0.04096
1257.48191	0.04122
1256.19614	0.04153
1254.91037	0.04187
1253.62461	0.04223
1252.33884	0.04258
1251.05307	0.04292
1249.76730	0.04325
1248.48153	0.04361
1247.19576	0.04402
1245.90999	0.04445
1244.62422	0.04491
1243.33846	0.04536
1242.05269	0.04579
1240.76692	0.04617
1239.48115	0.04647
1238.19538	0.04671
1236.90961	0.04693
1235.62384	0.04713
1234.33807	0.04730
1233.05230	0.04742
1231.76654	0.04748
1230.48077	0.04747
1229.19500	0.04737
1227.90923	0.04718
1226.62346	0.04690
1225.33769	0.04652
1224.05192	0.04605
1222.76615	0.04553
1221.48039	0.04498
1220.19462	0.04444
1218.90885	0.04393
1217.62308	0.04347
1216.33731	0.04307
1215.05154	0.04273
1213.76577	0.04247
1212.48000	0.04229
1211.19423	0.04221
1209.90847	0.04220
1208.62270	0.04223
1207.33693	0.04226
1206.05116	0.04228
1204.76539	0.04230
1203.47962	0.04231
1202.19385	0.04227
1200.90808	0.04196
1199.62232	0.04128
1198.33655	0.04098
1197.05078	0.04064
1195.76501	0.04027
1194.47924	0.03990
1193.19347	0.03953
1191.90770	0.03915
1190.62193	0.03877
1189.33616	0.03842
1188.05040	0.03812
1186.76463	0.03786
1185.47886	0.03763
1184.19309	0.03741
1182.90732	0.03726
1181.62155	0.03719
1180.33578	0.03716
1179.05001	0.03711
1177.76425	0.03700
1176.47848	0.03688
1175.19271	0.03680
1173.90694	0.03676
1172.62117	0.03672
1171.33540	0.03668
1170.04963	0.03669
1168.76386	0.03679
1167.47809	0.03697
1166.19233	0.03715
1164.90656	0.03725
1163.62079	0.03724
1162.33502	0.03715
1161.04925	0.03707
1159.76348	0.03705
1158.47771	0.03711
1157.19194	0.03718
1155.90618	0.03717
1154.62041	0.03705
1153.33464	0.03683
1152.04887	0.03656
1150.76310	0.03633
1149.47733	0.03615
1148.19156	0.03600
1146.90579	0.03583
1145.62002	0.03561
1144.33426	0.03537
1143.04849	0.03519
1141.76272	0.03507
1140.47695	0.03500
1139.19118	0.03490
1137.90541	0.03474
1136.61964	0.03457
1135.33387	0.03446
1134.04811	0.03447
1132.76234	0.03457
1131.47657	0.03476
1130.19080	0.03505
1128.90503	0.03544
1127.61926	0.03590
1126.33349	0.03637
1125.04772	0.03683
1123.76195	0.03728
1122.47619	0.03775
1121.19042	0.03825
1119.90465	0.03877
1118.61888	0.03931
1117.33311	0.03986
1116.04734	0.04047
1114.76157	0.04112
1113.47580	0.04179
1112.19004	0.04239
1110.90427	0.04293
1109.61850	0.04349
1108.33273	0.04414
1107.04696	0.04487
1105.76119	0.04559
1104.47542	0.04624
1103.18965	0.04677
1101.90388	0.04720
1100.61812	0.04754
1099.33235	0.04788
1098.04658	0.04829
1096.76081	0.04874
1095.47504	0.04913
1094.18927	0.04938
1092.90350	0.04946
1091.61773	0.04947
1090.33197	0.04950
1089.04620	0.04959
1087.76043	0.04974
1086.47466	0.04994
1085.18889	0.05021
1083.90312	0.05062
1082.61735	0.05120
1081.33158	0.05189
1080.04581	0.05256
1078.76005	0.05313
1077.47428	0.05358
1076.18851	0.05397
1074.90274	0.05436
1073.61697	0.05475
1072.33120	0.05511
1071.04543	0.05543
1069.75966	0.05572
1068.47390	0.05603
1067.18813	0.05638
1065.90236	0.05675
1064.61659	0.05712
1063.33082	0.05750
1062.04505	0.05793
1060.75928	0.05841
1059.47351	0.05888
1058.18774	0.05928
1056.90198	0.05959
1055.61621	0.05989
1054.33044	0.06023
1053.04467	0.06056
1051.75890	0.06083
1050.47313	0.06108
1049.18736	0.06135
1047.90159	0.06168
1046.61583	0.06205
1045.33006	0.06243
1044.04429	0.06285
1042.75852	0.06332
1041.47275	0.06381
1040.18698	0.06429
1038.90121	0.06478
1037.61544	0.06532
1036.32967	0.06592
1035.04391	0.06656
1033.75814	0.06721
1032.47237	0.06779
1031.18660	0.06821
1029.90083	0.06843
1028.61506	0.06841
1027.32929	0.06817
1026.04352	0.06771
1024.75775	0.06706
1023.47199	0.06627
1022.18622	0.06540
1020.90045	0.06448
1019.61468	0.06352
1018.32891	0.06248
1017.04314	0.06140
1015.75737	0.06032
1014.47160	0.05932
1013.18584	0.05840
1011.90007	0.05753
1010.61430	0.05668
1009.32853	0.05581
1008.04276	0.05493
1006.75699	0.05406
1005.47122	0.05324
1004.18545	0.05250
1002.89968	0.05185
1001.61392	0.05125
1000.32815	0.05061
999.04238	0.04987
997.75661	0.04909
996.47084	0.04833
995.18507	0.04765
993.89930	0.04707
992.61353	0.04659
991.32777	0.04616
990.04200	0.04573
988.75623	0.04525
987.47046	0.04474
986.18469	0.04424
984.89892	0.04376
983.61315	0.04332
982.32738	0.04292
981.04161	0.04259
979.75585	0.04233
978.47008	0.04209
977.18431	0.04186
975.89854	0.04162
974.61277	0.04135
973.32700	0.04108
972.04123	0.04088
970.75546	0.04078
969.46970	0.04076
968.18393	0.04073
966.89816	0.04064
965.61239	0.04046
964.32662	0.04019
963.04085	0.03988
961.75508	0.03955
960.46931	0.03926
959.18354	0.03898
957.89778	0.03866
956.61201	0.03828
955.32624	0.03789
954.04047	0.03753
952.75470	0.03722
951.46893	0.03692
950.18316	0.03659
948.89739	0.03626
947.61163	0.03597
946.32586	0.03571
945.04009	0.03548
943.75432	0.03524
942.46855	0.03500
941.18278	0.03481
939.89701	0.03471
938.61124	0.03464
937.32547	0.03454
936.03971	0.03441
934.75394	0.03425
933.46817	0.03403
932.18240	0.03377
930.89663	0.03350
929.61086	0.03328
928.32509	0.03314
927.03932	0.03305
925.75356	0.03298
924.46779	0.03290
923.18202	0.03277
921.89625	0.03261
920.61048	0.03239
919.32471	0.03214
918.03894	0.03185
916.75317	0.03156
915.46740	0.03128
914.18164	0.03107
912.89587	0.03093
911.61010	0.03083
910.32433	0.03071
909.03856	0.03048
907.75279	0.03016
906.46702	0.02984
905.18125	0.02960
903.89549	0.02944
902.60972	0.02930
901.32395	0.02916
900.03818	0.02905
898.75241	0.02898
897.46664	0.02888
896.18087	0.02869
894.89510	0.02842
893.60933	0.02820
892.32357	0.02815
891.03780	0.02824
889.75203	0.02830
888.46626	0.02821
887.18049	0.02800
885.89472	0.02777
884.60895	0.02765
883.32318	0.02765
882.03742	0.02773
880.75165	0.02783
879.46588	0.02792
878.18011	0.02798
876.89434	0.02796
875.60857	0.02786
874.32280	0.02772
873.03703	0.02764
871.75126	0.02762
870.46550	0.02762
869.17973	0.02757
867.89396	0.02748
866.60819	0.02743
865.32242	0.02744
864.03665	0.02747
862.75088	0.02741
861.46511	0.02724
860.17935	0.02703
858.89358	0.02687
857.60781	0.02682
856.32204	0.02682
855.03627	0.02680
853.75050	0.02674
852.46473	0.02671
851.17896	0.02671
849.89319	0.02672
848.60743	0.02665
847.32166	0.02650
846.03589	0.02630
844.75012	0.02610
843.46435	0.02594
842.17858	0.02578
840.89281	0.02561
839.60704	0.02546
838.32128	0.02537
837.03551	0.02535
835.74974	0.02537
834.46397	0.02539
833.17820	0.02540
831.89243	0.02539
830.60666	0.02535
829.32089	0.02530
828.03512	0.02522
826.74936	0.02509
825.46359	0.02494
824.17782	0.02482
822.89205	0.02478
821.60628	0.02483
820.32051	0.02489
819.03474	0.02491
817.74897	0.02489
816.46321	0.02486
815.17744	0.02486
813.89167	0.02490
812.60590	0.02496
811.32013	0.02503
810.03436	0.02506
808.74859	0.02502
807.46282	0.02494
806.17705	0.02491
804.89129	0.02498
803.60552	0.02511
802.31975	0.02520
801.03398	0.02520
799.74821	0.02516
798.46244	0.02516
797.17667	0.02520
795.89090	0.02526
794.60513	0.02530
793.31937	0.02533
792.03360	0.02537
790.74783	0.02541
789.46206	0.02545
788.17629	0.02551
786.89052	0.02561
785.60475	0.02570
784.31898	0.02573
783.03322	0.02569
781.74745	0.02566
780.46168	0.02570
779.17591	0.02584
777.89014	0.02603
776.60437	0.02617
775.31860	0.02624
774.03283	0.02626
772.74706	0.02628
771.46130	0.02627
770.17553	0.02623
768.88976	0.02617
767.60399	0.02616
766.31822	0.02622
765.03245	0.02633
763.74668	0.02643
762.46091	0.02648
761.17515	0.02649
759.88938	0.02649
758.60361	0.02655
757.31784	0.02665
756.03207	0.02673
754.74630	0.02675
753.46053	0.02673
752.17476	0.02675
750.88899	0.02689
749.60323	0.02715
748.31746	0.02744
747.03169	0.02761
745.74592	0.02763
744.46015	0.02764
743.17438	0.02779
741.88861	0.02805
740.60284	0.02826
739.31708	0.02827
738.03131	0.02811
736.74554	0.02791
735.45977	0.02771
734.17400	0.02753
732.88823	0.02740
731.60246	0.02738
730.31669	0.02753
729.03092	0.02781
727.74516	0.02812
726.45939	0.02835
725.17362	0.02848
723.88785	0.02853
722.60208	0.02855
721.31631	0.02857
720.03054	0.02863
718.74477	0.02873
717.45901	0.02885
716.17324	0.02892
714.88747	0.02892
713.60170	0.02889
712.31593	0.02890
711.03016	0.02897
709.74439	0.02910
708.45862	0.02926
707.17285	0.02941
705.88709	0.02952
704.60132	0.02961
703.31555	0.02966
702.02978	0.02970
700.74401	0.02977
699.45824	0.02987
698.17247	0.03000
696.88670	0.03012
695.60094	0.03019
694.31517	0.03021
693.02940	0.03018
691.74363	0.03013
690.45786	0.03009
689.17209	0.03006
687.88632	0.03005
686.60055	0.03004
685.31478	0.03003
684.02902	0.03004
682.74325	0.03009
681.45748	0.03021
680.17171	0.03037
678.88594	0.03051
677.60017	0.03057
676.31440	0.03056
675.02863	0.03052
673.74287	0.03051
672.45710	0.03054
671.17133	0.03060
669.88556	0.03066
668.59979	0.03073
667.31402	0.03082
666.02825	0.03086
664.74248	0.03090
663.45671	0.03095
662.17095	0.03100
660.88518	0.03104
659.59941	0.03105
658.31364	0.03105
657.02787	0.03109
655.74210	0.03118
654.45633	0.03131
653.17056	0.03146
651.88480	0.03155
650.59903	0.03158
649.31326	0.03155
648.02749	0.03150
646.74172	0.03147
645.45595	0.03143
644.17018	0.03136
642.88441	0.03123
641.59864	0.03105
640.31288	0.03092
639.02711	0.03088
637.74134	0.03092
636.45557	0.03102
635.16980	0.03113
633.88403	0.03115
632.59826	0.03100
631.31249	0.03110
630.02673	0.03334
628.74096	0.03688
627.45519	0.03435
626.16942	0.03820
624.88365	0.04633
623.59788	0.05400
622.31211	0.05935
621.02634	0.06133
619.74057	0.05942
618.45481	0.05431
617.16904	0.04777
615.88327	0.04164
614.59750	0.03736
613.31173	0.03591
612.02596	0.03781
610.74019	0.04250
609.45442	0.04808
608.16866	0.05245
606.88289	0.05483
605.59712	0.05579
604.31135	0.05595
603.02558	0.05544
601.73981	0.05413
600.45404	0.05205
599.16827	0.04957
597.88250	0.04717
596.59674	0.04520
595.31097	0.04376
594.02520	0.04281
592.73943	0.04223
591.45366	0.04189
590.16789	0.04169
588.88212	0.04156
587.59635	0.04150
586.31059	0.04154
585.02482	0.04168
583.73905	0.04196
582.45328	0.04238
581.16751	0.04291
579.88174	0.04347
578.59597	0.04397
577.31020	0.04438
576.02443	0.04473
574.73867	0.04513
573.45290	0.04568
572.16713	0.04645
570.88136	0.04743
569.59559	0.04850
568.30982	0.04950
567.02405	0.05027
565.73828	0.05073
564.45251	0.05086
563.16675	0.05073
561.88098	0.05040
560.59521	0.04988
559.30944	0.04919
558.02367	0.04840
556.73790	0.04761
555.45213	0.04693
554.16636	0.04637
552.88060	0.04589
551.59483	0.04542
550.30906	0.04486
549.02329	0.04421
547.73752	0.04357
546.45175	0.04315
545.16598	0.04301
543.88021	0.04301
542.59444	0.04292
541.30868	0.04265
540.02291	0.04226
538.73714	0.04187
537.45137	0.04153
536.16560	0.04126
534.87983	0.04104
533.59406	0.04084
532.30829	0.04059
531.02253	0.04027
529.73676	0.03990
528.45099	0.03958
527.16522	0.03940
525.87945	0.03934
524.59368	0.03928
523.30791	0.03914
522.02214	0.03890
520.73637	0.03868
519.45061	0.03851
518.16484	0.03835
516.87907	0.03813
515.59330	0.03783
514.30753	0.03749
513.02176	0.03712
511.73599	0.03675
510.45022	0.03640
509.16446	0.03609
507.87869	0.03583
506.59292	0.03555
505.30715	0.03520
504.02138	0.03480
502.73561	0.03441
501.44984	0.03410
500.16407	0.03390
498.87830	0.03374
497.59254	0.03360
496.30677	0.03344
495.02100	0.03328
493.73523	0.03314
492.44946	0.03305
491.16369	0.03301
489.87792	0.03298
488.59215	0.03285
487.30639	0.03258
486.02062	0.03229
484.73485	0.03210
483.44908	0.03203
482.16331	0.03197
480.87754	0.03179
479.59177	0.03151
478.30600	0.03123
477.02023	0.03105
475.73447	0.03099
474.44870	0.03102
473.16293	0.03108
471.87716	0.03112
470.59139	0.03114
469.30562	0.03113
468.01985	0.03104
466.73408	0.03086
465.44832	0.03061
464.16255	0.03033
462.87678	0.03009
461.59101	0.02989
460.30524	0.02971
459.01947	0.02951
457.73370	0.02926
456.44793	0.02899
455.16216	0.02873
453.87640	0.02850
452.59063	0.02828
451.30486	0.02806
450.01909	0.02782
448.73332	0.02759
447.44755	0.02739
446.16178	0.02724
444.87601	0.02711
443.59025	0.02700
442.30448	0.02688
441.01871	0.02674
439.73294	0.02661
438.44717	0.02651
437.16140	0.02647
435.87563	0.02647
434.58986	0.02647
433.30409	0.02644
432.01833	0.02636
430.73256	0.02623
429.44679	0.02608
428.16102	0.02594
426.87525	0.02581
425.58948	0.02568
424.30371	0.02550
423.01794	0.02528
421.73218	0.02504
420.44641	0.02485
419.16064	0.02474
417.87487	0.02470
416.58910	0.02468
415.30333	0.02466
414.01756	0.02461
412.73179	0.02453
411.44602	0.02440
410.16026	0.02423
408.87449	0.02406
407.58872	0.02391
406.30295	0.02381
405.01718	0.02374
403.73141	0.02370
402.44564	0.02367
401.15987	0.02364
399.87411	0.02361
