3997.45528	0.05657
3996.16951	0.05654
3994.88374	0.05651
3993.59798	0.05639
3992.31221	0.05613
3991.02644	0.05595
3989.74067	0.05615
3988.45490	0.05671
3987.16913	0.05731
3985.88336	0.05760
3984.59759	0.05748
3983.31183	0.05699
3982.02606	0.05634
3980.74029	0.05587
3979.45452	0.05585
3978.16875	0.05626
3976.88298	0.05681
3975.59721	0.05722
3974.31144	0.05723
3973.02567	0.05671
3971.73991	0.05573
3970.45414	0.05469
3969.16837	0.05402
3967.88260	0.05387
3966.59683	0.05396
3965.31106	0.05403
3964.02529	0.05406
3962.73952	0.05422
3961.45376	0.05460
3960.16799	0.05502
3958.88222	0.05523
3957.59645	0.05526
3956.31068	0.05537
3955.02491	0.05571
3953.73914	0.05614
3952.45337	0.05644
3951.16760	0.05646
3949.88184	0.05626
3948.59607	0.05593
3947.31030	0.05559
3946.02453	0.05535
3944.73876	0.05515
3943.45299	0.05486
3942.16722	0.05439
3940.88145	0.05389
3939.59569	0.05366
3938.30992	0.05385
3937.02415	0.05436
3935.73838	0.05490
3934.45261	0.05518
3933.16684	0.05511
3931.88107	0.05485
3930.59530	0.05456
3929.30953	0.05432
3928.02377	0.05407
3926.73800	0.05374
3925.45223	0.05339
3924.16646	0.05316
3922.88069	0.05313
3921.59492	0.05323
3920.30915	0.05342
3919.02338	0.05362
3917.73762	0.05378
3916.45185	0.05382
3915.16608	0.05371
3913.88031	0.05358
3912.59454	0.05357
3911.30877	0.05375
3910.02300	0.05410
3908.73723	0.05451
3907.45146	0.05480
3906.16570	0.05470
3904.87993	0.05412
3903.59416	0.05334
3902.30839	0.05281
3901.02262	0.05270
3899.73685	0.05285
3898.45108	0.05303
3897.16531	0.05318
3895.87955	0.05329
3894.59378	0.05327
3893.30801	0.05307
3892.02224	0.05287
3890.73647	0.05292
3889.45070	0.05324
3888.16493	0.05368
3886.87916	0.05400
3885.59339	0.05406
3884.30763	0.05387
3883.02186	0.05352
3881.73609	0.05311
3880.45032	0.05269
3879.16455	0.05235
3877.87878	0.05220
3876.59301	0.05229
3875.30724	0.05248
3874.02148	0.05259
3872.73571	0.05259
3871.44994	0.05253
3870.16417	0.05247
3868.87840	0.05240
3867.59263	0.05234
3866.30686	0.05236
3865.02109	0.05243
3863.73532	0.05241
3862.44956	0.05220
3861.16379	0.05183
3859.87802	0.05145
3858.59225	0.05121
3857.30648	0.05117
3856.02071	0.05128
3854.73494	0.05148
3853.44917	0.05165
3852.16341	0.05174
3850.87764	0.05181
3849.59187	0.05190
3848.30610	0.05201
3847.02033	0.05202
3845.73456	0.05183
3844.44879	0.05150
3843.16302	0.05129
3841.87725	0.05135
3840.59149	0.05157
3839.30572	0.05171
3838.01995	0.05167
3836.73418	0.05144
3835.44841	0.05109
3834.16264	0.05067
3832.87687	0.05040
3831.59110	0.05046
3830.30534	0.05078
3829.01957	0.05096
3827.73380	0.05070
3826.44803	0.05009
3825.16226	0.04947
3823.87649	0.04908
3822.59072	0.04887
3821.30495	0.04874
3820.01918	0.04870
3818.73342	0.04874
3817.44765	0.04875
3816.16188	0.04864
3814.87611	0.04851
3813.59034	0.04854
3812.30457	0.04878
3811.01880	0.04913
3809.73303	0.04957
3808.44726	0.05016
3807.16150	0.05092
3805.87573	0.05159
3804.58996	0.05188
3803.30419	0.05169
3802.01842	0.05117
3800.73265	0.05058
3799.44688	0.05015
3798.16111	0.04995
3796.87535	0.04988
3795.58958	0.04973
3794.30381	0.04924
3793.01804	0.04836
3791.73227	0.04732
3790.44650	0.04664
3789.16073	0.04673
3787.87496	0.04756
3786.58919	0.04865
3785.30343	0.04948
3784.01766	0.04984
3782.73189	0.04988
3781.44612	0.04980
3780.16035	0.04967
3778.87458	0.04945
3777.58881	0.04918
3776.30304	0.04908
3775.01728	0.04930
3773.73151	0.04958
3772.44574	0.04947
3771.15997	0.04879
3769.87420	0.04793
3768.58843	0.04748
3767.30266	0.04762
3766.01689	0.04801
3764.73112	0.04817
3763.44536	0.04798
3762.15959	0.04771
3760.87382	0.04766
3759.58805	0.04783
3758.30228	0.04797
3757.01651	0.04784
3755.73074	0.04744
3754.44497	0.04698
3753.15921	0.04665
3751.87344	0.04638
3750.58767	0.04598
3749.30190	0.04552
3748.01613	0.04537
3746.73036	0.04581
3745.44459	0.04665
3744.15882	0.04729
3742.87305	0.04732
3741.58729	0.04680
3740.30152	0.04618
3739.01575	0.04586
3737.72998	0.04592
3736.44421	0.04612
3735.15844	0.04615
3733.87267	0.04591
3732.58690	0.04546
3731.30114	0.04503
3730.01537	0.04483
3728.72960	0.04499
3727.44383	0.04550
3726.15806	0.04615
3724.87229	0.04662
3723.58652	0.04667
3722.30075	0.04632
3721.01498	0.04586
3719.72922	0.04558
3718.44345	0.04549
3717.15768	0.04539
3715.87191	0.04516
3714.58614	0.04490
3713.30037	0.04479
3712.01460	0.04492
3710.72883	0.04512
3709.44307	0.04508
3708.15730	0.04466
3706.87153	0.04410
3705.58576	0.04383
3704.29999	0.04399
3703.01422	0.04428
3701.72845	0.04435
3700.44268	0.04419
3699.15691	0.04405
3697.87115	0.04408
3696.58538	0.04417
3695.29961	0.04424
3694.01384	0.04436
3692.72807	0.04456
3691.44230	0.04476
3690.15653	0.04477
3688.87076	0.04452
3687.58500	0.04405
3686.29923	0.04345
3685.01346	0.04288
3683.72769	0.04245
3682.44192	0.04222
3681.15615	0.04223
3679.87038	0.04250
3678.58461	0.04302
3677.29884	0.04371
3676.01308	0.04439
3674.72731	0.04481
3673.44154	0.04486
3672.15577	0.04472
3670.87000	0.04474
3669.58423	0.04511
3668.29846	0.04563
3667.01269	0.04588
3665.72693	0.04557
3664.44116	0.04480
3663.15539	0.04400
3661.86962	0.04363
3660.58385	0.04376
3659.29808	0.04403
3658.01231	0.04403
3656.72654	0.04381
3655.44077	0.04382
3654.15501	0.04433
3652.86924	0.04525
3651.58347	0.04620
3650.29770	0.04694
3649.01193	0.04747
3647.72616	0.04796
3646.44039	0.04848
3645.15462	0.04889
3643.86886	0.04904
3642.58309	0.04891
3641.29732	0.04863
3640.01155	0.04836
3638.72578	0.04819
3637.44001	0.04819
3636.15424	0.04838
3634.86847	0.04870
3633.58270	0.04902
3632.29694	0.04926
3631.01117	0.04948
3629.72540	0.04983
3628.43963	0.05039
3627.15386	0.05113
3625.86809	0.05193
3624.58232	0.05259
3623.29655	0.05291
3622.01079	0.05290
3620.72502	0.05283
3619.43925	0.05299
3618.15348	0.05331
3616.86771	0.05340
3615.58194	0.05300
3614.29617	0.05239
3613.01040	0.05212
3611.72463	0.05248
3610.43887	0.05331
3609.15310	0.05413
3607.86733	0.05455
3606.58156	0.05454
3605.29579	0.05436
3604.01002	0.05425
3602.72425	0.05423
3601.43848	0.05428
3600.15272	0.05454
3598.86695	0.05519
3597.58118	0.05628
3596.29541	0.05751
3595.00964	0.05844
3593.72387	0.05884
3592.43810	0.05878
3591.15233	0.05856
3589.86656	0.05840
3588.58080	0.05841
3587.29503	0.05867
3586.00926	0.05924
3584.72349	0.06009
3583.43772	0.06102
3582.15195	0.06173
3580.86618	0.06201
3579.58041	0.06191
3578.29464	0.06174
3577.00888	0.06192
3575.72311	0.06260
3574.43734	0.06353
3573.15157	0.06429
3571.86580	0.06462
3570.58003	0.06460
3569.29426	0.06454
3568.00849	0.06471
3566.72273	0.06519
3565.43696	0.06584
3564.15119	0.06643
3562.86542	0.06680
3561.57965	0.06696
3560.29388	0.06703
3559.00811	0.06724
3557.72234	0.06776
3556.43657	0.06851
3555.15081	0.06918
3553.86504	0.06949
3552.57927	0.06942
3551.29350	0.06927
3550.00773	0.06933
3548.72196	0.06967
3547.43619	0.07016
3546.15042	0.07068
3544.86466	0.07118
3543.57889	0.07162
3542.29312	0.07187
3541.00735	0.07197
3539.72158	0.07209
3538.43581	0.07238
3537.15004	0.07278
3535.86427	0.07311
3534.57850	0.07322
3533.29274	0.07310
3532.00697	0.07293
3530.72120	0.07296
3529.43543	0.07336
3528.14966	0.07411
3526.86389	0.07508
3525.57812	0.07614
3524.29235	0.07721
3523.00659	0.07824
3521.72082	0.07909
3520.43505	0.07965
3519.14928	0.07992
3517.86351	0.08001
3516.57774	0.08007
3515.29197	0.08018
3514.00620	0.08039
3512.72043	0.08069
3511.43467	0.08099
3510.14890	0.08118
3508.86313	0.08130
3507.57736	0.08150
3506.29159	0.08192
3505.00582	0.08246
3503.72005	0.08296
3502.43428	0.08338
3501.14852	0.08383
3499.86275	0.08436
3498.57698	0.08488
3497.29121	0.08518
3496.00544	0.08512
3494.71967	0.08468
3493.43390	0.08408
3492.14813	0.08371
3490.86236	0.08388
3489.57660	0.08462
3488.29083	0.08566
3487.00506	0.08668
3485.71929	0.08744
3484.43352	0.08784
3483.14775	0.08789
3481.86198	0.08777
3480.57621	0.08766
3479.29045	0.08766
3478.00468	0.08775
3476.71891	0.08791
3475.43314	0.08813
3474.14737	0.08836
3472.86160	0.08855
3471.57583	0.08870
3470.29006	0.08884
3469.00429	0.08902
3467.71853	0.08922
3466.43276	0.08952
3465.14699	0.09003
3463.86122	0.09080
3462.57545	0.09172
3461.28968	0.09260
3460.00391	0.09323
3458.71814	0.09350
3457.43238	0.09346
3456.14661	0.09327
3454.86084	0.09311
3453.57507	0.09305
3452.28930	0.09309
3451.00353	0.09318
3449.71776	0.09332
3448.43199	0.09357
3447.14622	0.09402
3445.86046	0.09469
3444.57469	0.09544
3443.28892	0.09606
3442.00315	0.09641
3440.71738	0.09651
3439.43161	0.09636
3438.14584	0.09604
3436.86007	0.09575
3435.57431	0.09581
3434.28854	0.09631
3433.00277	0.09700
3431.71700	0.09756
3430.43123	0.09792
3429.14546	0.09834
3427.85969	0.09906
3426.57392	0.10003
3425.28815	0.10094
3424.00239	0.10149
3422.71662	0.10168
3421.43085	0.10171
3420.14508	0.10176
3418.85931	0.10187
3417.57354	0.10203
3416.28777	0.10227
3415.00200	0.10262
3413.71624	0.10305
3412.43047	0.10343
3411.14470	0.10356
3409.85893	0.10335
3408.57316	0.10298
3407.28739	0.10285
3406.00162	0.10316
3404.71585	0.10374
3403.43008	0.10430
3402.14432	0.10477
3400.85855	0.10540
3399.57278	0.10635
3398.28701	0.10733
3397.00124	0.10809
3395.71547	0.10850
3394.42970	0.10855
3393.14393	0.10838
3391.85817	0.10814
3390.57240	0.10802
3389.28663	0.10812
3388.00086	0.10845
3386.71509	0.10882
3385.42932	0.10904
3384.14355	0.10904
3382.85778	0.10897
3381.57201	0.10911
3380.28625	0.10963
3379.00048	0.11045
3377.71471	0.11133
3376.42894	0.11204
3375.14317	0.11256
3373.85740	0.11305
3372.57163	0.11367
3371.28586	0.11444
3370.00010	0.11519
3368.71433	0.11572
3367.42856	0.11594
3366.14279	0.11586
3364.85702	0.11560
3363.57125	0.11536
3362.28548	0.11535
3360.99971	0.11566
3359.71394	0.11623
3358.42818	0.11690
3357.14241	0.11754
3355.85664	0.11811
3354.57087	0.11867
3353.28510	0.11931
3351.99933	0.12008
3350.71356	0.12089
3349.42779	0.12158
3348.14202	0.12205
3346.85626	0.12236
3345.57049	0.12264
3344.28472	0.12306
3342.99895	0.12371
3341.71318	0.12455
3340.42741	0.12542
3339.14164	0.12608
3337.85587	0.12644
3336.57011	0.12665
3335.28434	0.12695
3333.99857	0.12745
3332.71280	0.12806
3331.42703	0.12859
3330.14126	0.12897
3328.85549	0.12933
3327.56972	0.12978
3326.28395	0.13034
3324.99819	0.13092
3323.71242	0.13142
3322.42665	0.13188
3321.14088	0.13240
3319.85511	0.13293
3318.56934	0.13333
3317.28357	0.13358
3315.99780	0.13384
3314.71204	0.13429
3313.42627	0.13482
3312.14050	0.13516
3310.85473	0.13511
3309.56896	0.13479
3308.28319	0.13455
3306.99742	0.13475
3305.71165	0.13547
3304.42588	0.13644
3303.14012	0.13723
3301.85435	0.13759
3300.56858	0.13767
3299.28281	0.13780
3297.99704	0.13819
3296.71127	0.13872
3295.42550	0.13908
3294.13973	0.13910
3292.85397	0.13878
3291.56820	0.13824
3290.28243	0.13760
3288.99666	0.13703
3287.71089	0.13680
3286.42512	0.13707
3285.13935	0.13775
3283.85358	0.13853
3282.56781	0.13913
3281.28205	0.13936
3279.99628	0.13917
3278.71051	0.13878
3277.42474	0.13851
3276.13897	0.13849
3274.85320	0.13848
3273.56743	0.13817
3272.28166	0.13757
3270.99590	0.13696
3269.71013	0.13656
3268.42436	0.13631
3267.13859	0.13606
3265.85282	0.13580
3264.56705	0.13569
3263.28128	0.13581
3261.99551	0.13599
3260.70974	0.13600
3259.42398	0.13569
3258.13821	0.13518
3256.85244	0.13464
3255.56667	0.13422
3254.28090	0.13395
3252.99513	0.13381
3251.70936	0.13370
3250.42359	0.13344
3249.13783	0.13292
3247.85206	0.13221
3246.56629	0.13149
3245.28052	0.13091
3243.99475	0.13051
3242.70898	0.13027
3241.42321	0.13007
3240.13744	0.12978
3238.85167	0.12932
3237.56591	0.12878
3236.28014	0.12838
3234.99437	0.12820
3233.70860	0.12819
3232.42283	0.12827
3231.13706	0.12835
3229.85129	0.12834
3228.56552	0.12809
3227.27976	0.12758
3225.99399	0.12695
3224.70822	0.12641
3223.42245	0.12608
3222.13668	0.12592
3220.85091	0.12582
3219.56514	0.12570
3218.27937	0.12552
3216.99360	0.12527
3215.70784	0.12494
3214.42207	0.12446
3213.13630	0.12386
3211.85053	0.12329
3210.56476	0.12294
3209.27899	0.12292
3207.99322	0.12304
3206.70745	0.12306
3205.42169	0.12286
3204.13592	0.12259
3202.85015	0.12246
3201.56438	0.12244
3200.27861	0.12235
3198.99284	0.12208
3197.70707	0.12168
3196.42130	0.12128
3195.13553	0.12087
3193.84977	0.12037
3192.56400	0.11981
3191.27823	0.11927
3189.99246	0.11880
3188.70669	0.11840
3187.42092	0.11806
3186.13515	0.11778
3184.84938	0.11751
3183.56362	0.11714
3182.27785	0.11662
3180.99208	0.11607
3179.70631	0.11568
3178.42054	0.11546
3177.13477	0.11528
3175.84900	0.11501
3174.56323	0.11460
3173.27746	0.11409
3171.99170	0.11346
3170.70593	0.11272
3169.42016	0.11194
3168.13439	0.11130
3166.84862	0.11092
3165.56285	0.11079
3164.27708	0.11076
3162.99131	0.11057
3161.70555	0.11012
3160.41978	0.10946
3159.13401	0.10883
3157.84824	0.10842
3156.56247	0.10832
3155.27670	0.10838
3153.99093	0.10834
3152.70516	0.10796
3151.41939	0.10726
3150.13363	0.10644
3148.84786	0.10571
3147.56209	0.10516
3146.27632	0.10469
3144.99055	0.10417
3143.70478	0.10356
3142.41901	0.10297
3141.13324	0.10253
3139.84748	0.10229
3138.56171	0.10217
3137.27594	0.10201
3135.99017	0.10173
3134.70440	0.10139
3133.41863	0.10117
3132.13286	0.10119
3130.84709	0.10137
3129.56132	0.10154
3128.27556	0.10153
3126.98979	0.10132
3125.70402	0.10098
3124.41825	0.10051
3123.13248	0.09986
3121.84671	0.09910
3120.56094	0.09843
3119.27517	0.09811
3117.98940	0.09822
3116.70364	0.09867
3115.41787	0.09922
3114.13210	0.09957
3112.84633	0.09954
3111.56056	0.09921
3110.27479	0.09889
3108.98902	0.09882
3107.70325	0.09897
3106.41749	0.09906
3105.13172	0.09887
3103.84595	0.09846
3102.56018	0.09808
3101.27441	0.09799
3099.98864	0.09821
3098.70287	0.09855
3097.41710	0.09882
3096.13133	0.09903
3094.84557	0.09928
3093.55980	0.09959
3092.27403	0.09982
3090.98826	0.09983
3089.70249	0.09974
3088.41672	0.09972
3087.13095	0.09983
3085.84518	0.09991
3084.55942	0.09977
3083.27365	0.09948
3081.98788	0.09931
3080.70211	0.09948
3079.41634	0.09995
3078.13057	0.10044
3076.84480	0.10070
3075.55903	0.10064
3074.27326	0.10042
3072.98750	0.10023
3071.70173	0.10015
3070.41596	0.10011
3069.13019	0.10001
3067.84442	0.09987
3066.55865	0.09978
3065.27288	0.09975
3063.98711	0.09974
3062.70135	0.09972
3061.41558	0.09974
3060.12981	0.09981
3058.84404	0.09985
3057.55827	0.09968
3056.27250	0.09921
3054.98673	0.09854
3053.70096	0.09792
3052.41519	0.09754
3051.12943	0.09737
3049.84366	0.09721
3048.55789	0.09694
3047.27212	0.09661
3045.98635	0.09631
3044.70058	0.09605
3043.41481	0.09570
3042.12904	0.09518
3040.84328	0.09450
3039.55751	0.09370
3038.27174	0.09283
3036.98597	0.09191
3035.70020	0.09107
3034.41443	0.09049
3033.12866	0.09026
3031.84289	0.09028
3030.55712	0.09030
3029.27136	0.09014
3027.98559	0.08975
3026.69982	0.08922
3025.41405	0.08867
3024.12828	0.08822
3022.84251	0.08796
3021.55674	0.08787
3020.27097	0.08786
3018.98521	0.08778
3017.69944	0.08748
3016.41367	0.08697
3015.12790	0.08634
3013.84213	0.08575
3012.55636	0.08536
3011.27059	0.08522
3009.98482	0.08524
3008.69905	0.08528
3007.41329	0.08522
3006.12752	0.08508
3004.84175	0.08491
3003.55598	0.08474
3002.27021	0.08456
3000.98444	0.08433
2999.69867	0.08405
2998.41290	0.08386
2997.12714	0.08381
2995.84137	0.08386
2994.55560	0.08387
2993.26983	0.08381
2991.98406	0.08375
2990.69829	0.08381
2989.41252	0.08402
2988.12675	0.08426
2986.84098	0.08443
2985.55522	0.08456
2984.26945	0.08476
2982.98368	0.08507
2981.69791	0.08541
2980.41214	0.08567
2979.12637	0.08589
2977.84060	0.08621
2976.55483	0.08666
2975.26907	0.08708
2973.98330	0.08740
2972.69753	0.08775
2971.41176	0.08830
2970.12599	0.08901
2968.84022	0.08968
2967.55445	0.09023
2966.26868	0.09069
2964.98291	0.09108
2963.69715	0.09138
2962.41138	0.09162
2961.12561	0.09187
2959.83984	0.09213
2958.55407	0.09237
2957.26830	0.09257
2955.98253	0.09273
2954.69676	0.09281
2953.41100	0.09281
2952.12523	0.09277
2950.83946	0.09275
2949.55369	0.09272
2948.26792	0.09270
2946.98215	0.09272
2945.69638	0.09279
2944.41061	0.09287
2943.12484	0.09293
2941.83908	0.09302
2940.55331	0.09325
2939.26754	0.09368
2937.98177	0.09430
2936.69600	0.09502
2935.41023	0.09569
2934.12446	0.09618
2932.83869	0.09648
2931.55293	0.09662
2930.26716	0.09669
2928.98139	0.09675
2927.69562	0.09682
2926.40985	0.09687
2925.12408	0.09689
2923.83831	0.09688
2922.55254	0.09681
2921.26677	0.09665
2919.98101	0.09633
2918.69524	0.09581
2917.40947	0.09519
2916.12370	0.09455
2914.83793	0.09390
2913.55216	0.09314
2912.26639	0.09226
2910.98062	0.09138
2909.69486	0.09066
2908.40909	0.09014
2907.12332	0.08979
2905.83755	0.08951
2904.55178	0.08919
2903.26601	0.08879
2901.98024	0.08832
2900.69447	0.08783
2899.40870	0.08736
2898.12294	0.08700
2896.83717	0.08676
2895.55140	0.08661
2894.26563	0.08649
2892.97986	0.08636
2891.69409	0.08615
2890.40832	0.08577
2889.12255	0.08519
2887.83678	0.08461
2886.55102	0.08426
2885.26525	0.08419
2883.97948	0.08421
2882.69371	0.08417
2881.40794	0.08407
2880.12217	0.08399
2878.83640	0.08402
2877.55063	0.08413
2876.26487	0.08422
2874.97910	0.08424
2873.69333	0.08422
2872.40756	0.08426
2871.12179	0.08434
2869.83602	0.08442
2868.55025	0.08441
2867.26448	0.08428
2865.97871	0.08403
2864.69295	0.08368
2863.40718	0.08325
2862.12141	0.08282
2860.83564	0.08250
2859.54987	0.08234
2858.26410	0.08229
2856.97833	0.08225
2855.69256	0.08221
2854.40680	0.08226
2853.12103	0.08237
2851.83526	0.08239
2850.54949	0.08211
2849.26372	0.08149
2847.97795	0.08060
2846.69218	0.07957
2845.40641	0.07857
2844.12064	0.07775
2842.83488	0.07720
2841.54911	0.07688
2840.26334	0.07662
2838.97757	0.07632
2837.69180	0.07598
2836.40603	0.07563
2835.12026	0.07529
2833.83449	0.07494
2832.54873	0.07457
2831.26296	0.07414
2829.97719	0.07368
2828.69142	0.07328
2827.40565	0.07305
2826.11988	0.07304
2824.83411	0.07310
2823.54834	0.07302
2822.26257	0.07276
2820.97681	0.07241
2819.69104	0.07207
2818.40527	0.07181
2817.11950	0.07164
2815.83373	0.07154
2814.54796	0.07151
2813.26219	0.07151
2811.97642	0.07149
2810.69066	0.07139
2809.40489	0.07120
2808.11912	0.07101
2806.83335	0.07095
2805.54758	0.07106
2804.26181	0.07126
2802.97604	0.07134
2801.69027	0.07117
2800.40450	0.07071
2799.11874	0.07011
2797.83297	0.06958
2796.54720	0.06928
2795.26143	0.06924
2793.97566	0.06936
2792.68989	0.06950
2791.40412	0.06954
2790.11835	0.06933
2788.83259	0.06886
2787.54682	0.06827
2786.26105	0.06783
2784.97528	0.06774
2783.68951	0.06793
2782.40374	0.06820
2781.11797	0.06837
2779.83220	0.06839
2778.54643	0.06824
2777.26067	0.06797
2775.97490	0.06762
2774.68913	0.06727
2773.40336	0.06696
2772.11759	0.06669
2770.83182	0.06644
2769.54605	0.06623
2768.26028	0.06611
2766.97452	0.06609
2765.68875	0.06608
2764.40298	0.06602
2763.11721	0.06595
2761.83144	0.06592
2760.54567	0.06590
2759.25990	0.06584
2757.97413	0.06566
2756.68836	0.06535
2755.40260	0.06495
2754.11683	0.06463
2752.83106	0.06454
2751.54529	0.06462
2750.25952	0.06471
2748.97375	0.06476
2747.68798	0.06477
2746.40221	0.06473
2745.11645	0.06452
2743.83068	0.06415
2742.54491	0.06379
2741.25914	0.06358
2739.97337	0.06352
2738.68760	0.06348
2737.40183	0.06339
2736.11606	0.06326
2734.83029	0.06312
2733.54453	0.06298
2732.25876	0.06284
2730.97299	0.06272
2729.68722	0.06267
2728.40145	0.06265
2727.11568	0.06262
2725.82991	0.06255
2724.54414	0.06244
2723.25838	0.06226
2721.97261	0.06203
2720.68684	0.06184
2719.40107	0.06174
2718.11530	0.06172
2716.82953	0.06167
2715.54376	0.06155
2714.25799	0.06139
2712.97222	0.06124
2711.68646	0.06109
2710.40069	0.06087
2709.11492	0.06064
2707.82915	0.06052
2706.54338	0.06058
2705.25761	0.06070
2703.97184	0.06067
2702.68607	0.06046
2701.40031	0.06017
2700.11454	0.05996
2698.82877	0.05992
2697.54300	0.06002
2696.25723	0.06017
2694.97146	0.06021
2693.68569	0.06005
2692.39992	0.05974
2691.11415	0.05941
2689.82839	0.05919
2688.54262	0.05911
2687.25685	0.05912
2685.97108	0.05914
2684.68531	0.05910
2683.39954	0.05904
2682.11377	0.05902
2680.82800	0.05903
2679.54224	0.05897
2678.25647	0.05880
2676.97070	0.05856
2675.68493	0.05832
2674.39916	0.05811
2673.11339	0.05792
2671.82762	0.05776
2670.54185	0.05764
2669.25608	0.05757
2667.97032	0.05761
2666.68455	0.05780
2665.39878	0.05810
2664.11301	0.05838
2662.82724	0.05856
2661.54147	0.05857
2660.25570	0.05843
2658.96993	0.05820
2657.68417	0.05798
2656.39840	0.05781
2655.11263	0.05764
2653.82686	0.05741
2652.54109	0.05717
2651.25532	0.05698
2649.96955	0.05685
2648.68378	0.05672
2647.39801	0.05651
2646.11225	0.05621
2644.82648	0.05584
2643.54071	0.05549
2642.25494	0.05521
2640.96917	0.05502
2639.68340	0.05484
2638.39763	0.05460
2637.11186	0.05428
2635.82609	0.05396
2634.54033	0.05376
2633.25456	0.05372
2631.96879	0.05379
2630.68302	0.05381
2629.39725	0.05368
2628.11148	0.05346
2626.82571	0.05326
2625.53994	0.05311
2624.25418	0.05289
2622.96841	0.05255
2621.68264	0.05221
2620.39687	0.05201
2619.11110	0.05195
2617.82533	0.05187
2616.53956	0.05167
2615.25379	0.05143
2613.96802	0.05130
2612.68226	0.05126
2611.39649	0.05116
2610.11072	0.05089
2608.82495	0.05060
2607.53918	0.05050
2606.25341	0.05056
2604.96764	0.05061
2603.68187	0.05048
2602.39611	0.05023
2601.11034	0.04993
2599.82457	0.04962
2598.53880	0.04930
2597.25303	0.04908
2595.96726	0.04907
2594.68149	0.04924
2593.39572	0.04937
2592.10995	0.04919
2590.82419	0.04865
2589.53842	0.04803
2588.25265	0.04765
2586.96688	0.04757
2585.68111	0.04763
2584.39534	0.04764
2583.10957	0.04755
2581.82380	0.04745
2580.53804	0.04739
2579.25227	0.04735
2577.96650	0.04734
2576.68073	0.04735
2575.39496	0.04737
2574.10919	0.04729
2572.82342	0.04704
2571.53765	0.04673
2570.25188	0.04653
2568.96612	0.04647
2567.68035	0.04638
2566.39458	0.04603
2565.10881	0.04540
2563.82304	0.04474
2562.53727	0.04447
2561.25150	0.04477
2559.96573	0.04531
2558.67997	0.04558
2557.39420	0.04539
2556.10843	0.04501
2554.82266	0.04482
2553.53689	0.04496
2552.25112	0.04527
2550.96535	0.04554
2549.67958	0.04560
2548.39381	0.04541
2547.10805	0.04510
2545.82228	0.04490
2544.53651	0.04492
2543.25074	0.04499
2541.96497	0.04482
2540.67920	0.04433
2539.39343	0.04371
2538.10766	0.04323
2536.82190	0.04309
2535.53613	0.04333
2534.25036	0.04380
2532.96459	0.04419
2531.67882	0.04426
2530.39305	0.04403
2529.10728	0.04375
2527.82151	0.04356
2526.53574	0.04343
2525.24998	0.04321
2523.96421	0.04290
2522.67844	0.04261
2521.39267	0.04248
2520.10690	0.04250
2518.82113	0.04258
2517.53536	0.04260
2516.24959	0.04258
2514.96383	0.04259
2513.67806	0.04268
2512.39229	0.04289
2511.10652	0.04319
2509.82075	0.04346
2508.53498	0.04356
2507.24921	0.04340
2505.96344	0.04304
2504.67767	0.04262
2503.39191	0.04222
2502.10614	0.04179
2500.82037	0.04133
2499.53460	0.04099
2498.24883	0.04089
2496.96306	0.04098
2495.67729	0.04116
2494.39152	0.04138
2493.10576	0.04163
2491.81999	0.04187
2490.53422	0.04204
2489.24845	0.04205
2487.96268	0.04176
2486.67691	0.04118
2485.39114	0.04057
2484.10537	0.04026
2482.81960	0.04033
2481.53384	0.04055
2480.24807	0.04076
2478.96230	0.04099
2477.67653	0.04129
2476.39076	0.04157
2475.10499	0.04161
2473.81922	0.04134
2472.53345	0.04091
2471.24769	0.04050
2469.96192	0.04023
2468.67615	0.04010
2467.39038	0.04007
2466.10461	0.04010
2464.81884	0.04019
2463.53307	0.04036
2462.24730	0.04064
2460.96153	0.04098
2459.67577	0.04122
2458.39000	0.04119
2457.10423	0.04085
2455.81846	0.04043
2454.53269	0.04022
2453.24692	0.04032
2451.96115	0.04050
2450.67538	0.04048
2449.38962	0.04026
2448.10385	0.04006
2446.81808	0.04000
2445.53231	0.03997
2444.24654	0.03982
2442.96077	0.03955
2441.67500	0.03931
2440.38923	0.03919
2439.10346	0.03926
2437.81770	0.03943
2436.53193	0.03959
2435.24616	0.03976
2433.96039	0.04010
2432.67462	0.04067
2431.38885	0.04124
2430.10308	0.04148
2428.81731	0.04124
2427.53155	0.04074
2426.24578	0.04024
2424.96001	0.03980
2423.67424	0.03939
2422.38847	0.03899
2421.10270	0.03861
2419.81693	0.03831
2418.53116	0.03813
2417.24539	0.03813
2415.95963	0.03824
2414.67386	0.03834
2413.38809	0.03838
2412.10232	0.03842
2410.81655	0.03848
2409.53078	0.03851
2408.24501	0.03846
2406.95924	0.03846
2405.67347	0.03860
2404.38771	0.03883
2403.10194	0.03898
2401.81617	0.03900
2400.53040	0.03888
2399.24463	0.03856
2397.95886	0.03828
2396.67309	0.03817
2395.38732	0.03828
2394.10156	0.03853
2392.81579	0.03873
2391.53002	0.03874
2390.24425	0.03863
2388.95848	0.03857
2387.67271	0.03863
2386.38694	0.03875
2385.10117	0.03889
2383.81540	0.03907
2382.52964	0.03929
2381.24387	0.03951
2379.95810	0.03964
2378.67233	0.03965
2377.38656	0.03963
2376.10079	0.03972
2374.81502	0.03993
2373.52925	0.04023
2372.24349	0.04053
2370.95772	0.04080
2369.67195	0.04100
2368.38618	0.04113
2367.10041	0.04123
2365.81464	0.04139
2364.52887	0.04164
2363.24310	0.04190
2361.95733	0.04207
2360.67157	0.04209
2359.38580	0.04200
2358.10003	0.04185
2356.81426	0.04168
2355.52849	0.04145
2354.24272	0.04116
2352.95695	0.04084
2351.67118	0.04057
2350.38542	0.04039
2349.09965	0.04030
2347.81388	0.04031
2346.52811	0.04040
2345.24234	0.04055
2343.95657	0.04072
2342.67080	0.04086
2341.38503	0.04095
2340.09926	0.04097
2338.81350	0.04095
2337.52773	0.04094
2336.24196	0.04100
2334.95619	0.04112
2333.67042	0.04124
2332.38465	0.04126
2331.09888	0.04110
2329.81311	0.04080
2328.52735	0.04052
2327.24158	0.04044
2325.95581	0.04060
2324.67004	0.04087
2323.38427	0.04104
2322.09850	0.04097
2320.81273	0.04065
2319.52696	0.04014
2318.24119	0.03956
2316.95543	0.03908
2315.66966	0.03881
2314.38389	0.03867
2313.09812	0.03847
2311.81235	0.03811
2310.52658	0.03764
2309.24081	0.03717
2307.95504	0.03673
2306.66928	0.03636
2305.38351	0.03610
2304.09774	0.03597
2302.81197	0.03589
2301.52620	0.03577
2300.24043	0.03563
2298.95466	0.03552
2297.66889	0.03549
2296.38312	0.03554
2295.09736	0.03567
2293.81159	0.03583
2292.52582	0.03594
2291.24005	0.03591
2289.95428	0.03572
2288.66851	0.03544
2287.38274	0.03512
2286.09697	0.03480
2284.81121	0.03452
2283.52544	0.03430
2282.23967	0.03409
2280.95390	0.03385
2279.66813	0.03364
2278.38236	0.03359
2277.09659	0.03372
2275.81082	0.03389
2274.52505	0.03401
2273.23929	0.03404
2271.95352	0.03394
2270.66775	0.03362
2269.38198	0.03296
2268.09621	0.03208
2266.81044	0.03120
2265.52467	0.03061
2264.23890	0.03042
2262.95314	0.03056
2261.66737	0.03081
2260.38160	0.03097
2259.09583	0.03097
2257.81006	0.03080
2256.52429	0.03046
2255.23852	0.02993
2253.95275	0.02920
2252.66698	0.02841
2251.38122	0.02786
2250.09545	0.02794
2248.80968	0.02884
2247.52391	0.02983
2246.23814	0.03051
2244.95237	0.03048
2243.66660	0.02992
2242.38083	0.02935
2241.09507	0.02894
2239.80930	0.02847
2238.52353	0.02784
2237.23776	0.02736
2235.95199	0.02735
2234.66622	0.02764
2233.38045	0.02784
2232.09468	0.02779
2230.80891	0.02768
2229.52315	0.02763
2228.23738	0.02754
2226.95161	0.02737
2225.66584	0.02718
2224.38007	0.02704
2223.09430	0.02683
2221.80853	0.02649
2220.52276	0.02604
2219.23700	0.02560
2217.95123	0.02549
2216.66546	0.02602
2215.37969	0.02710
2214.09392	0.02806
2212.80815	0.02826
2211.52238	0.02769
2210.23661	0.02695
2208.95084	0.02661
2207.66508	0.02677
2206.37931	0.02709
2205.09354	0.02724
2203.80777	0.02713
2202.52200	0.02679
2201.23623	0.02619
2199.95046	0.02528
2198.66469	0.02433
2197.37893	0.02370
2196.09316	0.02341
2194.80739	0.02321
2193.52162	0.02299
2192.23585	0.02289
2190.95008	0.02297
2189.66431	0.02318
2188.37854	0.02349
2187.09277	0.02378
2185.80701	0.02372
2184.52124	0.02306
2183.23547	0.02203
2181.94970	0.02130
2180.66393	0.02143
2179.37816	0.02223
2178.09239	0.02286
2176.80662	0.02268
2175.52085	0.02195
2174.23509	0.02143
2172.94932	0.02123
2171.66355	0.02078
2170.37778	0.01984
2169.09201	0.01900
2167.80624	0.01890
2166.52047	0.01940
2165.23470	0.01982
2163.94894	0.01984
2162.66317	0.01967
2161.37740	0.01960
2160.09163	0.01957
2158.80586	0.01942
2157.52009	0.01914
2156.23432	0.01881
2154.94855	0.01841
2153.66278	0.01802
2152.37702	0.01789
2151.09125	0.01815
2149.80548	0.01869
2148.51971	0.01933
2147.23394	0.02011
2145.94817	0.02100
2144.66240	0.02176
2143.37663	0.02215
2142.09087	0.02215
2140.80510	0.02201
2139.51933	0.02187
2138.23356	0.02179
2136.94779	0.02185
2135.66202	0.02218
2134.37625	0.02275
2133.09048	0.02329
2131.80471	0.02359
2130.51895	0.02369
2129.23318	0.02375
2127.94741	0.02383
2126.66164	0.02386
2125.37587	0.02382
2124.09010	0.02391
2122.80433	0.02440
2121.51856	0.02532
2120.23280	0.02630
2118.94703	0.02685
2117.66126	0.02675
2116.37549	0.02631
2115.08972	0.02589
2113.80395	0.02560
2112.51818	0.02530
2111.23241	0.02500
2109.94664	0.02489
2108.66088	0.02504
2107.37511	0.02534
2106.08934	0.02567
2104.80357	0.02592
2103.51780	0.02589
2102.23203	0.02533
2100.94626	0.02441
2099.66049	0.02597
2098.37473	0.02659
2097.08896	0.02623
2095.80319	0.02565
2094.51742	0.02504
2093.23165	0.02454
2091.94588	0.02420
2090.66011	0.02400
2089.37434	0.02395
2088.08857	0.02405
2086.80281	0.02419
2085.51704	0.02417
2084.23127	0.02396
2082.94550	0.02374
2081.65973	0.02366
2080.37396	0.02376
2079.08819	0.02399
2077.80242	0.02434
2076.51666	0.02478
2075.23089	0.02527
2073.94512	0.02581
2072.65935	0.02633
2071.37358	0.02675
2070.08781	0.02696
2068.80204	0.02694
2067.51627	0.02673
2066.23050	0.02639
2064.94474	0.02598
2063.65897	0.02553
2062.37320	0.02503
2061.08743	0.02445
2059.80166	0.02381
2058.51589	0.02320
2057.23012	0.02266
2055.94435	0.02219
2054.65859	0.02194
2053.37282	0.02221
2052.08705	0.02312
2050.80128	0.02432
2049.51551	0.02516
2048.22974	0.02521
2046.94397	0.02451
2045.65820	0.02340
2044.37243	0.02219
2043.08667	0.02113
2041.80090	0.02041
2040.51513	0.02010
2039.22936	0.02008
2037.94359	0.02017
2036.65782	0.02037
2035.37205	0.02083
2034.08628	0.02164
2032.80052	0.02250
2031.51475	0.02297
2030.22898	0.02289
2028.94321	0.02258
2027.65744	0.02240
2026.37167	0.02227
2025.08590	0.02182
2023.80013	0.02086
2022.51436	0.01964
2021.22860	0.01871
2019.94283	0.01844
2018.65706	0.01866
2017.37129	0.01878
2016.08552	0.01845
2014.79975	0.01802
2013.51398	0.01838
2012.22821	0.02012
2010.94245	0.02281
2009.65668	0.02529
2008.37091	0.02650
2007.08514	0.02623
2005.79937	0.02503
2004.51360	0.02347
2003.22783	0.02174
2001.94206	0.01988
2000.65629	0.01823
1999.37053	0.01723
1998.08476	0.01704
1996.79899	0.01727
1995.51322	0.01729
1994.22745	0.01679
1992.94168	0.01610
1991.65591	0.01575
1990.37014	0.01596
1989.08438	0.01656
1987.79861	0.01730
1986.51284	0.01800
1985.22707	0.01852
1983.94130	0.01878
1982.65553	0.01903
1981.36976	0.01977
1980.08399	0.02122
1978.79822	0.02290
1977.51246	0.02399
1976.22669	0.02419
1974.94092	0.02381
1973.65515	0.02323
1972.36938	0.02242
1971.08361	0.02127
1969.79784	0.02003
1968.51207	0.01926
1967.22631	0.01924
1965.94054	0.01965
1964.65477	0.01992
1963.36900	0.01979
1962.08323	0.01947
1960.79746	0.01927
1959.51169	0.01923
1958.22592	0.01917
1956.94015	0.01904
1955.65439	0.01898
1954.36862	0.01918
1953.08285	0.01968
1951.79708	0.02036
1950.51131	0.02099
1949.22554	0.02134
1947.93977	0.02133
1946.65400	0.02106
1945.36823	0.02078
1944.08247	0.02079
1942.79670	0.02120
1941.51093	0.02178
1940.22516	0.02217
1938.93939	0.02216
1937.65362	0.02184
1936.36785	0.02148
1935.08208	0.02133
1933.79632	0.02149
1932.51055	0.02187
1931.22478	0.02223
1929.93901	0.02240
1928.65324	0.02238
1927.36747	0.02228
1926.08170	0.02221
1924.79593	0.02220
1923.51016	0.02228
1922.22440	0.02248
1920.93863	0.02272
1919.65286	0.02292
1918.36709	0.02297
1917.08132	0.02278
1915.79555	0.02233
1914.50978	0.02177
1913.22401	0.02137
1911.93825	0.02137
1910.65248	0.02176
1909.36671	0.02225
1908.08094	0.02255
1906.79517	0.02251
1905.50940	0.02223
1904.22363	0.02189
1902.93786	0.02162
1901.65209	0.02147
1900.36633	0.02145
1899.08056	0.02153
1897.79479	0.02168
1896.50902	0.02178
1895.22325	0.02170
1893.93748	0.02144
1892.65171	0.02121
1891.36594	0.02121
1890.08018	0.02146
1888.79441	0.02182
1887.50864	0.02210
1886.22287	0.02224
1884.93710	0.02222
1883.65133	0.02208
1882.36556	0.02190
1881.07979	0.02176
1879.79402	0.02173
1878.50826	0.02181
1877.22249	0.02200
1875.93672	0.02223
1874.65095	0.02239
1873.36518	0.02243
1872.07941	0.02240
1870.79364	0.02236
1869.50787	0.02230
1868.22211	0.02215
1866.93634	0.02188
1865.65057	0.02156
1864.36480	0.02133
1863.07903	0.02123
1861.79326	0.02122
1860.50749	0.02120
1859.22172	0.02117
1857.93595	0.02126
1856.65019	0.02147
1855.36442	0.02163
1854.07865	0.02156
1852.79288	0.02128
1851.50711	0.02096
1850.22134	0.02078
1848.93557	0.02079
1847.64980	0.02089
1846.36404	0.02092
1845.07827	0.02078
1843.79250	0.02052
1842.50673	0.02024
1841.22096	0.02007
1839.93519	0.02002
1838.64942	0.02002
1837.36365	0.01999
1836.07788	0.01994
1834.79212	0.01994
1833.50635	0.02006
1832.22058	0.02031
1830.93481	0.02066
1829.64904	0.02106
1828.36327	0.02142
1827.07750	0.02170
1825.79173	0.02185
1824.50597	0.02195
1823.22020	0.02212
1821.93443	0.02238
1820.64866	0.02261
1819.36289	0.02257
1818.07712	0.02213
1816.79135	0.02141
1815.50558	0.02065
1814.21981	0.02007
1812.93405	0.01974
1811.64828	0.01960
1810.36251	0.01956
1809.07674	0.01954
1807.79097	0.01951
1806.50520	0.01948
1805.21943	0.01944
1803.93366	0.01943
1802.64790	0.01948
1801.36213	0.01963
1800.07636	0.01983
1798.79059	0.01999
1797.50482	0.02005
1796.21905	0.02006
1794.93328	0.02011
1793.64751	0.02025
1792.36174	0.02042
1791.07598	0.02053
1789.79021	0.02056
1788.50444	0.02054
1787.21867	0.02049
1785.93290	0.02043
1784.64713	0.02036
1783.36136	0.02030
1782.07559	0.02030
1780.78983	0.02038
1779.50406	0.02044
1778.21829	0.02040
1776.93252	0.02023
1775.64675	0.01998
1774.36098	0.01975
1773.07521	0.01957
1771.78944	0.01942
1770.50367	0.01929
1769.21791	0.01918
1767.93214	0.01910
1766.64637	0.01907
1765.36060	0.01910
1764.07483	0.01919
1762.78906	0.01930
1761.50329	0.01937
1760.21752	0.01940
1758.93176	0.01941
1757.64599	0.01943
1756.36022	0.01950
1755.07445	0.01963
1753.78868	0.01979
1752.50291	0.01994
1751.21714	0.02004
1749.93137	0.02012
1748.64560	0.02022
1747.35984	0.02037
1746.07407	0.02056
1744.78830	0.02077
1743.50253	0.02099
1742.21676	0.02120
1740.93099	0.02139
1739.64522	0.02157
1738.35945	0.02177
1737.07369	0.02202
1735.78792	0.02232
1734.50215	0.02263
1733.21638	0.02290
1731.93061	0.02310
1730.64484	0.02326
1729.35907	0.02340
1728.07330	0.02352
1726.78753	0.02360
1725.50177	0.02365
1724.21600	0.02372
1722.93023	0.02388
1721.64446	0.02419
1720.35869	0.02466
1719.07292	0.02522
1717.78715	0.02577
1716.50138	0.02626
1715.21561	0.02672
1713.92985	0.02722
1712.64408	0.02781
1711.35831	0.02852
1710.07254	0.02938
1708.78677	0.03045
1707.50100	0.03173
1706.21523	0.03317
1704.92946	0.03471
1703.64370	0.03635
1702.35793	0.03814
1701.07216	0.04012
1699.78639	0.04223
1698.50062	0.04440
1697.21485	0.04660
1695.92908	0.04880
1694.64331	0.05101
1693.35754	0.05319
1692.07178	0.05534
1690.78601	0.05749
1689.50024	0.05965
1688.21447	0.06189
1686.92870	0.06428
1685.64293	0.06685
1684.35716	0.06954
1683.07139	0.07223
1681.78563	0.07489
1680.49986	0.07756
1679.21409	0.08030
1677.92832	0.08313
1676.64255	0.08603
1675.35678	0.08896
1674.07101	0.09191
1672.78524	0.09490
1671.49947	0.09795
1670.21371	0.10107
1668.92794	0.10423
1667.64217	0.10737
1666.35640	0.11046
1665.07063	0.11351
1663.78486	0.11651
1662.49909	0.11944
1661.21332	0.12226
1659.92756	0.12492
1658.64179	0.12741
1657.35602	0.12971
1656.07025	0.13188
1654.78448	0.13398
1653.49871	0.13601
1652.21294	0.13788
1650.92717	0.13949
1649.64140	0.14087
1648.35564	0.14213
1647.06987	0.14331
1645.78410	0.14440
1644.49833	0.14537
1643.21256	0.14624
1641.92679	0.14707
1640.64102	0.14786
1639.35525	0.14858
1638.06949	0.14918
1636.78372	0.14968
1635.49795	0.15008
1634.21218	0.15034
1632.92641	0.15040
1631.64064	0.15021
1630.35487	0.14973
1629.06910	0.14893
1627.78333	0.14775
1626.49757	0.14619
1625.21180	0.14431
1623.92603	0.14221
1622.64026	0.13991
1621.35449	0.13741
1620.06872	0.13469
1618.78295	0.13178
1617.49718	0.12873
1616.21142	0.12562
1614.92565	0.12252
1613.63988	0.11947
1612.35411	0.11647
1611.06834	0.11351
1609.78257	0.11056
1608.49680	0.10763
1607.21103	0.10479
1605.92526	0.10211
1604.63950	0.09960
1603.35373	0.09725
1602.06796	0.09504
1600.78219	0.09297
1599.49642	0.09106
1598.21065	0.08935
1596.92488	0.08783
1595.63911	0.08644
1594.35335	0.08517
1593.06758	0.08404
1591.78181	0.08309
1590.49604	0.08235
1589.21027	0.08180
1587.92450	0.08136
1586.63873	0.08102
1585.35296	0.08079
1584.06719	0.08068
1582.78143	0.08072
1581.49566	0.08091
1580.20989	0.08127
1578.92412	0.08180
1577.63835	0.08247
1576.35258	0.08326
1575.06681	0.08415
1573.78104	0.08519
1572.49528	0.08642
1571.20951	0.08783
1569.92374	0.08936
1568.63797	0.09092
1567.35220	0.09246
1566.06643	0.09402
1564.78066	0.09564
1563.49489	0.09737
1562.20912	0.09921
1560.92336	0.10114
1559.63759	0.10307
1558.35182	0.10491
1557.06605	0.10663
1555.78028	0.10830
1554.49451	0.10995
1553.20874	0.11160
1551.92297	0.11316
1550.63721	0.11460
1549.35144	0.11588
1548.06567	0.11704
1546.77990	0.11812
1545.49413	0.11914
1544.20836	0.12008
1542.92259	0.12091
1541.63682	0.12161
1540.35105	0.12216
1539.06529	0.12257
1537.77952	0.12284
1536.49375	0.12301
1535.20798	0.12311
1533.92221	0.12318
1532.63644	0.12319
1531.35067	0.12313
1530.06490	0.12300
1528.77914	0.12284
1527.49337	0.12260
1526.20760	0.12227
1524.92183	0.12183
1523.63606	0.12132
1522.35029	0.12082
1521.06452	0.12034
1519.77875	0.11985
1518.49298	0.11928
1517.20722	0.11857
1515.92145	0.11764
1514.63568	0.11646
1513.34991	0.11505
1512.06414	0.11348
1510.77837	0.11180
1509.49260	0.11007
1508.20683	0.10830
1506.92107	0.10645
1505.63530	0.10446
1504.34953	0.10234
1503.06376	0.10016
1501.77799	0.09800
1500.49222	0.09589
1499.20645	0.09381
1497.92068	0.09171
1496.63491	0.08954
1495.34915	0.08733
1494.06338	0.08516
1492.77761	0.08309
1491.49184	0.08115
1490.20607	0.07932
1488.92030	0.07756
1487.63453	0.07587
1486.34876	0.07428
1485.06299	0.07284
1483.77723	0.07159
1482.49146	0.07055
1481.20569	0.06975
1479.91992	0.06921
1478.63415	0.06893
1477.34838	0.06889
1476.06261	0.06907
1474.77684	0.06944
1473.49108	0.06999
1472.20531	0.07069
1470.91954	0.07148
1469.63377	0.07230
1468.34800	0.07312
1467.06223	0.07390
1465.77646	0.07464
1464.49069	0.07537
1463.20492	0.07611
1461.91916	0.07691
1460.63339	0.07781
1459.34762	0.07882
1458.06185	0.07994
1456.77608	0.08105
1455.49031	0.08201
1454.20454	0.08274
1452.91877	0.08325
1451.63301	0.08361
1450.34724	0.08386
1449.06147	0.08398
1447.77570	0.08393
1446.48993	0.08372
1445.20416	0.08341
1443.91839	0.08301
1442.63262	0.08249
1441.34685	0.08186
1440.06109	0.08113
1438.77532	0.08034
1437.48955	0.07952
1436.20378	0.07867
1434.91801	0.07779
1433.63224	0.07691
1432.34647	0.07605
1431.06070	0.07524
1429.77494	0.07451
1428.48917	0.07392
1427.20340	0.07350
1425.91763	0.07323
1424.63186	0.07305
1423.34609	0.07293
1422.06032	0.07287
1420.77455	0.07289
1419.48878	0.07296
1418.20302	0.07299
1416.91725	0.07295
1415.63148	0.07289
1414.34571	0.07289
1413.05994	0.07299
1411.77417	0.07314
1410.48840	0.07329
1409.20263	0.07344
1407.91687	0.07360
1406.63110	0.07379
1405.34533	0.07400
1404.05956	0.07418
1402.77379	0.07430
1401.48802	0.07435
1400.20225	0.07435
1398.91648	0.07432
1397.63071	0.07429
1396.34495	0.07424
1395.05918	0.07416
1393.77341	0.07404
1392.48764	0.07386
1391.20187	0.07363
1389.91610	0.07341
1388.63033	0.07325
1387.34456	0.07314
1386.05880	0.07303
1384.77303	0.07283
1383.48726	0.07251
1382.20149	0.07209
1380.91572	0.07166
1379.62995	0.07123
1378.34418	0.07080
1377.05841	0.07037
1375.77264	0.06991
1374.48688	0.06941
1373.20111	0.06887
1371.91534	0.06832
1370.62957	0.06775
1369.34380	0.06714
1368.05803	0.06647
1366.77226	0.06569
1365.48649	0.06484
1364.20073	0.06401
1362.91496	0.06329
1361.62919	0.06271
1360.34342	0.06226
1359.05765	0.06189
1357.77188	0.06157
1356.48611	0.06131
1355.20034	0.06111
1353.91457	0.06101
1352.62881	0.06105
1351.34304	0.06120
1350.05727	0.06140
1348.77150	0.06160
1347.48573	0.06179
1346.19996	0.06198
1344.91419	0.06222
1343.62842	0.06252
1342.34266	0.06286
1341.05689	0.06320
1339.77112	0.06349
1338.48535	0.06371
1337.19958	0.06383
1335.91381	0.06384
1334.62804	0.06371
1333.34227	0.06347
1332.05650	0.06315
1330.77074	0.06281
1329.48497	0.06248
1328.19920	0.06215
1326.91343	0.06183
1325.62766	0.06153
1324.34189	0.06128
1323.05612	0.06109
1321.77035	0.06097
1320.48459	0.06090
1319.19882	0.06086
1317.91305	0.06083
1316.62728	0.06077
1315.34151	0.06066
1314.05574	0.06052
1312.76997	0.06036
1311.48420	0.06021
1310.19843	0.06005
1308.91267	0.05987
1307.62690	0.05968
1306.34113	0.05952
1305.05536	0.05939
1303.76959	0.05927
1302.48382	0.05913
1301.19805	0.05897
1299.91228	0.05879
1298.62652	0.05865
1297.34075	0.05854
1296.05498	0.05845
1294.76921	0.05842
1293.48344	0.05848
1292.19767	0.05866
1290.91190	0.05893
1289.62613	0.05923
1288.34036	0.05955
1287.05460	0.05990
1285.76883	0.06028
1284.48306	0.06064
1283.19729	0.06091
1281.91152	0.06108
1280.62575	0.06119
1279.33998	0.06128
1278.05421	0.06138
1276.76845	0.06147
1275.48268	0.06155
1274.19691	0.06163
1272.91114	0.06172
1271.62537	0.06186
1270.33960	0.06205
1269.05383	0.06231
1267.76806	0.06260
1266.48229	0.06289
1265.19653	0.06317
1263.91076	0.06349
1262.62499	0.06388
1261.33922	0.06435
1260.05345	0.06486
1258.76768	0.06537
1257.48191	0.06587
1256.19614	0.06634
1254.91037	0.06680
1253.62461	0.06728
1252.33884	0.06781
1251.05307	0.06840
1249.76730	0.06906
1248.48153	0.06977
1247.19576	0.07049
1245.90999	0.07120
1244.62422	0.07190
1243.33846	0.07257
1242.05269	0.07318
1240.76692	0.07372
1239.48115	0.07419
1238.19538	0.07462
1236.90961	0.07500
1235.62384	0.07526
1234.33807	0.07535
1233.05230	0.07526
1231.76654	0.07502
1230.48077	0.07464
1229.19500	0.07414
1227.90923	0.07355
1226.62346	0.07290
1225.33769	0.07223
1224.05192	0.07152
1222.76615	0.07077
1221.48039	0.06999
1220.19462	0.06924
1218.90885	0.06856
1217.62308	0.06793
1216.33731	0.06731
1215.05154	0.06672
1213.76577	0.06621
1212.48000	0.06583
1211.19423	0.06559
1209.90847	0.06548
1208.62270	0.06545
1207.33693	0.06545
1206.05116	0.06543
1204.76539	0.06537
1203.47962	0.06527
1202.19385	0.06511
1200.90808	0.06473
1199.62232	0.06404
1198.33655	0.06365
1197.05078	0.06321
1195.76501	0.06271
1194.47924	0.06217
1193.19347	0.06160
1191.90770	0.06104
1190.62193	0.06051
1189.33616	0.05999
1188.05040	0.05949
1186.76463	0.05901
1185.47886	0.05861
1184.19309	0.05831
1182.90732	0.05809
1181.62155	0.05792
1180.33578	0.05780
1179.05001	0.05772
1177.76425	0.05769
1176.47848	0.05769
1175.19271	0.05772
1173.90694	0.05776
1172.62117	0.05779
1171.33540	0.05781
1170.04963	0.05782
1168.76386	0.05781
1167.47809	0.05781
1166.19233	0.05786
1164.90656	0.05799
1163.62079	0.05816
1162.33502	0.05829
1161.04925	0.05836
1159.76348	0.05835
1158.47771	0.05826
1157.19194	0.05806
1155.90618	0.05777
1154.62041	0.05744
1153.33464	0.05709
1152.04887	0.05672
1150.76310	0.05634
1149.47733	0.05596
1148.19156	0.05564
1146.90579	0.05539
1145.62002	0.05520
1144.33426	0.05502
1143.04849	0.05480
1141.76272	0.05452
1140.47695	0.05423
1139.19118	0.05396
1137.90541	0.05373
1136.61964	0.05355
1135.33387	0.05342
1134.04811	0.05333
1132.76234	0.05330
1131.47657	0.05334
1130.19080	0.05346
1128.90503	0.05358
1127.61926	0.05368
1126.33349	0.05374
1125.04772	0.05379
1123.76195	0.05386
1122.47619	0.05398
1121.19042	0.05416
1119.90465	0.05442
1118.61888	0.05468
1117.33311	0.05489
1116.04734	0.05507
1114.76157	0.05527
1113.47580	0.05552
1112.19004	0.05584
1110.90427	0.05621
1109.61850	0.05667
1108.33273	0.05716
1107.04696	0.05761
1105.76119	0.05798
1104.47542	0.05829
1103.18965	0.05858
1101.90388	0.05887
1100.61812	0.05918
1099.33235	0.05951
1098.04658	0.05983
1096.76081	0.06010
1095.47504	0.06032
1094.18927	0.06055
1092.90350	0.06084
1091.61773	0.06119
1090.33197	0.06155
1089.04620	0.06193
1087.76043	0.06240
1086.47466	0.06298
1085.18889	0.06361
1083.90312	0.06418
1082.61735	0.06467
1081.33158	0.06508
1080.04581	0.06542
1078.76005	0.06569
1077.47428	0.06584
1076.18851	0.06584
1074.90274	0.06573
1073.61697	0.06557
1072.33120	0.06542
1071.04543	0.06526
1069.75966	0.06506
1068.47390	0.06482
1067.18813	0.06456
1065.90236	0.06431
1064.61659	0.06410
1063.33082	0.06395
1062.04505	0.06381
1060.75928	0.06365
1059.47351	0.06346
1058.18774	0.06326
1056.90198	0.06307
1055.61621	0.06288
1054.33044	0.06266
1053.04467	0.06242
1051.75890	0.06221
1050.47313	0.06209
1049.18736	0.06211
1047.90159	0.06225
1046.61583	0.06246
1045.33006	0.06267
1044.04429	0.06288
1042.75852	0.06312
1041.47275	0.06339
1040.18698	0.06367
1038.90121	0.06384
1037.61544	0.06370
1036.32967	0.06310
1035.04391	0.06219
1033.75814	0.06156
1032.47237	0.06170
1031.18660	0.06252
1029.90083	0.06339
1028.61506	0.06377
1027.32929	0.06352
1026.04352	0.06286
1024.75775	0.06201
1023.47199	0.06110
1022.18622	0.06020
1020.90045	0.05932
1019.61468	0.05845
1018.32891	0.05757
1017.04314	0.05665
1015.75737	0.05573
1014.47160	0.05487
1013.18584	0.05411
1011.90007	0.05343
1010.61430	0.05281
1009.32853	0.05223
1008.04276	0.05171
1006.75699	0.05122
1005.47122	0.05075
1004.18545	0.05023
1002.89968	0.04968
1001.61392	0.04914
1000.32815	0.04869
999.04238	0.04837
997.75661	0.04814
996.47084	0.04793
995.18507	0.04769
993.89930	0.04739
992.61353	0.04708
991.32777	0.04679
990.04200	0.04654
988.75623	0.04632
987.47046	0.04609
986.18469	0.04585
984.89892	0.04560
983.61315	0.04536
982.32738	0.04513
981.04161	0.04493
979.75585	0.04478
978.47008	0.04474
977.18431	0.04480
975.89854	0.04488
974.61277	0.04485
973.32700	0.04466
972.04123	0.04436
970.75546	0.04405
969.46970	0.04382
968.18393	0.04369
966.89816	0.04360
965.61239	0.04350
964.32662	0.04334
963.04085	0.04308
961.75508	0.04273
960.46931	0.04237
959.18354	0.04208
957.89778	0.04189
956.61201	0.04172
955.32624	0.04152
954.04047	0.04131
952.75470	0.04113
951.46893	0.04100
950.18316	0.04090
948.89739	0.04079
947.61163	0.04070
946.32586	0.04066
945.04009	0.04064
943.75432	0.04060
942.46855	0.04052
941.18278	0.04041
939.89701	0.04026
938.61124	0.04006
937.32547	0.03982
936.03971	0.03963
934.75394	0.03952
933.46817	0.03946
932.18240	0.03937
930.89663	0.03920
929.61086	0.03898
928.32509	0.03873
927.03932	0.03853
925.75356	0.03841
924.46779	0.03836
923.18202	0.03832
921.89625	0.03820
920.61048	0.03801
919.32471	0.03778
918.03894	0.03753
916.75317	0.03726
915.46740	0.03692
914.18164	0.03657
912.89587	0.03629
911.61010	0.03612
910.32433	0.03604
909.03856	0.03595
907.75279	0.03581
906.46702	0.03567
905.18125	0.03554
903.89549	0.03541
902.60972	0.03523
901.32395	0.03503
900.03818	0.03484
898.75241	0.03468
897.46664	0.03452
896.18087	0.03434
894.89510	0.03417
893.60933	0.03402
892.32357	0.03386
891.03780	0.03371
889.75203	0.03361
888.46626	0.03356
887.18049	0.03352
885.89472	0.03343
884.60895	0.03333
883.32318	0.03329
882.03742	0.03337
880.75165	0.03359
879.46588	0.03387
878.18011	0.03408
876.89434	0.03410
875.60857	0.03392
874.32280	0.03368
873.03703	0.03352
871.75126	0.03351
870.46550	0.03356
869.17973	0.03359
867.89396	0.03349
866.60819	0.03327
865.32242	0.03301
864.03665	0.03285
862.75088	0.03284
861.46511	0.03292
860.17935	0.03298
858.89358	0.03299
857.60781	0.03296
856.32204	0.03291
855.03627	0.03283
853.75050	0.03278
852.46473	0.03279
851.17896	0.03284
849.89319	0.03285
848.60743	0.03276
847.32166	0.03258
846.03589	0.03239
844.75012	0.03226
843.46435	0.03219
842.17858	0.03218
840.89281	0.03216
839.60704	0.03214
838.32128	0.03213
837.03551	0.03213
835.74974	0.03214
834.46397	0.03214
833.17820	0.03211
831.89243	0.03207
830.60666	0.03203
829.32089	0.03203
828.03512	0.03203
826.74936	0.03205
825.46359	0.03207
824.17782	0.03211
822.89205	0.03217
821.60628	0.03228
820.32051	0.03253
819.03474	0.03286
817.74897	0.03316
816.46321	0.03331
815.17744	0.03329
813.89167	0.03319
812.60590	0.03310
811.32013	0.03305
810.03436	0.03307
808.74859	0.03316
807.46282	0.03328
806.17705	0.03340
804.89129	0.03355
803.60552	0.03374
802.31975	0.03393
801.03398	0.03406
799.74821	0.03411
798.46244	0.03415
797.17667	0.03422
795.89090	0.03434
794.60513	0.03449
793.31937	0.03464
792.03360	0.03475
790.74783	0.03478
789.46206	0.03478
788.17629	0.03481
786.89052	0.03496
785.60475	0.03520
784.31898	0.03543
783.03322	0.03553
781.74745	0.03553
780.46168	0.03555
779.17591	0.03569
777.89014	0.03594
776.60437	0.03619
775.31860	0.03633
774.03283	0.03637
772.74706	0.03633
771.46130	0.03630
770.17553	0.03636
768.88976	0.03654
767.60399	0.03677
766.31822	0.03695
765.03245	0.03704
763.74668	0.03712
762.46091	0.03728
761.17515	0.03756
759.88938	0.03795
758.60361	0.03837
757.31784	0.03872
756.03207	0.03894
754.74630	0.03902
753.46053	0.03899
752.17476	0.03896
750.88899	0.03900
749.60323	0.03909
748.31746	0.03921
747.03169	0.03934
745.74592	0.03948
744.46015	0.03958
743.17438	0.03967
741.88861	0.03975
740.60284	0.03988
739.31708	0.04006
738.03131	0.04029
736.74554	0.04058
735.45977	0.04089
734.17400	0.04114
732.88823	0.04129
731.60246	0.04140
730.31669	0.04151
729.03092	0.04161
727.74516	0.04166
726.45939	0.04165
725.17362	0.04168
723.88785	0.04173
722.60208	0.04201
721.31631	0.04239
720.03054	0.04273
718.74477	0.04299
717.45901	0.04317
716.17324	0.04329
714.88747	0.04337
713.60170	0.04345
712.31593	0.04354
711.03016	0.04364
709.74439	0.04377
708.45862	0.04396
707.17285	0.04422
705.88709	0.04453
704.60132	0.04484
703.31555	0.04511
702.02978	0.04534
700.74401	0.04552
699.45824	0.04566
698.17247	0.04573
696.88670	0.04576
695.60094	0.04580
694.31517	0.04592
693.02940	0.04608
691.74363	0.04623
690.45786	0.04630
689.17209	0.04631
687.88632	0.04631
686.60055	0.04635
685.31478	0.04645
684.02902	0.04656
682.74325	0.04666
681.45748	0.04672
680.17171	0.04678
678.88594	0.04686
677.60017	0.04695
676.31440	0.04702
675.02863	0.04712
673.74287	0.04726
672.45710	0.04748
671.17133	0.04770
669.88556	0.04787
668.59979	0.04794
667.31402	0.04796
666.02825	0.04799
664.74248	0.04806
663.45671	0.04815
662.17095	0.04823
660.88518	0.04828
659.59941	0.04833
658.31364	0.04840
657.02787	0.04849
655.74210	0.04856
654.45633	0.04862
653.17056	0.04865
651.88480	0.04868
650.59903	0.04871
649.31326	0.04875
648.02749	0.04883
646.74172	0.04890
645.45595	0.04894
644.17018	0.04892
642.88441	0.04887
641.59864	0.04882
640.31288	0.04881
639.02711	0.04882
637.74134	0.04881
636.45557	0.04876
635.16980	0.04868
633.88403	0.04859
632.59826	0.04843
631.31249	0.04850
630.02673	0.05018
628.74096	0.05285
627.45519	0.05094
626.16942	0.05403
624.88365	0.06027
623.59788	0.06570
622.31211	0.06898
621.02634	0.06990
619.74057	0.06859
618.45481	0.06566
617.16904	0.06219
615.88327	0.05918
614.59750	0.05711
613.31173	0.05612
612.02596	0.05607
610.74019	0.05669
609.45442	0.05764
608.16866	0.05878
606.88289	0.06017
605.59712	0.06177
604.31135	0.06315
603.02558	0.06364
601.73981	0.06289
600.45404	0.06125
599.16827	0.05941
597.88250	0.05780
596.59674	0.05651
595.31097	0.05549
594.02520	0.05476
592.73943	0.05434
591.45366	0.05415
590.16789	0.05405
588.88212	0.05400
587.59635	0.05407
586.31059	0.05429
585.02482	0.05453
583.73905	0.05463
582.45328	0.05461
581.16751	0.05461
579.88174	0.05473
578.59597	0.05495
577.31020	0.05517
576.02443	0.05539
574.73867	0.05567
573.45290	0.05608
572.16713	0.05660
570.88136	0.05718
569.59559	0.05770
568.30982	0.05809
567.02405	0.05831
565.73828	0.05836
564.45251	0.05831
563.16675	0.05818
561.88098	0.05801
560.59521	0.05776
559.30944	0.05739
558.02367	0.05693
556.73790	0.05646
555.45213	0.05608
554.16636	0.05584
552.88060	0.05569
551.59483	0.05553
550.30906	0.05529
549.02329	0.05500
547.73752	0.05470
546.45175	0.05448
545.16598	0.05440
543.88021	0.05442
542.59444	0.05444
541.30868	0.05438
540.02291	0.05425
538.73714	0.05411
537.45137	0.05404
536.16560	0.05403
534.87983	0.05405
533.59406	0.05404
532.30829	0.05394
531.02253	0.05379
529.73676	0.05364
528.45099	0.05357
527.16522	0.05355
525.87945	0.05350
524.59368	0.05333
523.30791	0.05309
522.02214	0.05284
520.73637	0.05261
519.45061	0.05237
518.16484	0.05217
516.87907	0.05205
515.59330	0.05197
514.30753	0.05185
513.02176	0.05162
511.73599	0.05133
510.45022	0.05100
509.16446	0.05066
507.87869	0.05033
506.59292	0.05004
505.30715	0.04982
504.02138	0.04962
502.73561	0.04939
501.44984	0.04915
500.16407	0.04892
498.87830	0.04870
497.59254	0.04849
496.30677	0.04827
495.02100	0.04802
493.73523	0.04774
492.44946	0.04744
491.16369	0.04719
489.87792	0.04701
488.59215	0.04688
487.30639	0.04667
486.02062	0.04636
484.73485	0.04598
483.44908	0.04560
482.16331	0.04527
480.87754	0.04502
479.59177	0.04484
478.30600	0.04473
477.02023	0.04462
475.73447	0.04447
474.44870	0.04424
473.16293	0.04397
471.87716	0.04374
470.59139	0.04360
469.30562	0.04355
468.01985	0.04352
466.73408	0.04347
465.44832	0.04337
464.16255	0.04325
462.87678	0.04313
461.59101	0.04300
460.30524	0.04281
459.01947	0.04253
457.73370	0.04220
456.44793	0.04186
455.16216	0.04156
453.87640	0.04129
452.59063	0.04106
451.30486	0.04088
450.01909	0.04074
448.73332	0.04061
447.44755	0.04038
446.16178	0.04004
444.87601	0.03965
443.59025	0.03932
442.30448	0.03912
441.01871	0.03905
439.73294	0.03904
438.44717	0.03903
437.16140	0.03898
435.87563	0.03885
434.58986	0.03865
433.30409	0.03839
432.01833	0.03812
430.73256	0.03789
429.44679	0.03770
428.16102	0.03755
426.87525	0.03738
425.58948	0.03719
424.30371	0.03699
423.01794	0.03680
421.73218	0.03662
420.44641	0.03645
419.16064	0.03629
417.87487	0.03613
416.58910	0.03595
415.30333	0.03576
414.01756	0.03556
412.73179	0.03536
411.44602	0.03518
410.16026	0.03503
408.87449	0.03493
407.58872	0.03485
406.30295	0.03474
405.01718	0.03456
403.73141	0.03436
402.44564	0.03416
401.15987	0.03401
399.87411	0.03388
