3997.45528	0.08875
3996.16951	0.08841
3994.88374	0.08808
3993.59798	0.08791
3992.31221	0.08805
3991.02644	0.08839
3989.74067	0.08863
3988.45490	0.08857
3987.16913	0.08826
3985.88336	0.08784
3984.59759	0.08749
3983.31183	0.08736
3982.02606	0.08752
3980.74029	0.08787
3979.45452	0.08819
3978.16875	0.08827
3976.88298	0.08807
3975.59721	0.08768
3974.31144	0.08729
3973.02567	0.08711
3971.73991	0.08714
3970.45414	0.08709
3969.16837	0.08676
3967.88260	0.08632
3966.59683	0.08603
3965.31106	0.08590
3964.02529	0.08576
3962.73952	0.08555
3961.45376	0.08544
3960.16799	0.08562
3958.88222	0.08620
3957.59645	0.08710
3956.31068	0.08793
3955.02491	0.08824
3953.73914	0.08788
3952.45337	0.08729
3951.16760	0.08695
3949.88184	0.08687
3948.59607	0.08659
3947.31030	0.08584
3946.02453	0.08495
3944.73876	0.08449
3943.45299	0.08461
3942.16722	0.08497
3940.88145	0.08511
3939.59569	0.08495
3938.30992	0.08471
3937.02415	0.08458
3935.73838	0.08451
3934.45261	0.08441
3933.16684	0.08433
3931.88107	0.08437
3930.59530	0.08446
3929.30953	0.08439
3928.02377	0.08405
3926.73800	0.08366
3925.45223	0.08353
3924.16646	0.08370
3922.88069	0.08398
3921.59492	0.08412
3920.30915	0.08399
3919.02338	0.08351
3917.73762	0.08268
3916.45185	0.08177
3915.16608	0.08121
3913.88031	0.08130
3912.59454	0.08196
3911.30877	0.08288
3910.02300	0.08368
3908.73723	0.08402
3907.45146	0.08371
3906.16570	0.08296
3904.87993	0.08231
3903.59416	0.08217
3902.30839	0.08250
3901.02262	0.08293
3899.73685	0.08310
3898.45108	0.08288
3897.16531	0.08234
3895.87955	0.08165
3894.59378	0.08098
3893.30801	0.08050
3892.02224	0.08029
3890.73647	0.08032
3889.45070	0.08045
3888.16493	0.08050
3886.87916	0.08044
3885.59339	0.08047
3884.30763	0.08081
3883.02186	0.08141
3881.73609	0.08195
3880.45032	0.08213
3879.16455	0.08193
3877.87878	0.08162
3876.59301	0.08147
3875.30724	0.08149
3874.02148	0.08150
3872.73571	0.08144
3871.44994	0.08143
3870.16417	0.08165
3868.87840	0.08207
3867.59263	0.08243
3866.30686	0.08246
3865.02109	0.08218
3863.73532	0.08188
3862.44956	0.08185
3861.16379	0.08201
3859.87802	0.08199
3858.59225	0.08147
3857.30648	0.08057
3856.02071	0.07980
3854.73494	0.07959
3853.44917	0.07985
3852.16341	0.08009
3850.87764	0.07997
3849.59187	0.07957
3848.30610	0.07916
3847.02033	0.07890
3845.73456	0.07879
3844.44879	0.07871
3843.16302	0.07864
3841.87725	0.07863
3840.59149	0.07880
3839.30572	0.07910
3838.01995	0.07930
3836.73418	0.07916
3835.44841	0.07874
3834.16264	0.07838
3832.87687	0.07841
3831.59110	0.07868
3830.30534	0.07872
3829.01957	0.07821
3827.73380	0.07741
3826.44803	0.07694
3825.16226	0.07722
3823.87649	0.07815
3822.59072	0.07920
3821.30495	0.07979
3820.01918	0.07960
3818.73342	0.07872
3817.44765	0.07760
3816.16188	0.07678
3814.87611	0.07649
3813.59034	0.07658
3812.30457	0.07670
3811.01880	0.07664
3809.73303	0.07645
3808.44726	0.07622
3807.16150	0.07599
3805.87573	0.07575
3804.58996	0.07556
3803.30419	0.07548
3802.01842	0.07552
3800.73265	0.07557
3799.44688	0.07551
3798.16111	0.07537
3796.87535	0.07530
3795.58958	0.07544
3794.30381	0.07581
3793.01804	0.07623
3791.73227	0.07644
3790.44650	0.07620
3789.16073	0.07548
3787.87496	0.07457
3786.58919	0.07387
3785.30343	0.07366
3784.01766	0.07386
3782.73189	0.07418
3781.44612	0.07440
3780.16035	0.07450
3778.87458	0.07452
3777.58881	0.07441
3776.30304	0.07409
3775.01728	0.07368
3773.73151	0.07344
3772.44574	0.07352
3771.15997	0.07382
3769.87420	0.07408
3768.58843	0.07419
3767.30266	0.07416
3766.01689	0.07402
3764.73112	0.07370
3763.44536	0.07313
3762.15959	0.07240
3760.87382	0.07174
3759.58805	0.07143
3758.30228	0.07159
3757.01651	0.07210
3755.73074	0.07270
3754.44497	0.07308
3753.15921	0.07301
3751.87344	0.07247
3750.58767	0.07185
3749.30190	0.07175
3748.01613	0.07252
3746.73036	0.07383
3745.44459	0.07489
3744.15882	0.07522
3742.87305	0.07499
3741.58729	0.07472
3740.30152	0.07461
3739.01575	0.07450
3737.72998	0.07411
3736.44421	0.07325
3735.15844	0.07194
3733.87267	0.07047
3732.58690	0.06940
3731.30114	0.06913
3730.01537	0.06958
3728.72960	0.07024
3727.44383	0.07062
3726.15806	0.07063
3724.87229	0.07045
3723.58652	0.07027
3722.30075	0.07016
3721.01498	0.07008
3719.72922	0.07006
3718.44345	0.07008
3717.15768	0.07001
3715.87191	0.06965
3714.58614	0.06894
3713.30037	0.06811
3712.01460	0.06750
3710.72883	0.06737
3709.44307	0.06761
3708.15730	0.06793
3706.87153	0.06803
3705.58576	0.06788
3704.29999	0.06765
3703.01422	0.06755
3701.72845	0.06768
3700.44268	0.06785
3699.15691	0.06789
3697.87115	0.06793
3696.58538	0.06828
3695.29961	0.06887
3694.01384	0.06927
3692.72807	0.06926
3691.44230	0.06885
3690.15653	0.06823
3688.87076	0.06765
3687.58500	0.06718
3686.29923	0.06671
3685.01346	0.06635
3683.72769	0.06638
3682.44192	0.06691
3681.15615	0.06775
3679.87038	0.06853
3678.58461	0.06907
3677.29884	0.06947
3676.01308	0.06980
3674.72731	0.07004
3673.44154	0.07016
3672.15577	0.07026
3670.87000	0.07050
3669.58423	0.07091
3668.29846	0.07132
3667.01269	0.07142
3665.72693	0.07106
3664.44116	0.07038
3663.15539	0.06980
3661.86962	0.06968
3660.58385	0.07010
3659.29808	0.07077
3658.01231	0.07125
3656.72654	0.07131
3655.44077	0.07110
3654.15501	0.07106
3652.86924	0.07159
3651.58347	0.07264
3650.29770	0.07369
3649.01193	0.07433
3647.72616	0.07462
3646.44039	0.07501
3645.15462	0.07571
3643.86886	0.07653
3642.58309	0.07714
3641.29732	0.07739
3640.01155	0.07738
3638.72578	0.07735
3637.44001	0.07756
3636.15424	0.07810
3634.86847	0.07877
3633.58270	0.07923
3632.29694	0.07925
3631.01117	0.07898
3629.72540	0.07889
3628.43963	0.07928
3627.15386	0.08009
3625.86809	0.08104
3624.58232	0.08195
3623.29655	0.08281
3622.01079	0.08357
3620.72502	0.08413
3619.43925	0.08455
3618.15348	0.08498
3616.86771	0.08551
3615.58194	0.08610
3614.29617	0.08660
3613.01040	0.08702
3611.72463	0.08750
3610.43887	0.08830
3609.15310	0.08954
3607.86733	0.09115
3606.58156	0.09279
3605.29579	0.09408
3604.01002	0.09487
3602.72425	0.09526
3601.43848	0.09549
3600.15272	0.09575
3598.86695	0.09608
3597.58118	0.09656
3596.29541	0.09735
3595.00964	0.09842
3593.72387	0.09952
3592.43810	0.10053
3591.15233	0.10157
3589.86656	0.10267
3588.58080	0.10361
3587.29503	0.10423
3586.00926	0.10461
3584.72349	0.10503
3583.43772	0.10567
3582.15195	0.10640
3580.86618	0.10699
3579.58041	0.10743
3578.29464	0.10789
3577.00888	0.10847
3575.72311	0.10921
3574.43734	0.11009
3573.15157	0.11111
3571.86580	0.11228
3570.58003	0.11352
3569.29426	0.11466
3568.00849	0.11561
3566.72273	0.11641
3565.43696	0.11723
3564.15119	0.11811
3562.86542	0.11889
3561.57965	0.11937
3560.29388	0.11962
3559.00811	0.11994
3557.72234	0.12057
3556.43657	0.12142
3555.15081	0.12223
3553.86504	0.12293
3552.57927	0.12369
3551.29350	0.12472
3550.00773	0.12601
3548.72196	0.12732
3547.43619	0.12840
3546.15042	0.12912
3544.86466	0.12957
3543.57889	0.12996
3542.29312	0.13051
3541.00735	0.13132
3539.72158	0.13244
3538.43581	0.13379
3537.15004	0.13521
3535.86427	0.13648
3534.57850	0.13745
3533.29274	0.13819
3532.00697	0.13886
3530.72120	0.13964
3529.43543	0.14059
3528.14966	0.14160
3526.86389	0.14247
3525.57812	0.14313
3524.29235	0.14374
3523.00659	0.14446
3521.72082	0.14528
3520.43505	0.14605
3519.14928	0.14667
3517.86351	0.14723
3516.57774	0.14789
3515.29197	0.14878
3514.00620	0.14984
3512.72043	0.15082
3511.43467	0.15149
3510.14890	0.15182
3508.86313	0.15206
3507.57736	0.15248
3506.29159	0.15329
3505.00582	0.15448
3503.72005	0.15588
3502.43428	0.15726
3501.14852	0.15836
3499.86275	0.15907
3498.57698	0.15944
3497.29121	0.15963
3496.00544	0.15985
3494.71967	0.16029
3493.43390	0.16107
3492.14813	0.16221
3490.86236	0.16349
3489.57660	0.16448
3488.29083	0.16484
3487.00506	0.16466
3485.71929	0.16448
3484.43352	0.16489
3483.14775	0.16605
3481.86198	0.16762
3480.57621	0.16905
3479.29045	0.17000
3478.00468	0.17049
3476.71891	0.17077
3475.43314	0.17105
3474.14737	0.17138
3472.86160	0.17175
3471.57583	0.17216
3470.29006	0.17266
3469.00429	0.17323
3467.71853	0.17384
3466.43276	0.17449
3465.14699	0.17519
3463.86122	0.17595
3462.57545	0.17667
3461.28968	0.17724
3460.00391	0.17764
3458.71814	0.17791
3457.43238	0.17807
3456.14661	0.17818
3454.86084	0.17836
3453.57507	0.17879
3452.28930	0.17960
3451.00353	0.18075
3449.71776	0.18202
3448.43199	0.18310
3447.14622	0.18380
3445.86046	0.18409
3444.57469	0.18421
3443.28892	0.18451
3442.00315	0.18521
3440.71738	0.18624
3439.43161	0.18729
3438.14584	0.18813
3436.86007	0.18877
3435.57431	0.18936
3434.28854	0.19003
3433.00277	0.19075
3431.71700	0.19143
3430.43123	0.19204
3429.14546	0.19260
3427.85969	0.19315
3426.57392	0.19369
3425.28815	0.19417
3424.00239	0.19454
3422.71662	0.19490
3421.43085	0.19544
3420.14508	0.19621
3418.85931	0.19705
3417.57354	0.19779
3416.28777	0.19842
3415.00200	0.19910
3413.71624	0.19986
3412.43047	0.20058
3411.14470	0.20121
3409.85893	0.20187
3408.57316	0.20271
3407.28739	0.20376
3406.00162	0.20493
3404.71585	0.20612
3403.43008	0.20722
3402.14432	0.20803
3400.85855	0.20841
3399.57278	0.20835
3398.28701	0.20802
3397.00124	0.20773
3395.71547	0.20778
3394.42970	0.20829
3393.14393	0.20920
3391.85817	0.21028
3390.57240	0.21126
3389.28663	0.21198
3388.00086	0.21249
3386.71509	0.21304
3385.42932	0.21383
3384.14355	0.21485
3382.85778	0.21590
3381.57201	0.21679
3380.28625	0.21748
3379.00048	0.21803
3377.71471	0.21853
3376.42894	0.21915
3375.14317	0.22003
3373.85740	0.22125
3372.57163	0.22263
3371.28586	0.22383
3370.00010	0.22468
3368.71433	0.22542
3367.42856	0.22645
3366.14279	0.22784
3364.85702	0.22927
3363.57125	0.23036
3362.28548	0.23115
3360.99971	0.23205
3359.71394	0.23337
3358.42818	0.23508
3357.14241	0.23681
3355.85664	0.23822
3354.57087	0.23929
3353.28510	0.24017
3351.99933	0.24109
3350.71356	0.24216
3349.42779	0.24343
3348.14202	0.24483
3346.85626	0.24626
3345.57049	0.24770
3344.28472	0.24923
3342.99895	0.25085
3341.71318	0.25237
3340.42741	0.25362
3339.14164	0.25463
3337.85587	0.25562
3336.57011	0.25674
3335.28434	0.25794
3333.99857	0.25909
3332.71280	0.26013
3331.42703	0.26102
3330.14126	0.26181
3328.85549	0.26262
3327.56972	0.26361
3326.28395	0.26480
3324.99819	0.26609
3323.71242	0.26727
3322.42665	0.26822
3321.14088	0.26897
3319.85511	0.26966
3318.56934	0.27043
3317.28357	0.27124
3315.99780	0.27193
3314.71204	0.27238
3313.42627	0.27268
3312.14050	0.27306
3310.85473	0.27372
3309.56896	0.27471
3308.28319	0.27590
3306.99742	0.27710
3305.71165	0.27813
3304.42588	0.27893
3303.14012	0.27957
3301.85435	0.28017
3300.56858	0.28083
3299.28281	0.28157
3297.99704	0.28233
3296.71127	0.28296
3295.42550	0.28331
3294.13973	0.28339
3292.85397	0.28338
3291.56820	0.28342
3290.28243	0.28348
3288.99666	0.28344
3287.71089	0.28330
3286.42512	0.28319
3285.13935	0.28312
3283.85358	0.28302
3282.56781	0.28286
3281.28205	0.28269
3279.99628	0.28254
3278.71051	0.28234
3277.42474	0.28209
3276.13897	0.28185
3274.85320	0.28165
3273.56743	0.28140
3272.28166	0.28097
3270.99590	0.28033
3269.71013	0.27955
3268.42436	0.27866
3267.13859	0.27765
3265.85282	0.27654
3264.56705	0.27542
3263.28128	0.27436
3261.99551	0.27341
3260.70974	0.27254
3259.42398	0.27166
3258.13821	0.27068
3256.85244	0.26957
3255.56667	0.26839
3254.28090	0.26719
3252.99513	0.26598
3251.70936	0.26482
3250.42359	0.26387
3249.13783	0.26318
3247.85206	0.26258
3246.56629	0.26178
3245.28052	0.26060
3243.99475	0.25916
3242.70898	0.25769
3241.42321	0.25639
3240.13744	0.25542
3238.85167	0.25483
3237.56591	0.25452
3236.28014	0.25417
3234.99437	0.25347
3233.70860	0.25240
3232.42283	0.25122
3231.13706	0.25018
3229.85129	0.24937
3228.56552	0.24865
3227.27976	0.24788
3225.99399	0.24700
3224.70822	0.24611
3223.42245	0.24539
3222.13668	0.24487
3220.85091	0.24439
3219.56514	0.24379
3218.27937	0.24308
3216.99360	0.24240
3215.70784	0.24180
3214.42207	0.24126
3213.13630	0.24073
3211.85053	0.24020
3210.56476	0.23959
3209.27899	0.23888
3207.99322	0.23818
3206.70745	0.23767
3205.42169	0.23733
3204.13592	0.23697
3202.85015	0.23635
3201.56438	0.23543
3200.27861	0.23429
3198.99284	0.23303
3197.70707	0.23171
3196.42130	0.23040
3195.13553	0.22924
3193.84977	0.22834
3192.56400	0.22760
3191.27823	0.22676
3189.99246	0.22567
3188.70669	0.22443
3187.42092	0.22326
3186.13515	0.22223
3184.84938	0.22121
3183.56362	0.22007
3182.27785	0.21893
3180.99208	0.21797
3179.70631	0.21722
3178.42054	0.21645
3177.13477	0.21543
3175.84900	0.21419
3174.56323	0.21301
3173.27746	0.21213
3171.99170	0.21155
3170.70593	0.21108
3169.42016	0.21047
3168.13439	0.20956
3166.84862	0.20832
3165.56285	0.20692
3164.27708	0.20559
3162.99131	0.20446
3161.70555	0.20349
3160.41978	0.20259
3159.13401	0.20173
3157.84824	0.20092
3156.56247	0.20007
3155.27670	0.19904
3153.99093	0.19786
3152.70516	0.19666
3151.41939	0.19554
3150.13363	0.19449
3148.84786	0.19344
3147.56209	0.19235
3146.27632	0.19129
3144.99055	0.19039
3143.70478	0.18963
3142.41901	0.18887
3141.13324	0.18795
3139.84748	0.18687
3138.56171	0.18585
3137.27594	0.18506
3135.99017	0.18449
3134.70440	0.18408
3133.41863	0.18379
3132.13286	0.18354
3130.84709	0.18320
3129.56132	0.18267
3128.27556	0.18201
3126.98979	0.18135
3125.70402	0.18077
3124.41825	0.18033
3123.13248	0.18005
3121.84671	0.17995
3120.56094	0.17990
3119.27517	0.17979
3117.98940	0.17959
3116.70364	0.17937
3115.41787	0.17914
3114.13210	0.17885
3112.84633	0.17851
3111.56056	0.17826
3110.27479	0.17824
3108.98902	0.17839
3107.70325	0.17853
3106.41749	0.17855
3105.13172	0.17851
3103.84595	0.17854
3102.56018	0.17870
3101.27441	0.17894
3099.98864	0.17921
3098.70287	0.17953
3097.41710	0.17990
3096.13133	0.18026
3094.84557	0.18050
3093.55980	0.18058
3092.27403	0.18054
3090.98826	0.18051
3089.70249	0.18059
3088.41672	0.18082
3087.13095	0.18116
3085.84518	0.18153
3084.55942	0.18182
3083.27365	0.18197
3081.98788	0.18204
3080.70211	0.18214
3079.41634	0.18238
3078.13057	0.18271
3076.84480	0.18294
3075.55903	0.18291
3074.27326	0.18268
3072.98750	0.18242
3071.70173	0.18220
3070.41596	0.18205
3069.13019	0.18202
3067.84442	0.18227
3066.55865	0.18268
3065.27288	0.18287
3063.98711	0.18247
3062.70135	0.18151
3061.41558	0.18032
3060.12981	0.17918
3058.84404	0.17816
3057.55827	0.17720
3056.27250	0.17631
3054.98673	0.17557
3053.70096	0.17503
3052.41519	0.17467
3051.12943	0.17434
3049.84366	0.17390
3048.55789	0.17326
3047.27212	0.17244
3045.98635	0.17156
3044.70058	0.17074
3043.41481	0.17004
3042.12904	0.16937
3040.84328	0.16859
3039.55751	0.16764
3038.27174	0.16655
3036.98597	0.16543
3035.70020	0.16437
3034.41443	0.16345
3033.12866	0.16264
3031.84289	0.16184
3030.55712	0.16097
3029.27136	0.16009
3027.98559	0.15936
3026.69982	0.15889
3025.41405	0.15860
3024.12828	0.15829
3022.84251	0.15777
3021.55674	0.15702
3020.27097	0.15613
3018.98521	0.15516
3017.69944	0.15416
3016.41367	0.15326
3015.12790	0.15263
3013.84213	0.15235
3012.55636	0.15230
3011.27059	0.15221
3009.98482	0.15192
3008.69905	0.15151
3007.41329	0.15114
3006.12752	0.15085
3004.84175	0.15053
3003.55598	0.15007
3002.27021	0.14956
3000.98444	0.14923
2999.69867	0.14927
2998.41290	0.14972
2997.12714	0.15035
2995.84137	0.15096
2994.55560	0.15146
2993.26983	0.15192
2991.98406	0.15239
2990.69829	0.15291
2989.41252	0.15356
2988.12675	0.15433
2986.84098	0.15514
2985.55522	0.15584
2984.26945	0.15647
2982.98368	0.15722
2981.69791	0.15817
2980.41214	0.15920
2979.12637	0.16020
2977.84060	0.16119
2976.55483	0.16224
2975.26907	0.16333
2973.98330	0.16438
2972.69753	0.16541
2971.41176	0.16654
2970.12599	0.16785
2968.84022	0.16922
2967.55445	0.17049
2966.26868	0.17167
2964.98291	0.17285
2963.69715	0.17403
2962.41138	0.17504
2961.12561	0.17577
2959.83984	0.17630
2958.55407	0.17676
2957.26830	0.17714
2955.98253	0.17737
2954.69676	0.17747
2953.41100	0.17756
2952.12523	0.17774
2950.83946	0.17796
2949.55369	0.17811
2948.26792	0.17819
2946.98215	0.17823
2945.69638	0.17832
2944.41061	0.17859
2943.12484	0.17918
2941.83908	0.18018
2940.55331	0.18146
2939.26754	0.18284
2937.98177	0.18414
2936.69600	0.18531
2935.41023	0.18635
2934.12446	0.18734
2932.83869	0.18836
2931.55293	0.18941
2930.26716	0.19045
2928.98139	0.19138
2927.69562	0.19218
2926.40985	0.19276
2925.12408	0.19299
2923.83831	0.19273
2922.55254	0.19199
2921.26677	0.19087
2919.98101	0.18949
2918.69524	0.18788
2917.40947	0.18602
2916.12370	0.18391
2914.83793	0.18161
2913.55216	0.17923
2912.26639	0.17693
2910.98062	0.17479
2909.69486	0.17280
2908.40909	0.17091
2907.12332	0.16912
2905.83755	0.16753
2904.55178	0.16619
2903.26601	0.16503
2901.98024	0.16391
2900.69447	0.16272
2899.40870	0.16142
2898.12294	0.16009
2896.83717	0.15892
2895.55140	0.15802
2894.26563	0.15731
2892.97986	0.15661
2891.69409	0.15585
2890.40832	0.15512
2889.12255	0.15455
2887.83678	0.15412
2886.55102	0.15382
2885.26525	0.15371
2883.97948	0.15385
2882.69371	0.15419
2881.40794	0.15458
2880.12217	0.15485
2878.83640	0.15495
2877.55063	0.15501
2876.26487	0.15516
2874.97910	0.15535
2873.69333	0.15535
2872.40756	0.15497
2871.12179	0.15427
2869.83602	0.15344
2868.55025	0.15258
2867.26448	0.15167
2865.97871	0.15077
2864.69295	0.15005
2863.40718	0.14963
2862.12141	0.14953
2860.83564	0.14969
2859.54987	0.15003
2858.26410	0.15042
2856.97833	0.15076
2855.69256	0.15103
2854.40680	0.15128
2853.12103	0.15143
2851.83526	0.15121
2850.54949	0.15038
2849.26372	0.14889
2847.97795	0.14689
2846.69218	0.14460
2845.40641	0.14224
2844.12064	0.14003
2842.83488	0.13809
2841.54911	0.13640
2840.26334	0.13488
2838.97757	0.13348
2837.69180	0.13218
2836.40603	0.13097
2835.12026	0.12980
2833.83449	0.12873
2832.54873	0.12782
2831.26296	0.12712
2829.97719	0.12664
2828.69142	0.12635
2827.40565	0.12615
2826.11988	0.12586
2824.83411	0.12539
2823.54834	0.12475
2822.26257	0.12400
2820.97681	0.12320
2819.69104	0.12241
2818.40527	0.12175
2817.11950	0.12124
2815.83373	0.12077
2814.54796	0.12026
2813.26219	0.11978
2811.97642	0.11943
2810.69066	0.11920
2809.40489	0.11896
2808.11912	0.11861
2806.83335	0.11823
2805.54758	0.11792
2804.26181	0.11771
2802.97604	0.11753
2801.69027	0.11731
2800.40450	0.11704
2799.11874	0.11674
2797.83297	0.11640
2796.54720	0.11595
2795.26143	0.11542
2793.97566	0.11492
2792.68989	0.11453
2791.40412	0.11419
2790.11835	0.11378
2788.83259	0.11329
2787.54682	0.11278
2786.26105	0.11238
2784.97528	0.11215
2783.68951	0.11204
2782.40374	0.11193
2781.11797	0.11172
2779.83220	0.11139
2778.54643	0.11101
2777.26067	0.11071
2775.97490	0.11052
2774.68913	0.11038
2773.40336	0.11019
2772.11759	0.10990
2770.83182	0.10957
2769.54605	0.10927
2768.26028	0.10904
2766.97452	0.10883
2765.68875	0.10856
2764.40298	0.10819
2763.11721	0.10776
2761.83144	0.10736
2760.54567	0.10702
2759.25990	0.10672
2757.97413	0.10646
2756.68836	0.10625
2755.40260	0.10607
2754.11683	0.10587
2752.83106	0.10560
2751.54529	0.10522
2750.25952	0.10482
2748.97375	0.10448
2747.68798	0.10423
2746.40221	0.10400
2745.11645	0.10373
2743.83068	0.10348
2742.54491	0.10331
2741.25914	0.10319
2739.97337	0.10296
2738.68760	0.10256
2737.40183	0.10214
2736.11606	0.10186
2734.83029	0.10174
2733.54453	0.10166
2732.25876	0.10148
2730.97299	0.10115
2729.68722	0.10070
2728.40145	0.10025
2727.11568	0.09988
2725.82991	0.09963
2724.54414	0.09941
2723.25838	0.09912
2721.97261	0.09873
2720.68684	0.09831
2719.40107	0.09792
2718.11530	0.09761
2716.82953	0.09743
2715.54376	0.09737
2714.25799	0.09732
2712.97222	0.09720
2711.68646	0.09699
2710.40069	0.09678
2709.11492	0.09656
2707.82915	0.09627
2706.54338	0.09588
2705.25761	0.09551
2703.97184	0.09530
2702.68607	0.09528
2701.40031	0.09533
2700.11454	0.09532
2698.82877	0.09521
2697.54300	0.09498
2696.25723	0.09466
2694.97146	0.09432
2693.68569	0.09410
2692.39992	0.09405
2691.11415	0.09411
2689.82839	0.09417
2688.54262	0.09415
2687.25685	0.09401
2685.97108	0.09378
2684.68531	0.09348
2683.39954	0.09314
2682.11377	0.09277
2680.82800	0.09242
2679.54224	0.09216
2678.25647	0.09208
2676.97070	0.09219
2675.68493	0.09234
2674.39916	0.09241
2673.11339	0.09231
2671.82762	0.09212
2670.54185	0.09193
2669.25608	0.09178
2667.97032	0.09163
2666.68455	0.09145
2665.39878	0.09125
2664.11301	0.09109
2662.82724	0.09104
2661.54147	0.09105
2660.25570	0.09099
2658.96993	0.09075
2657.68417	0.09041
2656.39840	0.09007
2655.11263	0.08973
2653.82686	0.08935
2652.54109	0.08895
2651.25532	0.08863
2649.96955	0.08837
2648.68378	0.08807
2647.39801	0.08764
2646.11225	0.08715
2644.82648	0.08672
2643.54071	0.08639
2642.25494	0.08606
2640.96917	0.08556
2639.68340	0.08491
2638.39763	0.08431
2637.11186	0.08396
2635.82609	0.08392
2634.54033	0.08408
2633.25456	0.08418
2631.96879	0.08406
2630.68302	0.08375
2629.39725	0.08346
2628.11148	0.08327
2626.82571	0.08303
2625.53994	0.08252
2624.25418	0.08170
2622.96841	0.08082
2621.68264	0.08017
2620.39687	0.07985
2619.11110	0.07976
2617.82533	0.07971
2616.53956	0.07962
2615.25379	0.07949
2613.96802	0.07934
2612.68226	0.07915
2611.39649	0.07890
2610.11072	0.07851
2608.82495	0.07794
2607.53918	0.07731
2606.25341	0.07683
2604.96764	0.07663
2603.68187	0.07659
2602.39611	0.07656
2601.11034	0.07652
2599.82457	0.07650
2598.53880	0.07652
2597.25303	0.07652
2595.96726	0.07645
2594.68149	0.07624
2593.39572	0.07584
2592.10995	0.07536
2590.82419	0.07498
2589.53842	0.07472
2588.25265	0.07450
2586.96688	0.07429
2585.68111	0.07412
2584.39534	0.07398
2583.10957	0.07378
2581.82380	0.07343
2580.53804	0.07306
2579.25227	0.07280
2577.96650	0.07272
2576.68073	0.07270
2575.39496	0.07257
2574.10919	0.07226
2572.82342	0.07183
2571.53765	0.07148
2570.25188	0.07133
2568.96612	0.07132
2567.68035	0.07127
2566.39458	0.07105
2565.10881	0.07075
2563.82304	0.07053
2562.53727	0.07043
2561.25150	0.07037
2559.96573	0.07019
2558.67997	0.06974
2557.39420	0.06908
2556.10843	0.06847
2554.82266	0.06825
2553.53689	0.06842
2552.25112	0.06864
2550.96535	0.06854
2549.67958	0.06810
2548.39381	0.06760
2547.10805	0.06734
2545.82228	0.06736
2544.53651	0.06747
2543.25074	0.06752
2541.96497	0.06753
2540.67920	0.06761
2539.39343	0.06772
2538.10766	0.06767
2536.82190	0.06733
2535.53613	0.06685
2534.25036	0.06649
2532.96459	0.06629
2531.67882	0.06612
2530.39305	0.06582
2529.10728	0.06546
2527.82151	0.06521
2526.53574	0.06519
2525.24998	0.06534
2523.96421	0.06545
2522.67844	0.06536
2521.39267	0.06509
2520.10690	0.06487
2518.82113	0.06492
2517.53536	0.06525
2516.24959	0.06562
2514.96383	0.06576
2513.67806	0.06557
2512.39229	0.06514
2511.10652	0.06469
2509.82075	0.06433
2508.53498	0.06402
2507.24921	0.06370
2505.96344	0.06352
2504.67767	0.06358
2503.39191	0.06368
2502.10614	0.06347
2500.82037	0.06290
2499.53460	0.06240
2498.24883	0.06233
2496.96306	0.06264
2495.67729	0.06287
2494.39152	0.06279
2493.10576	0.06258
2491.81999	0.06253
2490.53422	0.06266
2489.24845	0.06279
2487.96268	0.06276
2486.67691	0.06251
2485.39114	0.06203
2484.10537	0.06140
2482.81960	0.06088
2481.53384	0.06075
2480.24807	0.06102
2478.96230	0.06145
2477.67653	0.06182
2476.39076	0.06208
2475.10499	0.06224
2473.81922	0.06230
2472.53345	0.06225
2471.24769	0.06205
2469.96192	0.06164
2468.67615	0.06103
2467.39038	0.06040
2466.10461	0.06005
2464.81884	0.06011
2463.53307	0.06043
2462.24730	0.06065
2460.96153	0.06050
2459.67577	0.06004
2458.39000	0.05959
2457.10423	0.05952
2455.81846	0.05984
2454.53269	0.06024
2453.24692	0.06038
2451.96115	0.06021
2450.67538	0.05995
2449.38962	0.05985
2448.10385	0.05996
2446.81808	0.06014
2445.53231	0.06020
2444.24654	0.06002
2442.96077	0.05964
2441.67500	0.05925
2440.38923	0.05898
2439.10346	0.05888
2437.81770	0.05885
2436.53193	0.05880
2435.24616	0.05872
2433.96039	0.05867
2432.67462	0.05870
2431.38885	0.05878
2430.10308	0.05886
2428.81731	0.05887
2427.53155	0.05885
2426.24578	0.05881
2424.96001	0.05876
2423.67424	0.05869
2422.38847	0.05866
2421.10270	0.05869
2419.81693	0.05871
2418.53116	0.05864
2417.24539	0.05849
2415.95963	0.05836
2414.67386	0.05835
2413.38809	0.05844
2412.10232	0.05858
2410.81655	0.05865
2409.53078	0.05849
2408.24501	0.05808
2406.95924	0.05761
2405.67347	0.05737
2404.38771	0.05744
2403.10194	0.05765
2401.81617	0.05780
2400.53040	0.05783
2399.24463	0.05765
2397.95886	0.05747
2396.67309	0.05730
2395.38732	0.05719
2394.10156	0.05724
2392.81579	0.05742
2391.53002	0.05760
2390.24425	0.05767
2388.95848	0.05765
2387.67271	0.05758
2386.38694	0.05751
2385.10117	0.05747
2383.81540	0.05749
2382.52964	0.05758
2381.24387	0.05772
2379.95810	0.05789
2378.67233	0.05801
2377.38656	0.05803
2376.10079	0.05792
2374.81502	0.05770
2373.52925	0.05763
2372.24349	0.05784
2370.95772	0.05827
2369.67195	0.05853
2368.38618	0.05854
2367.10041	0.05856
2365.81464	0.05880
2364.52887	0.05908
2363.24310	0.05932
2361.95733	0.05958
2360.67157	0.05998
2359.38580	0.06009
2358.10003	0.05974
2356.81426	0.05915
2355.52849	0.05860
2354.24272	0.05826
2352.95695	0.05819
2351.67118	0.05854
2350.38542	0.05900
2349.09965	0.05907
2347.81388	0.05882
2346.52811	0.05901
2345.24234	0.05935
2343.95657	0.05889
2342.67080	0.05789
2341.38503	0.05809
2340.09926	0.05936
2338.81350	0.05922
2337.52773	0.05763
2336.24196	0.05745
2334.95619	0.05831
2333.67042	0.05732
2332.38465	0.05517
2331.09888	0.05486
2329.81311	0.05462
2328.52735	0.05271
2327.24158	0.05276
2325.95581	0.05449
2324.67004	0.05527
2323.38427	0.05665
2322.09850	0.05866
2320.81273	0.05898
2319.52696	0.05924
2318.24119	0.05952
2316.95543	0.05874
2315.66966	0.05821
2314.38389	0.05779
2313.09812	0.05690
2311.81235	0.05628
2310.52658	0.05553
2309.24081	0.05484
2307.95504	0.05445
2306.66928	0.05390
2305.38351	0.05341
2304.09774	0.05292
2302.81197	0.05241
2301.52620	0.05201
2300.24043	0.05154
2298.95466	0.05103
2297.66889	0.05047
2296.38312	0.04994
2295.09736	0.04956
2293.81159	0.04938
2292.52582	0.04941
2291.24005	0.04948
2289.95428	0.04946
2288.66851	0.04930
2287.38274	0.04916
2286.09697	0.04917
2284.81121	0.04924
2283.52544	0.04912
2282.23967	0.04869
2280.95390	0.04810
2279.66813	0.04759
2278.38236	0.04728
2277.09659	0.04716
2275.81082	0.04708
2274.52505	0.04682
2273.23929	0.04625
2271.95352	0.04549
2270.66775	0.04479
2269.38198	0.04423
2268.09621	0.04366
2266.81044	0.04294
2265.52467	0.04216
2264.23890	0.04149
2262.95314	0.04112
2261.66737	0.04114
2260.38160	0.04143
2259.09583	0.04177
2257.81006	0.04200
2256.52429	0.04203
2255.23852	0.04183
2253.95275	0.04141
2252.66698	0.04073
2251.38122	0.03983
2250.09545	0.03933
2248.80968	0.03965
2247.52391	0.03910
2246.23814	0.03903
2244.95237	0.03930
2243.66660	0.03943
2242.38083	0.03917
2241.09507	0.03877
2239.80930	0.03865
2238.52353	0.03888
2237.23776	0.03896
2235.95199	0.03851
2234.66622	0.03777
2233.38045	0.03733
2232.09468	0.03731
2230.80891	0.03722
2229.52315	0.03672
2228.23738	0.03608
2226.95161	0.03578
2225.66584	0.03590
2224.38007	0.03618
2223.09430	0.03642
2221.80853	0.03660
2220.52276	0.03665
2219.23700	0.03651
2217.95123	0.03622
2216.66546	0.03598
2215.37969	0.03585
2214.09392	0.03579
2212.80815	0.03577
2211.52238	0.03576
2210.23661	0.03559
2208.95084	0.03511
2207.66508	0.03453
2206.37931	0.03440
2205.09354	0.03488
2203.80777	0.03540
2202.52200	0.03518
2201.23623	0.03409
2199.95046	0.03269
2198.66469	0.03163
2197.37893	0.03104
2196.09316	0.03080
2194.80739	0.03087
2193.52162	0.03115
2192.23585	0.03124
2190.95008	0.03071
2189.66431	0.02968
2188.37854	0.02886
2187.09277	0.02865
2185.80701	0.02865
2184.52124	0.02822
2183.23547	0.02735
2181.94970	0.02677
2180.66393	0.02694
2179.37816	0.02755
2178.09239	0.02793
2176.80662	0.02784
2175.52085	0.02757
2174.23509	0.02734
2172.94932	0.02705
2171.66355	0.02649
2170.37778	0.02566
2169.09201	0.02480
2167.80624	0.02405
2166.52047	0.02324
2165.23470	0.02194
2163.94894	0.02001
2162.66317	0.01811
2161.37740	0.01728
2160.09163	0.01798
2158.80586	0.01959
2157.52009	0.02111
2156.23432	0.02210
2154.94855	0.02283
2153.66278	0.02367
2152.37702	0.02461
2151.09125	0.02548
2149.80548	0.02636
2148.51971	0.02741
2147.23394	0.02839
2145.94817	0.02868
2144.66240	0.02794
2143.37663	0.02665
2142.09087	0.02568
2140.80510	0.02552
2139.51933	0.02604
2138.23356	0.02677
2136.94779	0.02740
2135.66202	0.02792
2134.37625	0.02855
2133.09048	0.02949
2131.80471	0.03075
2130.51895	0.03205
2129.23318	0.03297
2127.94741	0.03330
2126.66164	0.03327
2125.37587	0.03329
2124.09010	0.03353
2122.80433	0.03386
2121.51856	0.03412
2120.23280	0.03436
2118.94703	0.03466
2117.66126	0.03504
2116.37549	0.03546
2115.08972	0.03582
2113.80395	0.03591
2112.51818	0.03559
2111.23241	0.03497
2109.94664	0.03440
2108.66088	0.03419
2107.37511	0.03437
2106.08934	0.03470
2104.80357	0.03483
2103.51780	0.03453
2102.23203	0.03385
2100.94626	0.03302
2099.66049	0.03167
2098.37473	0.03086
2097.08896	0.03050
2095.80319	0.03033
2094.51742	0.03045
2093.23165	0.03100
2091.94588	0.03180
2090.66011	0.03243
2089.37434	0.03258
2088.08857	0.03230
2086.80281	0.03185
2085.51704	0.03134
2084.23127	0.03071
2082.94550	0.03009
2081.65973	0.02978
2080.37396	0.02997
2079.08819	0.03043
2077.80242	0.03077
2076.51666	0.03082
2075.23089	0.03070
2073.94512	0.03051
2072.65935	0.03007
2071.37358	0.02921
2070.08781	0.02808
2068.80204	0.02716
2067.51627	0.02683
2066.23050	0.02717
2064.94474	0.02782
2063.65897	0.02825
2062.37320	0.02811
2061.08743	0.02744
2059.80166	0.02663
2058.51589	0.02602
2057.23012	0.02571
2055.94435	0.02555
2054.65859	0.02534
2053.37282	0.02503
2052.08705	0.02472
2050.80128	0.02452
2049.51551	0.02432
2048.22974	0.02390
2046.94397	0.02328
2045.65820	0.02284
2044.37243	0.02293
2043.08667	0.02338
2041.80090	0.02351
2040.51513	0.02275
2039.22936	0.02119
2037.94359	0.01946
2036.65782	0.01827
2035.37205	0.01798
2034.08628	0.01848
2032.80052	0.01926
2031.51475	0.01977
2030.22898	0.01989
2028.94321	0.01994
2027.65744	0.02022
2026.37167	0.02073
2025.08590	0.02126
2023.80013	0.02158
2022.51436	0.02139
2021.22860	0.02055
2019.94283	0.01942
2018.65706	0.01867
2017.37129	0.01854
2016.08552	0.01867
2014.79975	0.01867
2013.51398	0.01860
2012.22821	0.01877
2010.94245	0.01938
2009.65668	0.02034
2008.37091	0.02141
2007.08514	0.02222
2005.79937	0.02250
2004.51360	0.02236
2003.22783	0.02221
2001.94206	0.02232
2000.65629	0.02259
1999.37053	0.02279
1998.08476	0.02290
1996.79899	0.02304
1995.51322	0.02327
1994.22745	0.02364
1992.94168	0.02416
1991.65591	0.02471
1990.37014	0.02500
1989.08438	0.02478
1987.79861	0.02413
1986.51284	0.02332
1985.22707	0.02250
1983.94130	0.02171
1982.65553	0.02096
1981.36976	0.02027
1980.08399	0.01962
1978.79822	0.01887
1977.51246	0.01793
1976.22669	0.01702
1974.94092	0.01667
1973.65515	0.01734
1972.36938	0.01899
1971.08361	0.02102
1969.79784	0.02261
1968.51207	0.02321
1967.22631	0.02279
1965.94054	0.02179
1964.65477	0.02086
1963.36900	0.02051
1962.08323	0.02078
1960.79746	0.02135
1959.51169	0.02190
1958.22592	0.02237
1956.94015	0.02296
1955.65439	0.02374
1954.36862	0.02447
1953.08285	0.02476
1951.79708	0.02447
1950.51131	0.02381
1949.22554	0.02312
1947.93977	0.02270
1946.65400	0.02271
1945.36823	0.02314
1944.08247	0.02384
1942.79670	0.02456
1941.51093	0.02513
1940.22516	0.02546
1938.93939	0.02563
1937.65362	0.02577
1936.36785	0.02604
1935.08208	0.02639
1933.79632	0.02657
1932.51055	0.02643
1931.22478	0.02613
1929.93901	0.02597
1928.65324	0.02615
1927.36747	0.02657
1926.08170	0.02701
1924.79593	0.02726
1923.51016	0.02728
1922.22440	0.02725
1920.93863	0.02739
1919.65286	0.02771
1918.36709	0.02796
1917.08132	0.02796
1915.79555	0.02779
1914.50978	0.02772
1913.22401	0.02781
1911.93825	0.02796
1910.65248	0.02796
1909.36671	0.02774
1908.08094	0.02737
1906.79517	0.02707
1905.50940	0.02704
1904.22363	0.02736
1902.93786	0.02789
1901.65209	0.02837
1900.36633	0.02863
1899.08056	0.02859
1897.79479	0.02831
1896.50902	0.02796
1895.22325	0.02773
1893.93748	0.02775
1892.65171	0.02799
1891.36594	0.02828
1890.08018	0.02848
1888.79441	0.02853
1887.50864	0.02849
1886.22287	0.02842
1884.93710	0.02837
1883.65133	0.02831
1882.36556	0.02824
1881.07979	0.02817
1879.79402	0.02814
1878.50826	0.02819
1877.22249	0.02830
1875.93672	0.02842
1874.65095	0.02854
1873.36518	0.02870
1872.07941	0.02886
1870.79364	0.02892
1869.50787	0.02882
1868.22211	0.02863
1866.93634	0.02846
1865.65057	0.02835
1864.36480	0.02822
1863.07903	0.02807
1861.79326	0.02802
1860.50749	0.02813
1859.22172	0.02828
1857.93595	0.02829
1856.65019	0.02812
1855.36442	0.02792
1854.07865	0.02789
1852.79288	0.02804
1851.50711	0.02823
1850.22134	0.02831
1848.93557	0.02828
1847.64980	0.02821
1846.36404	0.02813
1845.07827	0.02807
1843.79250	0.02801
1842.50673	0.02797
1841.22096	0.02797
1839.93519	0.02799
1838.64942	0.02800
1837.36365	0.02794
1836.07788	0.02783
1834.79212	0.02770
1833.50635	0.02761
1832.22058	0.02763
1830.93481	0.02774
1829.64904	0.02787
1828.36327	0.02795
1827.07750	0.02795
1825.79173	0.02788
1824.50597	0.02778
1823.22020	0.02764
1821.93443	0.02747
1820.64866	0.02728
1819.36289	0.02716
1818.07712	0.02717
1816.79135	0.02737
1815.50558	0.02771
1814.21981	0.02809
1812.93405	0.02833
1811.64828	0.02836
1810.36251	0.02823
1809.07674	0.02808
1807.79097	0.02804
1806.50520	0.02812
1805.21943	0.02823
1803.93366	0.02830
1802.64790	0.02835
1801.36213	0.02841
1800.07636	0.02844
1798.79059	0.02840
1797.50482	0.02832
1796.21905	0.02830
1794.93328	0.02838
1793.64751	0.02852
1792.36174	0.02865
1791.07598	0.02870
1789.79021	0.02864
1788.50444	0.02850
1787.21867	0.02838
1785.93290	0.02834
1784.64713	0.02840
1783.36136	0.02853
1782.07559	0.02867
1780.78983	0.02879
1779.50406	0.02889
1778.21829	0.02895
1776.93252	0.02896
1775.64675	0.02895
1774.36098	0.02897
1773.07521	0.02906
1771.78944	0.02923
1770.50367	0.02945
1769.21791	0.02966
1767.93214	0.02984
1766.64637	0.03000
1765.36060	0.03014
1764.07483	0.03028
1762.78906	0.03042
1761.50329	0.03058
1760.21752	0.03080
1758.93176	0.03110
1757.64599	0.03151
1756.36022	0.03200
1755.07445	0.03257
1753.78868	0.03319
1752.50291	0.03386
1751.21714	0.03454
1749.93137	0.03521
1748.64560	0.03585
1747.35984	0.03651
1746.07407	0.03722
1744.78830	0.03799
1743.50253	0.03881
1742.21676	0.03966
1740.93099	0.04052
1739.64522	0.04139
1738.35945	0.04228
1737.07369	0.04315
1735.78792	0.04401
1734.50215	0.04484
1733.21638	0.04568
1731.93061	0.04653
1730.64484	0.04735
1729.35907	0.04810
1728.07330	0.04878
1726.78753	0.04952
1725.50177	0.05037
1724.21600	0.05129
1722.93023	0.05215
1721.64446	0.05290
1720.35869	0.05363
1719.07292	0.05445
1717.78715	0.05540
1716.50138	0.05645
1715.21561	0.05753
1713.92985	0.05867
1712.64408	0.05996
1711.35831	0.06148
1710.07254	0.06322
1708.78677	0.06515
1707.50100	0.06727
1706.21523	0.06963
1704.92946	0.07232
1703.64370	0.07536
1702.35793	0.07877
1701.07216	0.08253
1699.78639	0.08659
1698.50062	0.09092
1697.21485	0.09550
1695.92908	0.10027
1694.64331	0.10509
1693.35754	0.10981
1692.07178	0.11440
1690.78601	0.11893
1689.50024	0.12346
1688.21447	0.12811
1686.92870	0.13300
1685.64293	0.13822
1684.35716	0.14369
1683.07139	0.14923
1681.78563	0.15477
1680.49986	0.16042
1679.21409	0.16635
1677.92832	0.17262
1676.64255	0.17916
1675.35678	0.18589
1674.07101	0.19269
1672.78524	0.19955
1671.49947	0.20653
1670.21371	0.21369
1668.92794	0.22094
1667.64217	0.22809
1666.35640	0.23509
1665.07063	0.24202
1663.78486	0.24894
1662.49909	0.25579
1661.21332	0.26243
1659.92756	0.26871
1658.64179	0.27460
1657.35602	0.28010
1656.07025	0.28529
1654.78448	0.29026
1653.49871	0.29496
1652.21294	0.29916
1650.92717	0.30267
1649.64140	0.30553
1648.35564	0.30799
1647.06987	0.31027
1645.78410	0.31241
1644.49833	0.31438
1643.21256	0.31614
1641.92679	0.31775
1640.64102	0.31931
1639.35525	0.32083
1638.06949	0.32224
1636.78372	0.32341
1635.49795	0.32421
1634.21218	0.32457
1632.92641	0.32445
1631.64064	0.32383
1630.35487	0.32259
1629.06910	0.32054
1627.78333	0.31758
1626.49757	0.31369
1625.21180	0.30894
1623.92603	0.30338
1622.64026	0.29707
1621.35449	0.29014
1620.06872	0.28279
1618.78295	0.27516
1617.49718	0.26736
1616.21142	0.25945
1614.92565	0.25149
1613.63988	0.24355
1612.35411	0.23564
1611.06834	0.22780
1609.78257	0.22012
1608.49680	0.21273
1607.21103	0.20574
1605.92526	0.19918
1604.63950	0.19302
1603.35373	0.18723
1602.06796	0.18182
1600.78219	0.17684
1599.49642	0.17230
1598.21065	0.16820
1596.92488	0.16452
1595.63911	0.16122
1594.35335	0.15826
1593.06758	0.15565
1591.78181	0.15340
1590.49604	0.15154
1589.21027	0.15007
1587.92450	0.14898
1586.63873	0.14827
1585.35296	0.14795
1584.06719	0.14797
1582.78143	0.14829
1581.49566	0.14885
1580.20989	0.14971
1578.92412	0.15098
1577.63835	0.15274
1576.35258	0.15498
1575.06681	0.15758
1573.78104	0.16040
1572.49528	0.16339
1571.20951	0.16663
1569.92374	0.17022
1568.63797	0.17413
1567.35220	0.17828
1566.06643	0.18257
1564.78066	0.18692
1563.49489	0.19132
1562.20912	0.19578
1560.92336	0.20035
1559.63759	0.20501
1558.35182	0.20962
1557.06605	0.21404
1555.78028	0.21825
1554.49451	0.22232
1553.20874	0.22627
1551.92297	0.23001
1550.63721	0.23345
1549.35144	0.23654
1548.06567	0.23926
1546.77990	0.24166
1545.49413	0.24380
1544.20836	0.24569
1542.92259	0.24733
1541.63682	0.24867
1540.35105	0.24972
1539.06529	0.25046
1537.77952	0.25087
1536.49375	0.25098
1535.20798	0.25082
1533.92221	0.25048
1532.63644	0.24996
1531.35067	0.24923
1530.06490	0.24830
1528.77914	0.24719
1527.49337	0.24594
1526.20760	0.24454
1524.92183	0.24300
1523.63606	0.24137
1522.35029	0.23971
1521.06452	0.23807
1519.77875	0.23639
1518.49298	0.23456
1517.20722	0.23244
1515.92145	0.22985
1514.63568	0.22672
1513.34991	0.22303
1512.06414	0.21886
1510.77837	0.21434
1509.49260	0.20957
1508.20683	0.20464
1506.92107	0.19958
1505.63530	0.19443
1504.34953	0.18924
1503.06376	0.18409
1501.77799	0.17904
1500.49222	0.17413
1499.20645	0.16933
1497.92068	0.16456
1496.63491	0.15977
1495.34915	0.15498
1494.06338	0.15031
1492.77761	0.14582
1491.49184	0.14159
1490.20607	0.13768
1488.92030	0.13415
1487.63453	0.13103
1486.34876	0.12831
1485.06299	0.12596
1483.77723	0.12397
1482.49146	0.12238
1481.20569	0.12127
1479.91992	0.12071
1478.63415	0.12073
1477.34838	0.12129
1476.06261	0.12233
1474.77684	0.12381
1473.49108	0.12570
1472.20531	0.12792
1470.91954	0.13033
1469.63377	0.13272
1468.34800	0.13493
1467.06223	0.13691
1465.77646	0.13875
1464.49069	0.14053
1463.20492	0.14234
1461.91916	0.14419
1460.63339	0.14609
1459.34762	0.14806
1458.06185	0.15010
1456.77608	0.15213
1455.49031	0.15399
1454.20454	0.15548
1452.91877	0.15646
1451.63301	0.15692
1450.34724	0.15693
1449.06147	0.15663
1447.77570	0.15610
1446.48993	0.15540
1445.20416	0.15455
1443.91839	0.15357
1442.63262	0.15246
1441.34685	0.15122
1440.06109	0.14980
1438.77532	0.14816
1437.48955	0.14630
1436.20378	0.14429
1434.91801	0.14222
1433.63224	0.14018
1432.34647	0.13823
1431.06070	0.13642
1429.77494	0.13486
1428.48917	0.13359
1427.20340	0.13265
1425.91763	0.13200
1424.63186	0.13157
1423.34609	0.13131
1422.06032	0.13120
1420.77455	0.13126
1419.48878	0.13148
1418.20302	0.13178
1416.91725	0.13209
1415.63148	0.13237
1414.34571	0.13264
1413.05994	0.13295
1411.77417	0.13330
1410.48840	0.13366
1409.20263	0.13399
1407.91687	0.13428
1406.63110	0.13454
1405.34533	0.13476
1404.05956	0.13491
1402.77379	0.13497
1401.48802	0.13496
1400.20225	0.13490
1398.91648	0.13481
1397.63071	0.13471
1396.34495	0.13461
1395.05918	0.13455
1393.77341	0.13450
1392.48764	0.13444
1391.20187	0.13435
1389.91610	0.13423
1388.63033	0.13409
1387.34456	0.13391
1386.05880	0.13369
1384.77303	0.13337
1383.48726	0.13295
1382.20149	0.13242
1380.91572	0.13184
1379.62995	0.13123
1378.34418	0.13058
1377.05841	0.12984
1375.77264	0.12899
1374.48688	0.12801
1373.20111	0.12692
1371.91534	0.12575
1370.62957	0.12450
1369.34380	0.12316
1368.05803	0.12171
1366.77226	0.12019
1365.48649	0.11865
1364.20073	0.11717
1362.91496	0.11581
1361.62919	0.11461
1360.34342	0.11363
1359.05765	0.11288
1357.77188	0.11235
1356.48611	0.11205
1355.20034	0.11196
1353.91457	0.11207
1352.62881	0.11235
1351.34304	0.11276
1350.05727	0.11328
1348.77150	0.11391
1347.48573	0.11464
1346.19996	0.11546
1344.91419	0.11634
1343.62842	0.11723
1342.34266	0.11805
1341.05689	0.11875
1339.77112	0.11927
1338.48535	0.11960
1337.19958	0.11972
1335.91381	0.11960
1334.62804	0.11923
1333.34227	0.11862
1332.05650	0.11783
1330.77074	0.11695
1329.48497	0.11606
1328.19920	0.11522
1326.91343	0.11445
1325.62766	0.11379
1324.34189	0.11325
1323.05612	0.11286
1321.77035	0.11261
1320.48459	0.11248
1319.19882	0.11241
1317.91305	0.11234
1316.62728	0.11224
1315.34151	0.11210
1314.05574	0.11193
1312.76997	0.11171
1311.48420	0.11143
1310.19843	0.11110
1308.91267	0.11072
1307.62690	0.11033
1306.34113	0.10997
1305.05536	0.10964
1303.76959	0.10937
1302.48382	0.10912
1301.19805	0.10892
1299.91228	0.10879
1298.62652	0.10873
1297.34075	0.10878
1296.05498	0.10893
1294.76921	0.10922
1293.48344	0.10966
1292.19767	0.11021
1290.91190	0.11082
1289.62613	0.11147
1288.34036	0.11218
1287.05460	0.11297
1285.76883	0.11381
1284.48306	0.11462
1283.19729	0.11533
1281.91152	0.11589
1280.62575	0.11630
1279.33998	0.11660
1278.05421	0.11685
1276.76845	0.11711
1275.48268	0.11737
1274.19691	0.11762
1272.91114	0.11787
1271.62537	0.11817
1270.33960	0.11855
1269.05383	0.11902
1267.76806	0.11958
1266.48229	0.12027
1265.19653	0.12110
1263.91076	0.12202
1262.62499	0.12299
1261.33922	0.12399
1260.05345	0.12499
1258.76768	0.12598
1257.48191	0.12697
1256.19614	0.12802
1254.91037	0.12915
1253.62461	0.13039
1252.33884	0.13172
1251.05307	0.13312
1249.76730	0.13455
1248.48153	0.13601
1247.19576	0.13752
1245.90999	0.13906
1244.62422	0.14059
1243.33846	0.14204
1242.05269	0.14334
1240.76692	0.14443
1239.48115	0.14531
1238.19538	0.14599
1236.90961	0.14647
1235.62384	0.14675
1234.33807	0.14682
1233.05230	0.14663
1231.76654	0.14616
1230.48077	0.14541
1229.19500	0.14438
1227.90923	0.14308
1226.62346	0.14155
1225.33769	0.13985
1224.05192	0.13809
1222.76615	0.13633
1221.48039	0.13462
1220.19462	0.13297
1218.90885	0.13136
1217.62308	0.12982
1216.33731	0.12840
1215.05154	0.12721
1213.76577	0.12632
1212.48000	0.12572
1211.19423	0.12535
1209.90847	0.12510
1208.62270	0.12491
1207.33693	0.12477
1206.05116	0.12463
1204.76539	0.12444
1203.47962	0.12412
1202.19385	0.12362
1200.90808	0.12296
1199.62232	0.12216
1198.33655	0.12107
1197.05078	0.11984
1195.76501	0.11857
1194.47924	0.11732
1193.19347	0.11615
1191.90770	0.11508
1190.62193	0.11409
1189.33616	0.11315
1188.05040	0.11229
1186.76463	0.11152
1185.47886	0.11086
1184.19309	0.11033
1182.90732	0.10991
1181.62155	0.10957
1180.33578	0.10933
1179.05001	0.10922
1177.76425	0.10922
1176.47848	0.10927
1175.19271	0.10934
1173.90694	0.10946
1172.62117	0.10965
1171.33540	0.10985
1170.04963	0.11000
1168.76386	0.11006
1167.47809	0.11003
1166.19233	0.11000
1164.90656	0.11004
1163.62079	0.11014
1162.33502	0.11021
1161.04925	0.11018
1159.76348	0.10998
1158.47771	0.10960
1157.19194	0.10904
1155.90618	0.10829
1154.62041	0.10742
1153.33464	0.10651
1152.04887	0.10559
1150.76310	0.10463
1149.47733	0.10359
1148.19156	0.10252
1146.90579	0.10148
1145.62002	0.10054
1144.33426	0.09971
1143.04849	0.09900
1141.76272	0.09839
1140.47695	0.09782
1139.19118	0.09723
1137.90541	0.09663
1136.61964	0.09609
1135.33387	0.09571
1134.04811	0.09552
1132.76234	0.09547
1131.47657	0.09548
1130.19080	0.09544
1128.90503	0.09534
1127.61926	0.09520
1126.33349	0.09505
1125.04772	0.09493
1123.76195	0.09486
1122.47619	0.09486
1121.19042	0.09496
1119.90465	0.09514
1118.61888	0.09537
1117.33311	0.09565
1116.04734	0.09597
1114.76157	0.09630
1113.47580	0.09663
1112.19004	0.09697
1110.90427	0.09733
1109.61850	0.09772
1108.33273	0.09809
1107.04696	0.09847
1105.76119	0.09888
1104.47542	0.09939
1103.18965	0.10001
1101.90388	0.10072
1100.61812	0.10146
1099.33235	0.10217
1098.04658	0.10283
1096.76081	0.10347
1095.47504	0.10415
1094.18927	0.10490
1092.90350	0.10571
1091.61773	0.10658
1090.33197	0.10753
1089.04620	0.10867
1087.76043	0.11008
1086.47466	0.11168
1085.18889	0.11327
1083.90312	0.11465
1082.61735	0.11574
1081.33158	0.11656
1080.04581	0.11715
1078.76005	0.11752
1077.47428	0.11769
1076.18851	0.11770
1074.90274	0.11761
1073.61697	0.11750
1072.33120	0.11742
1071.04543	0.11743
1069.75966	0.11750
1068.47390	0.11759
1067.18813	0.11767
1065.90236	0.11772
1064.61659	0.11777
1063.33082	0.11782
1062.04505	0.11782
1060.75928	0.11774
1059.47351	0.11755
1058.18774	0.11728
1056.90198	0.11696
1055.61621	0.11660
1054.33044	0.11620
1053.04467	0.11576
1051.75890	0.11525
1050.47313	0.11468
1049.18736	0.11406
1047.90159	0.11348
1046.61583	0.11299
1045.33006	0.11258
1044.04429	0.11223
1042.75852	0.11191
1041.47275	0.11167
1040.18698	0.11157
1038.90121	0.11157
1037.61544	0.11162
1036.32967	0.11163
1035.04391	0.11157
1033.75814	0.11144
1032.47237	0.11124
1031.18660	0.11087
1029.90083	0.11028
1028.61506	0.10943
1027.32929	0.10837
1026.04352	0.10718
1024.75775	0.10588
1023.47199	0.10448
1022.18622	0.10302
1020.90045	0.10161
1019.61468	0.10034
1018.32891	0.09926
1017.04314	0.09832
1015.75737	0.09742
1014.47160	0.09651
1013.18584	0.09555
1011.90007	0.09454
1010.61430	0.09348
1009.32853	0.09238
1008.04276	0.09124
1006.75699	0.09012
1005.47122	0.08898
1004.18545	0.08781
1002.89968	0.08664
1001.61392	0.08554
1000.32815	0.08454
999.04238	0.08360
997.75661	0.08269
996.47084	0.08181
995.18507	0.08100
993.89930	0.08029
992.61353	0.07962
991.32777	0.07893
990.04200	0.07819
988.75623	0.07748
987.47046	0.07687
986.18469	0.07636
984.89892	0.07591
983.61315	0.07544
982.32738	0.07494
981.04161	0.07448
979.75585	0.07418
978.47008	0.07406
977.18431	0.07409
975.89854	0.07414
974.61277	0.07409
973.32700	0.07392
972.04123	0.07365
970.75546	0.07330
969.46970	0.07289
968.18393	0.07244
966.89816	0.07197
965.61239	0.07150
964.32662	0.07105
963.04085	0.07063
961.75508	0.07023
960.46931	0.06986
959.18354	0.06952
957.89778	0.06922
956.61201	0.06896
955.32624	0.06870
954.04047	0.06840
952.75470	0.06803
951.46893	0.06764
950.18316	0.06733
948.89739	0.06716
947.61163	0.06713
946.32586	0.06713
945.04009	0.06709
943.75432	0.06700
942.46855	0.06691
941.18278	0.06680
939.89701	0.06664
938.61124	0.06643
937.32547	0.06621
936.03971	0.06601
934.75394	0.06586
933.46817	0.06574
932.18240	0.06560
930.89663	0.06541
929.61086	0.06516
928.32509	0.06489
927.03932	0.06462
925.75356	0.06435
924.46779	0.06408
923.18202	0.06380
921.89625	0.06350
920.61048	0.06315
919.32471	0.06277
918.03894	0.06240
916.75317	0.06210
915.46740	0.06181
914.18164	0.06144
912.89587	0.06095
911.61010	0.06042
910.32433	0.05996
909.03856	0.05965
907.75279	0.05945
906.46702	0.05928
905.18125	0.05908
903.89549	0.05882
902.60972	0.05853
901.32395	0.05828
900.03818	0.05807
898.75241	0.05788
897.46664	0.05770
896.18087	0.05750
894.89510	0.05728
893.60933	0.05702
892.32357	0.05678
891.03780	0.05662
889.75203	0.05660
888.46626	0.05666
887.18049	0.05668
885.89472	0.05660
884.60895	0.05646
883.32318	0.05631
882.03742	0.05617
880.75165	0.05604
879.46588	0.05593
878.18011	0.05590
876.89434	0.05599
875.60857	0.05612
874.32280	0.05616
873.03703	0.05601
871.75126	0.05570
870.46550	0.05541
869.17973	0.05527
867.89396	0.05523
866.60819	0.05518
865.32242	0.05508
864.03665	0.05496
862.75088	0.05485
861.46511	0.05474
860.17935	0.05465
858.89358	0.05464
857.60781	0.05469
856.32204	0.05476
855.03627	0.05480
853.75050	0.05480
852.46473	0.05479
851.17896	0.05478
849.89319	0.05476
848.60743	0.05470
847.32166	0.05461
846.03589	0.05452
844.75012	0.05446
843.46435	0.05444
842.17858	0.05445
840.89281	0.05450
839.60704	0.05459
838.32128	0.05470
837.03551	0.05481
835.74974	0.05488
834.46397	0.05493
833.17820	0.05500
831.89243	0.05512
830.60666	0.05529
829.32089	0.05550
828.03512	0.05575
826.74936	0.05600
825.46359	0.05620
824.17782	0.05633
822.89205	0.05646
821.60628	0.05667
820.32051	0.05697
819.03474	0.05729
817.74897	0.05756
816.46321	0.05778
815.17744	0.05795
813.89167	0.05812
812.60590	0.05836
811.32013	0.05874
810.03436	0.05923
808.74859	0.05971
807.46282	0.06006
806.17705	0.06030
804.89129	0.06046
803.60552	0.06060
802.31975	0.06075
801.03398	0.06091
799.74821	0.06108
798.46244	0.06123
797.17667	0.06136
795.89090	0.06152
794.60513	0.06176
793.31937	0.06210
792.03360	0.06252
790.74783	0.06293
789.46206	0.06323
788.17629	0.06342
786.89052	0.06356
785.60475	0.06375
784.31898	0.06396
783.03322	0.06414
781.74745	0.06432
780.46168	0.06458
779.17591	0.06497
777.89014	0.06539
776.60437	0.06573
775.31860	0.06599
774.03283	0.06625
772.74706	0.06657
771.46130	0.06689
770.17553	0.06718
768.88976	0.06745
767.60399	0.06775
766.31822	0.06811
765.03245	0.06852
763.74668	0.06896
762.46091	0.06941
761.17515	0.06982
759.88938	0.07014
758.60361	0.07036
757.31784	0.07054
756.03207	0.07078
754.74630	0.07109
753.46053	0.07144
752.17476	0.07180
750.88899	0.07219
749.60323	0.07262
748.31746	0.07309
747.03169	0.07357
745.74592	0.07402
744.46015	0.07440
743.17438	0.07468
741.88861	0.07486
740.60284	0.07500
739.31708	0.07519
738.03131	0.07549
736.74554	0.07583
735.45977	0.07616
734.17400	0.07642
732.88823	0.07667
731.60246	0.07694
730.31669	0.07728
729.03092	0.07773
727.74516	0.07826
726.45939	0.07879
725.17362	0.07923
723.88785	0.07922
722.60208	0.07992
721.31631	0.08097
720.03054	0.08193
718.74477	0.08268
717.45901	0.08317
716.17324	0.08338
714.88747	0.08337
713.60170	0.08325
712.31593	0.08318
711.03016	0.08329
709.74439	0.08357
708.45862	0.08399
707.17285	0.08450
705.88709	0.08507
704.60132	0.08566
703.31555	0.08621
702.02978	0.08668
700.74401	0.08711
699.45824	0.08755
698.17247	0.08800
696.88670	0.08845
695.60094	0.08886
694.31517	0.08914
693.02940	0.08924
691.74363	0.08919
690.45786	0.08912
689.17209	0.08913
687.88632	0.08922
686.60055	0.08935
685.31478	0.08945
684.02902	0.08954
682.74325	0.08964
681.45748	0.08977
680.17171	0.08994
678.88594	0.09016
677.60017	0.09044
676.31440	0.09075
675.02863	0.09101
673.74287	0.09119
672.45710	0.09135
671.17133	0.09163
669.88556	0.09204
668.59979	0.09231
667.31402	0.09257
666.02825	0.09300
664.74248	0.09313
663.45671	0.09319
662.17095	0.09329
660.88518	0.09340
659.59941	0.09351
658.31364	0.09363
657.02787	0.09379
655.74210	0.09396
654.45633	0.09414
653.17056	0.09430
651.88480	0.09447
650.59903	0.09465
649.31326	0.09483
648.02749	0.09498
646.74172	0.09507
645.45595	0.09511
644.17018	0.09513
642.88441	0.09513
641.59864	0.09514
640.31288	0.09514
639.02711	0.09512
637.74134	0.09508
636.45557	0.09501
635.16980	0.09496
633.88403	0.09493
632.59826	0.09495
631.31249	0.09491
630.02673	0.09436
628.74096	0.09338
627.45519	0.09347
626.16942	0.09187
624.88365	0.08926
623.59788	0.08704
622.31211	0.08575
621.02634	0.08535
619.74057	0.08598
618.45481	0.08814
617.16904	0.09177
615.88327	0.09559
614.59750	0.09778
613.31173	0.09742
612.02596	0.09506
610.74019	0.09224
609.45442	0.09049
608.16866	0.09040
606.88289	0.09136
605.59712	0.09232
604.31135	0.09280
603.02558	0.09311
601.73981	0.09371
600.45404	0.09461
599.16827	0.09545
597.88250	0.09599
596.59674	0.09627
595.31097	0.09646
594.02520	0.09662
592.73943	0.09667
591.45366	0.09658
590.16789	0.09644
588.88212	0.09638
587.59635	0.09647
586.31059	0.09664
585.02482	0.09685
583.73905	0.09706
582.45328	0.09724
581.16751	0.09732
579.88174	0.09728
578.59597	0.09718
577.31020	0.09711
576.02443	0.09714
574.73867	0.09721
573.45290	0.09724
572.16713	0.09718
570.88136	0.09711
569.59559	0.09713
568.30982	0.09733
567.02405	0.09772
565.73828	0.09824
564.45251	0.09869
563.16675	0.09890
561.88098	0.09889
560.59521	0.09879
559.30944	0.09875
558.02367	0.09881
556.73790	0.09890
555.45213	0.09897
554.16636	0.09903
552.88060	0.09911
551.59483	0.09923
550.30906	0.09932
549.02329	0.09934
547.73752	0.09930
546.45175	0.09924
545.16598	0.09919
543.88021	0.09910
542.59444	0.09889
541.30868	0.09854
540.02291	0.09813
538.73714	0.09784
537.45137	0.09775
536.16560	0.09785
534.87983	0.09798
533.59406	0.09800
532.30829	0.09786
531.02253	0.09762
529.73676	0.09737
528.45099	0.09720
527.16522	0.09711
525.87945	0.09700
524.59368	0.09680
523.30791	0.09654
522.02214	0.09630
520.73637	0.09613
519.45061	0.09600
518.16484	0.09585
516.87907	0.09566
515.59330	0.09548
514.30753	0.09537
513.02176	0.09529
511.73599	0.09517
510.45022	0.09493
509.16446	0.09456
507.87869	0.09407
506.59292	0.09352
505.30715	0.09303
504.02138	0.09264
502.73561	0.09226
501.44984	0.09179
500.16407	0.09123
498.87830	0.09069
497.59254	0.09026
496.30677	0.08992
495.02100	0.08958
493.73523	0.08918
492.44946	0.08869
491.16369	0.08813
489.87792	0.08759
488.59215	0.08712
487.30639	0.08674
486.02062	0.08641
484.73485	0.08609
483.44908	0.08580
482.16331	0.08555
480.87754	0.08533
479.59177	0.08510
478.30600	0.08484
477.02023	0.08458
475.73447	0.08434
474.44870	0.08408
473.16293	0.08375
471.87716	0.08332
470.59139	0.08288
469.30562	0.08253
468.01985	0.08235
466.73408	0.08226
465.44832	0.08212
464.16255	0.08176
462.87678	0.08118
461.59101	0.08051
460.30524	0.07994
459.01947	0.07952
457.73370	0.07919
456.44793	0.07887
455.16216	0.07853
453.87640	0.07813
452.59063	0.07766
451.30486	0.07712
450.01909	0.07657
448.73332	0.07606
447.44755	0.07562
446.16178	0.07527
444.87601	0.07498
443.59025	0.07471
442.30448	0.07438
441.01871	0.07398
439.73294	0.07353
438.44717	0.07307
437.16140	0.07268
435.87563	0.07239
434.58986	0.07220
433.30409	0.07207
432.01833	0.07198
430.73256	0.07186
429.44679	0.07168
428.16102	0.07142
426.87525	0.07108
425.58948	0.07069
424.30371	0.07030
423.01794	0.06994
421.73218	0.06958
420.44641	0.06922
419.16064	0.06888
417.87487	0.06859
416.58910	0.06834
415.30333	0.06809
414.01756	0.06778
412.73179	0.06740
411.44602	0.06694
410.16026	0.06647
408.87449	0.06602
407.58872	0.06564
406.30295	0.06530
405.01718	0.06496
403.73141	0.06463
402.44564	0.06433
401.15987	0.06412
399.87411	0.06397
