3997.45528	0.05927
3996.16951	0.05941
3994.88374	0.05947
3993.59798	0.05928
3992.31221	0.05875
3991.02644	0.05808
3989.74067	0.05759
3988.45490	0.05747
3987.16913	0.05766
3985.88336	0.05800
3984.59759	0.05834
3983.31183	0.05856
3982.02606	0.05861
3980.74029	0.05854
3979.45452	0.05850
3978.16875	0.05853
3976.88298	0.05850
3975.59721	0.05829
3974.31144	0.05785
3973.02567	0.05716
3971.73991	0.05636
3970.45414	0.05580
3969.16837	0.05572
3967.88260	0.05597
3966.59683	0.05616
3965.31106	0.05610
3964.02529	0.05593
3962.73952	0.05589
3961.45376	0.05608
3960.16799	0.05641
3958.88222	0.05667
3957.59645	0.05672
3956.31068	0.05655
3955.02491	0.05636
3953.73914	0.05641
3952.45337	0.05673
3951.16760	0.05715
3949.88184	0.05740
3948.59607	0.05739
3947.31030	0.05714
3946.02453	0.05674
3944.73876	0.05629
3943.45299	0.05596
3942.16722	0.05584
3940.88145	0.05585
3939.59569	0.05589
3938.30992	0.05594
3937.02415	0.05601
3935.73838	0.05596
3934.45261	0.05560
3933.16684	0.05495
3931.88107	0.05429
3930.59530	0.05392
3929.30953	0.05392
3928.02377	0.05415
3926.73800	0.05442
3925.45223	0.05466
3924.16646	0.05486
3922.88069	0.05500
3921.59492	0.05492
3920.30915	0.05450
3919.02338	0.05372
3917.73762	0.05282
3916.45185	0.05227
3915.16608	0.05242
3913.88031	0.05318
3912.59454	0.05409
3911.30877	0.05472
3910.02300	0.05491
3908.73723	0.05480
3907.45146	0.05455
3906.16570	0.05416
3904.87993	0.05363
3903.59416	0.05306
3902.30839	0.05264
3901.02262	0.05254
3899.73685	0.05275
3898.45108	0.05321
3897.16531	0.05376
3895.87955	0.05425
3894.59378	0.05456
3893.30801	0.05468
3892.02224	0.05480
3890.73647	0.05511
3889.45070	0.05546
3888.16493	0.05545
3886.87916	0.05492
3885.59339	0.05414
3884.30763	0.05352
3883.02186	0.05322
3881.73609	0.05314
3880.45032	0.05318
3879.16455	0.05328
3877.87878	0.05344
3876.59301	0.05371
3875.30724	0.05409
3874.02148	0.05447
3872.73571	0.05464
3871.44994	0.05453
3870.16417	0.05430
3868.87840	0.05408
3867.59263	0.05372
3866.30686	0.05318
3865.02109	0.05281
3863.73532	0.05281
3862.44956	0.05292
3861.16379	0.05280
3859.87802	0.05242
3858.59225	0.05213
3857.30648	0.05222
3856.02071	0.05263
3854.73494	0.05315
3853.44917	0.05363
3852.16341	0.05394
3850.87764	0.05394
3849.59187	0.05376
3848.30610	0.05370
3847.02033	0.05390
3845.73456	0.05422
3844.44879	0.05441
3843.16302	0.05433
3841.87725	0.05399
3840.59149	0.05346
3839.30572	0.05285
3838.01995	0.05229
3836.73418	0.05173
3835.44841	0.05100
3834.16264	0.05018
3832.87687	0.04970
3831.59110	0.04980
3830.30534	0.05021
3829.01957	0.05048
3827.73380	0.05053
3826.44803	0.05063
3825.16226	0.05086
3823.87649	0.05085
3822.59072	0.05036
3821.30495	0.04974
3820.01918	0.04953
3818.73342	0.04967
3817.44765	0.04970
3816.16188	0.04951
3814.87611	0.04934
3813.59034	0.04937
3812.30457	0.04954
3811.01880	0.04975
3809.73303	0.04992
3808.44726	0.05009
3807.16150	0.05043
3805.87573	0.05093
3804.58996	0.05123
3803.30419	0.05105
3802.01842	0.05056
3800.73265	0.05019
3799.44688	0.05004
3798.16111	0.05006
3796.87535	0.05027
3795.58958	0.05064
3794.30381	0.05085
3793.01804	0.05062
3791.73227	0.05006
3790.44650	0.04958
3789.16073	0.04948
3787.87496	0.04971
3786.58919	0.04995
3785.30343	0.04996
3784.01766	0.04977
3782.73189	0.04958
3781.44612	0.04951
3780.16035	0.04954
3778.87458	0.04963
3777.58881	0.04976
3776.30304	0.05002
3775.01728	0.05047
3773.73151	0.05093
3772.44574	0.05096
3771.15997	0.05032
3769.87420	0.04929
3768.58843	0.04845
3767.30266	0.04818
3766.01689	0.04838
3764.73112	0.04868
3763.44536	0.04876
3762.15959	0.04864
3760.87382	0.04862
3759.58805	0.04885
3758.30228	0.04920
3757.01651	0.04949
3755.73074	0.04961
3754.44497	0.04946
3753.15921	0.04897
3751.87344	0.04813
3750.58767	0.04705
3749.30190	0.04605
3748.01613	0.04553
3746.73036	0.04557
3745.44459	0.04605
3744.15882	0.04678
3742.87305	0.04727
3741.58729	0.04706
3740.30152	0.04629
3739.01575	0.04553
3737.72998	0.04510
3736.44421	0.04508
3735.15844	0.04536
3733.87267	0.04565
3732.58690	0.04578
3731.30114	0.04595
3730.01537	0.04636
3728.72960	0.04693
3727.44383	0.04738
3726.15806	0.04760
3724.87229	0.04761
3723.58652	0.04747
3722.30075	0.04710
3721.01498	0.04643
3719.72922	0.04558
3718.44345	0.04491
3717.15768	0.04476
3715.87191	0.04507
3714.58614	0.04548
3713.30037	0.04574
3712.01460	0.04585
3710.72883	0.04585
3709.44307	0.04562
3708.15730	0.04512
3706.87153	0.04452
3705.58576	0.04410
3704.29999	0.04393
3703.01422	0.04385
3701.72845	0.04368
3700.44268	0.04347
3699.15691	0.04337
3697.87115	0.04337
3696.58538	0.04323
3695.29961	0.04286
3694.01384	0.04252
3692.72807	0.04264
3691.44230	0.04338
3690.15653	0.04444
3688.87076	0.04536
3687.58500	0.04580
3686.29923	0.04562
3685.01346	0.04488
3683.72769	0.04401
3682.44192	0.04358
3681.15615	0.04378
3679.87038	0.04443
3678.58461	0.04506
3677.29884	0.04533
3676.01308	0.04530
3674.72731	0.04522
3673.44154	0.04512
3672.15577	0.04494
3670.87000	0.04494
3669.58423	0.04541
3668.29846	0.04617
3667.01269	0.04673
3665.72693	0.04690
3664.44116	0.04679
3663.15539	0.04656
3661.86962	0.04634
3660.58385	0.04623
3659.29808	0.04628
3658.01231	0.04658
3656.72654	0.04725
3655.44077	0.04826
3654.15501	0.04929
3652.86924	0.04993
3651.58347	0.05010
3650.29770	0.05001
3649.01193	0.04995
3647.72616	0.05015
3646.44039	0.05071
3645.15462	0.05150
3643.86886	0.05219
3642.58309	0.05246
3641.29732	0.05229
3640.01155	0.05188
3638.72578	0.05137
3637.44001	0.05081
3636.15424	0.05030
3634.86847	0.05016
3633.58270	0.05072
3632.29694	0.05188
3631.01117	0.05309
3629.72540	0.05388
3628.43963	0.05424
3627.15386	0.05440
3625.86809	0.05457
3624.58232	0.05493
3623.29655	0.05548
3622.01079	0.05604
3620.72502	0.05649
3619.43925	0.05694
3618.15348	0.05742
3616.86771	0.05772
3615.58194	0.05766
3614.29617	0.05741
3613.01040	0.05732
3611.72463	0.05757
3610.43887	0.05806
3609.15310	0.05860
3607.86733	0.05897
3606.58156	0.05905
3605.29579	0.05902
3604.01002	0.05932
3602.72425	0.06010
3601.43848	0.06106
3600.15272	0.06192
3598.86695	0.06276
3597.58118	0.06377
3596.29541	0.06486
3595.00964	0.06570
3593.72387	0.06607
3592.43810	0.06602
3591.15233	0.06578
3589.86656	0.06567
3588.58080	0.06588
3587.29503	0.06641
3586.00926	0.06710
3584.72349	0.06782
3583.43772	0.06844
3582.15195	0.06886
3580.86618	0.06907
3579.58041	0.06920
3578.29464	0.06949
3577.00888	0.07003
3575.72311	0.07069
3574.43734	0.07126
3573.15157	0.07170
3571.86580	0.07212
3570.58003	0.07269
3569.29426	0.07339
3568.00849	0.07408
3566.72273	0.07461
3565.43696	0.07499
3564.15119	0.07542
3562.86542	0.07609
3561.57965	0.07695
3560.29388	0.07779
3559.00811	0.07857
3557.72234	0.07943
3556.43657	0.08042
3555.15081	0.08130
3553.86504	0.08176
3552.57927	0.08174
3551.29350	0.08152
3550.00773	0.08148
3548.72196	0.08171
3547.43619	0.08211
3546.15042	0.08254
3544.86466	0.08293
3543.57889	0.08328
3542.29312	0.08360
3541.00735	0.08399
3539.72158	0.08462
3538.43581	0.08553
3537.15004	0.08654
3535.86427	0.08739
3534.57850	0.08793
3533.29274	0.08817
3532.00697	0.08830
3530.72120	0.08849
3529.43543	0.08882
3528.14966	0.08929
3526.86389	0.08992
3525.57812	0.09079
3524.29235	0.09188
3523.00659	0.09307
3521.72082	0.09427
3520.43505	0.09546
3519.14928	0.09656
3517.86351	0.09736
3516.57774	0.09764
3515.29197	0.09741
3514.00620	0.09694
3512.72043	0.09657
3511.43467	0.09646
3510.14890	0.09661
3508.86313	0.09699
3507.57736	0.09760
3506.29159	0.09840
3505.00582	0.09921
3503.72005	0.09980
3502.43428	0.10010
3501.14852	0.10028
3499.86275	0.10059
3498.57698	0.10113
3497.29121	0.10180
3496.00544	0.10238
3494.71967	0.10267
3493.43390	0.10268
3492.14813	0.10268
3490.86236	0.10290
3489.57660	0.10342
3488.29083	0.10417
3487.00506	0.10497
3485.71929	0.10563
3484.43352	0.10598
3483.14775	0.10601
3481.86198	0.10591
3480.57621	0.10588
3479.29045	0.10601
3478.00468	0.10633
3476.71891	0.10674
3475.43314	0.10715
3474.14737	0.10749
3472.86160	0.10778
3471.57583	0.10810
3470.29006	0.10844
3469.00429	0.10881
3467.71853	0.10926
3466.43276	0.10988
3465.14699	0.11075
3463.86122	0.11181
3462.57545	0.11285
3461.28968	0.11365
3460.00391	0.11404
3458.71814	0.11402
3457.43238	0.11375
3456.14661	0.11350
3454.86084	0.11348
3453.57507	0.11366
3452.28930	0.11378
3451.00353	0.11359
3449.71776	0.11321
3448.43199	0.11310
3447.14622	0.11367
3445.86046	0.11490
3444.57469	0.11626
3443.28892	0.11723
3442.00315	0.11771
3440.71738	0.11791
3439.43161	0.11809
3438.14584	0.11834
3436.86007	0.11868
3435.57431	0.11908
3434.28854	0.11949
3433.00277	0.11987
3431.71700	0.12024
3430.43123	0.12078
3429.14546	0.12172
3427.85969	0.12307
3426.57392	0.12450
3425.28815	0.12555
3424.00239	0.12606
3422.71662	0.12623
3421.43085	0.12630
3420.14508	0.12634
3418.85931	0.12631
3417.57354	0.12627
3416.28777	0.12632
3415.00200	0.12653
3413.71624	0.12689
3412.43047	0.12736
3411.14470	0.12790
3409.85893	0.12846
3408.57316	0.12897
3407.28739	0.12935
3406.00162	0.12957
3404.71585	0.12967
3403.43008	0.12976
3402.14432	0.12998
3400.85855	0.13052
3399.57278	0.13138
3398.28701	0.13218
3397.00124	0.13276
3395.71547	0.13313
3394.42970	0.13344
3393.14393	0.13378
3391.85817	0.13413
3390.57240	0.13432
3389.28663	0.13434
3388.00086	0.13432
3386.71509	0.13442
3385.42932	0.13472
3384.14355	0.13528
3382.85778	0.13613
3381.57201	0.13715
3380.28625	0.13805
3379.00048	0.13857
3377.71471	0.13875
3376.42894	0.13884
3375.14317	0.13913
3373.85740	0.13979
3372.57163	0.14076
3371.28586	0.14178
3370.00010	0.14253
3368.71433	0.14290
3367.42856	0.14297
3366.14279	0.14301
3364.85702	0.14325
3363.57125	0.14383
3362.28548	0.14470
3360.99971	0.14564
3359.71394	0.14641
3358.42818	0.14691
3357.14241	0.14727
3355.85664	0.14770
3354.57087	0.14836
3353.28510	0.14927
3351.99933	0.15035
3350.71356	0.15144
3349.42779	0.15240
3348.14202	0.15319
3346.85626	0.15391
3345.57049	0.15469
3344.28472	0.15558
3342.99895	0.15657
3341.71318	0.15759
3340.42741	0.15851
3339.14164	0.15914
3337.85587	0.15944
3336.57011	0.15957
3335.28434	0.15979
3333.99857	0.16026
3332.71280	0.16097
3331.42703	0.16183
3330.14126	0.16277
3328.85549	0.16375
3327.56972	0.16462
3326.28395	0.16522
3324.99819	0.16551
3323.71242	0.16561
3322.42665	0.16573
3321.14088	0.16604
3319.85511	0.16660
3318.56934	0.16732
3317.28357	0.16804
3315.99780	0.16861
3314.71204	0.16901
3313.42627	0.16926
3312.14050	0.16945
3310.85473	0.16965
3309.56896	0.16989
3308.28319	0.17023
3306.99742	0.17071
3305.71165	0.17134
3304.42588	0.17205
3303.14012	0.17268
3301.85435	0.17318
3300.56858	0.17364
3299.28281	0.17423
3297.99704	0.17500
3296.71127	0.17577
3295.42550	0.17619
3294.13973	0.17607
3292.85397	0.17553
3291.56820	0.17491
3290.28243	0.17445
3288.99666	0.17419
3287.71089	0.17406
3286.42512	0.17410
3285.13935	0.17441
3283.85358	0.17494
3282.56781	0.17539
3281.28205	0.17543
3279.99628	0.17506
3278.71051	0.17465
3277.42474	0.17462
3276.13897	0.17496
3274.85320	0.17530
3273.56743	0.17529
3272.28166	0.17486
3270.99590	0.17419
3269.71013	0.17345
3268.42436	0.17278
3267.13859	0.17223
3265.85282	0.17184
3264.56705	0.17159
3263.28128	0.17146
3261.99551	0.17139
3260.70974	0.17135
3259.42398	0.17125
3258.13821	0.17099
3256.85244	0.17054
3255.56667	0.16993
3254.28090	0.16924
3252.99513	0.16858
3251.70936	0.16804
3250.42359	0.16757
3249.13783	0.16701
3247.85206	0.16615
3246.56629	0.16509
3245.28052	0.16416
3243.99475	0.16366
3242.70898	0.16356
3241.42321	0.16360
3240.13744	0.16354
3238.85167	0.16332
3237.56591	0.16300
3236.28014	0.16257
3234.99437	0.16202
3233.70860	0.16140
3232.42283	0.16089
3231.13706	0.16058
3229.85129	0.16040
3228.56552	0.16019
3227.27976	0.15993
3225.99399	0.15971
3224.70822	0.15948
3223.42245	0.15911
3222.13668	0.15854
3220.85091	0.15793
3219.56514	0.15746
3218.27937	0.15717
3216.99360	0.15689
3215.70784	0.15642
3214.42207	0.15568
3213.13630	0.15475
3211.85053	0.15381
3210.56476	0.15307
3209.27899	0.15268
3207.99322	0.15265
3206.70745	0.15280
3205.42169	0.15290
3204.13592	0.15284
3202.85015	0.15270
3201.56438	0.15252
3200.27861	0.15232
3198.99284	0.15204
3197.70707	0.15168
3196.42130	0.15124
3195.13553	0.15071
3193.84977	0.15015
3192.56400	0.14962
3191.27823	0.14913
3189.99246	0.14859
3188.70669	0.14800
3187.42092	0.14746
3186.13515	0.14706
3184.84938	0.14671
3183.56362	0.14620
3182.27785	0.14550
3180.99208	0.14478
3179.70631	0.14423
3178.42054	0.14386
3177.13477	0.14350
3175.84900	0.14301
3174.56323	0.14236
3173.27746	0.14164
3171.99170	0.14097
3170.70593	0.14039
3169.42016	0.13983
3168.13439	0.13919
3166.84862	0.13844
3165.56285	0.13762
3164.27708	0.13680
3162.99131	0.13600
3161.70555	0.13524
3160.41978	0.13462
3159.13401	0.13422
3157.84824	0.13400
3156.56247	0.13381
3155.27670	0.13351
3153.99093	0.13310
3152.70516	0.13259
3151.41939	0.13194
3150.13363	0.13108
3148.84786	0.13009
3147.56209	0.12921
3146.27632	0.12860
3144.99055	0.12815
3143.70478	0.12761
3142.41901	0.12687
3141.13324	0.12609
3139.84748	0.12543
3138.56171	0.12495
3137.27594	0.12461
3135.99017	0.12441
3134.70440	0.12439
3133.41863	0.12447
3132.13286	0.12455
3130.84709	0.12455
3129.56132	0.12440
3128.27556	0.12406
3126.98979	0.12355
3125.70402	0.12298
3124.41825	0.12242
3123.13248	0.12187
3121.84671	0.12131
3120.56094	0.12081
3119.27517	0.12048
3117.98940	0.12040
3116.70364	0.12051
3115.41787	0.12072
3114.13210	0.12089
3112.84633	0.12086
3111.56056	0.12056
3110.27479	0.12013
3108.98902	0.11988
3107.70325	0.12000
3106.41749	0.12039
3105.13172	0.12077
3103.84595	0.12092
3102.56018	0.12089
3101.27441	0.12083
3099.98864	0.12088
3098.70287	0.12104
3097.41710	0.12127
3096.13133	0.12155
3094.84557	0.12189
3093.55980	0.12221
3092.27403	0.12237
3090.98826	0.12231
3089.70249	0.12213
3088.41672	0.12206
3087.13095	0.12217
3085.84518	0.12232
3084.55942	0.12229
3083.27365	0.12208
3081.98788	0.12192
3080.70211	0.12209
3079.41634	0.12258
3078.13057	0.12312
3076.84480	0.12341
3075.55903	0.12337
3074.27326	0.12312
3072.98750	0.12285
3071.70173	0.12268
3070.41596	0.12262
3069.13019	0.12260
3067.84442	0.12256
3066.55865	0.12248
3065.27288	0.12235
3063.98711	0.12223
3062.70135	0.12217
3061.41558	0.12214
3060.12981	0.12205
3058.84404	0.12185
3057.55827	0.12153
3056.27250	0.12112
3054.98673	0.12062
3053.70096	0.12001
3052.41519	0.11929
3051.12943	0.11853
3049.84366	0.11785
3048.55789	0.11732
3047.27212	0.11688
3045.98635	0.11649
3044.70058	0.11611
3043.41481	0.11567
3042.12904	0.11512
3040.84328	0.11447
3039.55751	0.11373
3038.27174	0.11292
3036.98597	0.11206
3035.70020	0.11124
3034.41443	0.11055
3033.12866	0.11002
3031.84289	0.10955
3030.55712	0.10907
3029.27136	0.10849
3027.98559	0.10777
3026.69982	0.10699
3025.41405	0.10635
3024.12828	0.10604
3022.84251	0.10606
3021.55674	0.10622
3020.27097	0.10627
3018.98521	0.10609
3017.69944	0.10569
3016.41367	0.10517
3015.12790	0.10457
3013.84213	0.10392
3012.55636	0.10328
3011.27059	0.10274
3009.98482	0.10239
3008.69905	0.10222
3007.41329	0.10216
3006.12752	0.10213
3004.84175	0.10207
3003.55598	0.10194
3002.27021	0.10172
3000.98444	0.10138
2999.69867	0.10101
2998.41290	0.10087
2997.12714	0.10096
2995.84137	0.10109
2994.55560	0.10110
2993.26983	0.10098
2991.98406	0.10088
2990.69829	0.10089
2989.41252	0.10107
2988.12675	0.10143
2986.84098	0.10195
2985.55522	0.10256
2984.26945	0.10317
2982.98368	0.10375
2981.69791	0.10431
2980.41214	0.10478
2979.12637	0.10510
2977.84060	0.10531
2976.55483	0.10549
2975.26907	0.10564
2973.98330	0.10573
2972.69753	0.10590
2971.41176	0.10633
2970.12599	0.10706
2968.84022	0.10792
2967.55445	0.10872
2966.26868	0.10941
2964.98291	0.11001
2963.69715	0.11061
2962.41138	0.11122
2961.12561	0.11171
2959.83984	0.11196
2958.55407	0.11203
2957.26830	0.11214
2955.98253	0.11239
2954.69676	0.11263
2953.41100	0.11264
2952.12523	0.11239
2950.83946	0.11207
2949.55369	0.11188
2948.26792	0.11194
2946.98215	0.11218
2945.69638	0.11240
2944.41061	0.11252
2943.12484	0.11260
2941.83908	0.11279
2940.55331	0.11317
2939.26754	0.11375
2937.98177	0.11451
2936.69600	0.11535
2935.41023	0.11612
2934.12446	0.11677
2932.83869	0.11735
2931.55293	0.11791
2930.26716	0.11835
2928.98139	0.11847
2927.69562	0.11820
2926.40985	0.11768
2925.12408	0.11711
2923.83831	0.11658
2922.55254	0.11612
2921.26677	0.11569
2919.98101	0.11527
2918.69524	0.11481
2917.40947	0.11428
2916.12370	0.11364
2914.83793	0.11289
2913.55216	0.11202
2912.26639	0.11108
2910.98062	0.11013
2909.69486	0.10918
2908.40909	0.10827
2907.12332	0.10747
2905.83755	0.10679
2904.55178	0.10616
2903.26601	0.10554
2901.98024	0.10495
2900.69447	0.10444
2899.40870	0.10401
2898.12294	0.10366
2896.83717	0.10337
2895.55140	0.10315
2894.26563	0.10298
2892.97986	0.10285
2891.69409	0.10268
2890.40832	0.10238
2889.12255	0.10200
2887.83678	0.10169
2886.55102	0.10154
2885.26525	0.10143
2883.97948	0.10125
2882.69371	0.10105
2881.40794	0.10096
2880.12217	0.10101
2878.83640	0.10112
2877.55063	0.10121
2876.26487	0.10118
2874.97910	0.10098
2873.69333	0.10070
2872.40756	0.10050
2871.12179	0.10043
2869.83602	0.10039
2868.55025	0.10025
2867.26448	0.09993
2865.97871	0.09943
2864.69295	0.09880
2863.40718	0.09819
2862.12141	0.09779
2860.83564	0.09766
2859.54987	0.09770
2858.26410	0.09776
2856.97833	0.09775
2855.69256	0.09773
2854.40680	0.09775
2853.12103	0.09769
2851.83526	0.09736
2850.54949	0.09659
2849.26372	0.09542
2847.97795	0.09405
2846.69218	0.09276
2845.40641	0.09183
2844.12064	0.09131
2842.83488	0.09095
2841.54911	0.09046
2840.26334	0.08978
2838.97757	0.08909
2837.69180	0.08858
2836.40603	0.08820
2835.12026	0.08784
2833.83449	0.08746
2832.54873	0.08711
2831.26296	0.08678
2829.97719	0.08645
2828.69142	0.08614
2827.40565	0.08590
2826.11988	0.08573
2824.83411	0.08557
2823.54834	0.08541
2822.26257	0.08523
2820.97681	0.08498
2819.69104	0.08467
2818.40527	0.08443
2817.11950	0.08435
2815.83373	0.08436
2814.54796	0.08430
2813.26219	0.08408
2811.97642	0.08374
2810.69066	0.08334
2809.40489	0.08298
2808.11912	0.08280
2806.83335	0.08291
2805.54758	0.08323
2804.26181	0.08347
2802.97604	0.08339
2801.69027	0.08300
2800.40450	0.08254
2799.11874	0.08219
2797.83297	0.08197
2796.54720	0.08178
2795.26143	0.08158
2793.97566	0.08138
2792.68989	0.08120
2791.40412	0.08100
2790.11835	0.08078
2788.83259	0.08055
2787.54682	0.08032
2786.26105	0.08008
2784.97528	0.07990
2783.68951	0.07980
2782.40374	0.07976
2781.11797	0.07966
2779.83220	0.07942
2778.54643	0.07907
2777.26067	0.07875
2775.97490	0.07853
2774.68913	0.07837
2773.40336	0.07818
2772.11759	0.07791
2770.83182	0.07761
2769.54605	0.07738
2768.26028	0.07731
2766.97452	0.07736
2765.68875	0.07743
2764.40298	0.07739
2763.11721	0.07722
2761.83144	0.07701
2760.54567	0.07682
2759.25990	0.07668
2757.97413	0.07654
2756.68836	0.07632
2755.40260	0.07599
2754.11683	0.07560
2752.83106	0.07524
2751.54529	0.07497
2750.25952	0.07480
2748.97375	0.07474
2747.68798	0.07478
2746.40221	0.07479
2745.11645	0.07466
2743.83068	0.07436
2742.54491	0.07402
2741.25914	0.07380
2739.97337	0.07374
2738.68760	0.07374
2737.40183	0.07368
2736.11606	0.07359
2734.83029	0.07359
2733.54453	0.07370
2732.25876	0.07378
2730.97299	0.07362
2729.68722	0.07320
2728.40145	0.07271
2727.11568	0.07234
2725.82991	0.07215
2724.54414	0.07210
2723.25838	0.07208
2721.97261	0.07203
2720.68684	0.07189
2719.40107	0.07165
2718.11530	0.07133
2716.82953	0.07101
2715.54376	0.07076
2714.25799	0.07062
2712.97222	0.07059
2711.68646	0.07060
2710.40069	0.07055
2709.11492	0.07043
2707.82915	0.07031
2706.54338	0.07025
2705.25761	0.07022
2703.97184	0.07008
2702.68607	0.06976
2701.40031	0.06937
2700.11454	0.06911
2698.82877	0.06907
2697.54300	0.06917
2696.25723	0.06922
2694.97146	0.06910
2693.68569	0.06882
2692.39992	0.06850
2691.11415	0.06829
2689.82839	0.06824
2688.54262	0.06828
2687.25685	0.06827
2685.97108	0.06814
2684.68531	0.06794
2683.39954	0.06777
2682.11377	0.06768
2680.82800	0.06766
2679.54224	0.06762
2678.25647	0.06751
2676.97070	0.06738
2675.68493	0.06726
2674.39916	0.06717
2673.11339	0.06710
2671.82762	0.06703
2670.54185	0.06694
2669.25608	0.06683
2667.97032	0.06676
2666.68455	0.06679
2665.39878	0.06692
2664.11301	0.06704
2662.82724	0.06703
2661.54147	0.06689
2660.25570	0.06668
2658.96993	0.06656
2657.68417	0.06655
2656.39840	0.06656
2655.11263	0.06642
2653.82686	0.06613
2652.54109	0.06585
2651.25532	0.06575
2649.96955	0.06574
2648.68378	0.06563
2647.39801	0.06532
2646.11225	0.06491
2644.82648	0.06457
2643.54071	0.06432
2642.25494	0.06408
2640.96917	0.06379
2639.68340	0.06346
2638.39763	0.06314
2637.11186	0.06285
2635.82609	0.06257
2634.54033	0.06226
2633.25456	0.06192
2631.96879	0.06162
2630.68302	0.06145
2629.39725	0.06140
2628.11148	0.06135
2626.82571	0.06122
2625.53994	0.06096
2624.25418	0.06062
2622.96841	0.06032
2621.68264	0.06018
2620.39687	0.06019
2619.11110	0.06017
2617.82533	0.05995
2616.53956	0.05963
2615.25379	0.05945
2613.96802	0.05953
2612.68226	0.05969
2611.39649	0.05962
2610.11072	0.05918
2608.82495	0.05855
2607.53918	0.05806
2606.25341	0.05784
2604.96764	0.05773
2603.68187	0.05750
2602.39611	0.05718
2601.11034	0.05693
2599.82457	0.05683
2598.53880	0.05680
2597.25303	0.05681
2595.96726	0.05686
2594.68149	0.05687
2593.39572	0.05669
2592.10995	0.05628
2590.82419	0.05579
2589.53842	0.05540
2588.25265	0.05515
2586.96688	0.05497
2585.68111	0.05480
2584.39534	0.05472
2583.10957	0.05477
2581.82380	0.05488
2580.53804	0.05489
2579.25227	0.05476
2577.96650	0.05459
2576.68073	0.05450
2575.39496	0.05442
2574.10919	0.05422
2572.82342	0.05387
2571.53765	0.05350
2570.25188	0.05319
2568.96612	0.05293
2567.68035	0.05271
2566.39458	0.05255
2565.10881	0.05238
2563.82304	0.05221
2562.53727	0.05216
2561.25150	0.05237
2559.96573	0.05273
2558.67997	0.05295
2557.39420	0.05286
2556.10843	0.05256
2554.82266	0.05218
2553.53689	0.05173
2552.25112	0.05125
2550.96535	0.05091
2549.67958	0.05083
2548.39381	0.05092
2547.10805	0.05098
2545.82228	0.05097
2544.53651	0.05100
2543.25074	0.05105
2541.96497	0.05096
2540.67920	0.05066
2539.39343	0.05027
2538.10766	0.04998
2536.82190	0.04988
2535.53613	0.04993
2534.25036	0.05008
2532.96459	0.05024
2531.67882	0.05035
2530.39305	0.05039
2529.10728	0.05040
2527.82151	0.05032
2526.53574	0.04999
2525.24998	0.04935
2523.96421	0.04862
2522.67844	0.04816
2521.39267	0.04814
2520.10690	0.04843
2518.82113	0.04882
2517.53536	0.04915
2516.24959	0.04931
2514.96383	0.04932
2513.67806	0.04928
2512.39229	0.04934
2511.10652	0.04952
2509.82075	0.04964
2508.53498	0.04946
2507.24921	0.04893
2505.96344	0.04825
2504.67767	0.04779
2503.39191	0.04767
2502.10614	0.04770
2500.82037	0.04760
2499.53460	0.04740
2498.24883	0.04728
2496.96306	0.04735
2495.67729	0.04753
2494.39152	0.04768
2493.10576	0.04774
2491.81999	0.04778
2490.53422	0.04786
2489.24845	0.04788
2487.96268	0.04764
2486.67691	0.04713
2485.39114	0.04666
2484.10537	0.04654
2482.81960	0.04666
2481.53384	0.04669
2480.24807	0.04655
2478.96230	0.04651
2477.67653	0.04681
2476.39076	0.04732
2475.10499	0.04768
2473.81922	0.04761
2472.53345	0.04707
2471.24769	0.04629
2469.96192	0.04566
2468.67615	0.04552
2467.39038	0.04582
2466.10461	0.04627
2464.81884	0.04651
2463.53307	0.04647
2462.24730	0.04632
2460.96153	0.04625
2459.67577	0.04633
2458.39000	0.04646
2457.10423	0.04647
2455.81846	0.04628
2454.53269	0.04602
2453.24692	0.04585
2451.96115	0.04577
2450.67538	0.04570
2449.38962	0.04564
2448.10385	0.04567
2446.81808	0.04584
2445.53231	0.04607
2444.24654	0.04620
2442.96077	0.04608
2441.67500	0.04573
2440.38923	0.04537
2439.10346	0.04519
2437.81770	0.04513
2436.53193	0.04499
2435.24616	0.04475
2433.96039	0.04456
2432.67462	0.04454
2431.38885	0.04461
2430.10308	0.04467
2428.81731	0.04475
2427.53155	0.04487
2426.24578	0.04492
2424.96001	0.04481
2423.67424	0.04463
2422.38847	0.04451
2421.10270	0.04441
2419.81693	0.04418
2418.53116	0.04386
2417.24539	0.04362
2415.95963	0.04357
2414.67386	0.04363
2413.38809	0.04373
2412.10232	0.04387
2410.81655	0.04403
2409.53078	0.04419
2408.24501	0.04431
2406.95924	0.04438
2405.67347	0.04440
2404.38771	0.04436
2403.10194	0.04426
2401.81617	0.04416
2400.53040	0.04411
2399.24463	0.04403
2397.95886	0.04404
2396.67309	0.04407
2395.38732	0.04407
2394.10156	0.04406
2392.81579	0.04405
2391.53002	0.04405
2390.24425	0.04411
2388.95848	0.04426
2387.67271	0.04447
2386.38694	0.04463
2385.10117	0.04465
2383.81540	0.04460
2382.52964	0.04456
2381.24387	0.04458
2379.95810	0.04463
2378.67233	0.04472
2377.38656	0.04494
2376.10079	0.04530
2374.81502	0.04573
2373.52925	0.04602
2372.24349	0.04611
2370.95772	0.04611
2369.67195	0.04621
2368.38618	0.04647
2367.10041	0.04682
2365.81464	0.04720
2364.52887	0.04754
2363.24310	0.04774
2361.95733	0.04769
2360.67157	0.04738
2359.38580	0.04707
2358.10003	0.04696
2356.81426	0.04699
2355.52849	0.04698
2354.24272	0.04680
2352.95695	0.04638
2351.67118	0.04577
2350.38542	0.04525
2349.09965	0.04514
2347.81388	0.04543
2346.52811	0.04576
2345.24234	0.04610
2343.95657	0.04667
2342.67080	0.04724
2341.38503	0.04714
2340.09926	0.04651
2338.81350	0.04640
2337.52773	0.04682
2336.24196	0.04660
2334.95619	0.04588
2333.67042	0.04589
2332.38465	0.04632
2331.09888	0.04599
2329.81311	0.04568
2328.52735	0.04618
2327.24158	0.04635
2325.95581	0.04626
2324.67004	0.04662
2323.38427	0.04665
2322.09850	0.04613
2320.81273	0.04583
2319.52696	0.04527
2318.24119	0.04454
2316.95543	0.04418
2315.66966	0.04385
2314.38389	0.04347
2313.09812	0.04320
2311.81235	0.04284
2310.52658	0.04262
2309.24081	0.04252
2307.95504	0.04231
2306.66928	0.04208
2305.38351	0.04182
2304.09774	0.04165
2302.81197	0.04149
2301.52620	0.04118
2300.24043	0.04077
2298.95466	0.04038
2297.66889	0.04020
2296.38312	0.04027
2295.09736	0.04045
2293.81159	0.04058
2292.52582	0.04052
2291.24005	0.04028
2289.95428	0.04002
2288.66851	0.03984
2287.38274	0.03973
2286.09697	0.03957
2284.81121	0.03934
2283.52544	0.03912
2282.23967	0.03892
2280.95390	0.03877
2279.66813	0.03864
2278.38236	0.03853
2277.09659	0.03839
2275.81082	0.03819
2274.52505	0.03801
2273.23929	0.03792
2271.95352	0.03787
2270.66775	0.03766
2269.38198	0.03717
2268.09621	0.03650
2266.81044	0.03586
2265.52467	0.03543
2264.23890	0.03519
2262.95314	0.03497
2261.66737	0.03464
2260.38160	0.03422
2259.09583	0.03394
2257.81006	0.03396
2256.52429	0.03417
2255.23852	0.03431
2253.95275	0.03410
2252.66698	0.03354
2251.38122	0.03296
2250.09545	0.03290
2248.80968	0.03361
2247.52391	0.03439
2246.23814	0.03497
2244.95237	0.03493
2243.66660	0.03426
2242.38083	0.03325
2241.09507	0.03227
2239.80930	0.03155
2238.52353	0.03128
2237.23776	0.03158
2235.95199	0.03226
2234.66622	0.03278
2233.38045	0.03270
2232.09468	0.03217
2230.80891	0.03167
2229.52315	0.03147
2228.23738	0.03136
2226.95161	0.03111
2225.66584	0.03073
2224.38007	0.03031
2223.09430	0.02994
2221.80853	0.02963
2220.52276	0.02937
2219.23700	0.02911
2217.95123	0.02899
2216.66546	0.02929
2215.37969	0.02998
2214.09392	0.03049
2212.80815	0.03021
2211.52238	0.02920
2210.23661	0.02821
2208.95084	0.02802
2207.66508	0.02877
2206.37931	0.02983
2205.09354	0.03048
2203.80777	0.03045
2202.52200	0.03001
2201.23623	0.02949
2199.95046	0.02895
2198.66469	0.02842
2197.37893	0.02815
2196.09316	0.02836
2194.80739	0.02880
2193.52162	0.02886
2192.23585	0.02821
2190.95008	0.02730
2189.66431	0.02691
2188.37854	0.02733
2187.09277	0.02808
2185.80701	0.02844
2184.52124	0.02813
2183.23547	0.02727
2181.94970	0.02620
2180.66393	0.02522
2179.37816	0.02460
2178.09239	0.02434
2176.80662	0.02428
2175.52085	0.02431
2174.23509	0.02441
2172.94932	0.02445
2171.66355	0.02431
2170.37778	0.02415
2169.09201	0.02427
2167.80624	0.02452
2166.52047	0.02427
2165.23470	0.02321
2163.94894	0.02180
2162.66317	0.02073
2161.37740	0.02018
2160.09163	0.01985
2158.80586	0.01956
2157.52009	0.01937
2156.23432	0.01930
2154.94855	0.01917
2153.66278	0.01902
2152.37702	0.01917
2151.09125	0.01976
2149.80548	0.02051
2148.51971	0.02110
2147.23394	0.02161
2145.94817	0.02234
2144.66240	0.02315
2143.37663	0.02348
2142.09087	0.02313
2140.80510	0.02258
2139.51933	0.02249
2138.23356	0.02303
2136.94779	0.02382
2135.66202	0.02452
2134.37625	0.02502
2133.09048	0.02536
2131.80471	0.02559
2130.51895	0.02585
2129.23318	0.02628
2127.94741	0.02686
2126.66164	0.02734
2125.37587	0.02755
2124.09010	0.02764
2122.80433	0.02795
2121.51856	0.02868
2120.23280	0.02964
2118.94703	0.03041
2117.66126	0.03066
2116.37549	0.03035
2115.08972	0.02974
2113.80395	0.02919
2112.51818	0.02892
2111.23241	0.02891
2109.94664	0.02891
2108.66088	0.02868
2107.37511	0.02827
2106.08934	0.02798
2104.80357	0.02796
2103.51780	0.02796
2102.23203	0.02759
2100.94626	0.02697
2099.66049	0.02958
2098.37473	0.03090
2097.08896	0.03089
2095.80319	0.03057
2094.51742	0.03013
2093.23165	0.02955
2091.94588	0.02881
2090.66011	0.02798
2089.37434	0.02730
2088.08857	0.02704
2086.80281	0.02717
2085.51704	0.02743
2084.23127	0.02758
2082.94550	0.02762
2081.65973	0.02765
2080.37396	0.02773
2079.08819	0.02784
2077.80242	0.02807
2076.51666	0.02858
2075.23089	0.02942
2073.94512	0.03042
2072.65935	0.03128
2071.37358	0.03178
2070.08781	0.03178
2068.80204	0.03121
2067.51627	0.03013
2066.23050	0.02881
2064.94474	0.02758
2063.65897	0.02663
2062.37320	0.02600
2061.08743	0.02567
2059.80166	0.02562
2058.51589	0.02580
2057.23012	0.02603
2055.94435	0.02608
2054.65859	0.02592
2053.37282	0.02581
2052.08705	0.02617
2050.80128	0.02702
2049.51551	0.02789
2048.22974	0.02827
2046.94397	0.02799
2045.65820	0.02732
2044.37243	0.02654
2043.08667	0.02575
2041.80090	0.02488
2040.51513	0.02399
2039.22936	0.02344
2037.94359	0.02363
2036.65782	0.02453
2035.37205	0.02560
2034.08628	0.02620
2032.80052	0.02611
2031.51475	0.02561
2030.22898	0.02509
2028.94321	0.02471
2027.65744	0.02442
2026.37167	0.02400
2025.08590	0.02328
2023.80013	0.02230
2022.51436	0.02138
2021.22860	0.02092
2019.94283	0.02117
2018.65706	0.02196
2017.37129	0.02280
2016.08552	0.02321
2014.79975	0.02302
2013.51398	0.02260
2012.22821	0.02259
2010.94245	0.02344
2009.65668	0.02495
2008.37091	0.02639
2007.08514	0.02707
2005.79937	0.02679
2004.51360	0.02583
2003.22783	0.02464
2001.94206	0.02347
2000.65629	0.02241
1999.37053	0.02144
1998.08476	0.02057
1996.79899	0.01986
1995.51322	0.01925
1994.22745	0.01865
1992.94168	0.01814
1991.65591	0.01794
1990.37014	0.01822
1989.08438	0.01889
1987.79861	0.01976
1986.51284	0.02072
1985.22707	0.02161
1983.94130	0.02232
1982.65553	0.02304
1981.36976	0.02426
1980.08399	0.02623
1978.79822	0.02840
1977.51246	0.02982
1976.22669	0.03001
1974.94092	0.02922
1973.65515	0.02793
1972.36938	0.02643
1971.08361	0.02495
1969.79784	0.02376
1968.51207	0.02306
1967.22631	0.02290
1965.94054	0.02327
1964.65477	0.02405
1963.36900	0.02484
1962.08323	0.02507
1960.79746	0.02449
1959.51169	0.02349
1958.22592	0.02275
1956.94015	0.02262
1955.65439	0.02293
1954.36862	0.02334
1953.08285	0.02370
1951.79708	0.02408
1950.51131	0.02461
1949.22554	0.02520
1947.93977	0.02560
1946.65400	0.02560
1945.36823	0.02530
1944.08247	0.02509
1942.79670	0.02533
1941.51093	0.02597
1940.22516	0.02664
1938.93939	0.02699
1937.65362	0.02695
1936.36785	0.02669
1935.08208	0.02644
1933.79632	0.02631
1932.51055	0.02628
1931.22478	0.02625
1929.93901	0.02613
1928.65324	0.02591
1927.36747	0.02564
1926.08170	0.02540
1924.79593	0.02526
1923.51016	0.02527
1922.22440	0.02542
1920.93863	0.02568
1919.65286	0.02599
1918.36709	0.02622
1917.08132	0.02616
1915.79555	0.02575
1914.50978	0.02524
1913.22401	0.02501
1911.93825	0.02521
1910.65248	0.02560
1909.36671	0.02591
1908.08094	0.02602
1906.79517	0.02602
1905.50940	0.02601
1904.22363	0.02598
1902.93786	0.02589
1901.65209	0.02577
1900.36633	0.02575
1899.08056	0.02591
1897.79479	0.02620
1896.50902	0.02648
1895.22325	0.02664
1893.93748	0.02671
1892.65171	0.02671
1891.36594	0.02663
1890.08018	0.02651
1888.79441	0.02639
1887.50864	0.02626
1886.22287	0.02601
1884.93710	0.02556
1883.65133	0.02505
1882.36556	0.02472
1881.07979	0.02467
1879.79402	0.02484
1878.50826	0.02506
1877.22249	0.02522
1875.93672	0.02531
1874.65095	0.02534
1873.36518	0.02534
1872.07941	0.02535
1870.79364	0.02538
1869.50787	0.02543
1868.22211	0.02543
1866.93634	0.02529
1865.65057	0.02506
1864.36480	0.02490
1863.07903	0.02492
1861.79326	0.02508
1860.50749	0.02525
1859.22172	0.02537
1857.93595	0.02541
1856.65019	0.02536
1855.36442	0.02521
1854.07865	0.02500
1852.79288	0.02480
1851.50711	0.02465
1850.22134	0.02458
1848.93557	0.02463
1847.64980	0.02477
1846.36404	0.02491
1845.07827	0.02492
1843.79250	0.02476
1842.50673	0.02450
1841.22096	0.02426
1839.93519	0.02413
1838.64942	0.02410
1837.36365	0.02408
1836.07788	0.02401
1834.79212	0.02391
1833.50635	0.02386
1832.22058	0.02388
1830.93481	0.02400
1829.64904	0.02426
1828.36327	0.02462
1827.07750	0.02498
1825.79173	0.02526
1824.50597	0.02550
1823.22020	0.02578
1821.93443	0.02612
1820.64866	0.02640
1819.36289	0.02639
1818.07712	0.02596
1816.79135	0.02520
1815.50558	0.02438
1814.21981	0.02372
1812.93405	0.02327
1811.64828	0.02296
1810.36251	0.02274
1809.07674	0.02260
1807.79097	0.02254
1806.50520	0.02255
1805.21943	0.02255
1803.93366	0.02254
1802.64790	0.02256
1801.36213	0.02268
1800.07636	0.02287
1798.79059	0.02309
1797.50482	0.02326
1796.21905	0.02341
1794.93328	0.02354
1793.64751	0.02362
1792.36174	0.02364
1791.07598	0.02361
1789.79021	0.02356
1788.50444	0.02350
1787.21867	0.02344
1785.93290	0.02339
1784.64713	0.02336
1783.36136	0.02339
1782.07559	0.02349
1780.78983	0.02362
1779.50406	0.02372
1778.21829	0.02371
1776.93252	0.02357
1775.64675	0.02334
1774.36098	0.02307
1773.07521	0.02280
1771.78944	0.02259
1770.50367	0.02243
1769.21791	0.02228
1767.93214	0.02216
1766.64637	0.02214
1765.36060	0.02220
1764.07483	0.02226
1762.78906	0.02232
1761.50329	0.02238
1760.21752	0.02246
1758.93176	0.02252
1757.64599	0.02257
1756.36022	0.02269
1755.07445	0.02289
1753.78868	0.02308
1752.50291	0.02320
1751.21714	0.02329
1749.93137	0.02342
1748.64560	0.02358
1747.35984	0.02373
1746.07407	0.02389
1744.78830	0.02408
1743.50253	0.02431
1742.21676	0.02456
1740.93099	0.02478
1739.64522	0.02503
1738.35945	0.02538
1737.07369	0.02579
1735.78792	0.02614
1734.50215	0.02644
1733.21638	0.02677
1731.93061	0.02713
1730.64484	0.02745
1729.35907	0.02770
1728.07330	0.02791
1726.78753	0.02810
1725.50177	0.02829
1724.21600	0.02851
1722.93023	0.02879
1721.64446	0.02918
1720.35869	0.02968
1719.07292	0.03026
1717.78715	0.03093
1716.50138	0.03167
1715.21561	0.03243
1713.92985	0.03316
1712.64408	0.03392
1711.35831	0.03480
1710.07254	0.03587
1708.78677	0.03719
1707.50100	0.03879
1706.21523	0.04065
1704.92946	0.04272
1703.64370	0.04494
1702.35793	0.04725
1701.07216	0.04969
1699.78639	0.05235
1698.50062	0.05513
1697.21485	0.05785
1695.92908	0.06052
1694.64331	0.06325
1693.35754	0.06597
1692.07178	0.06861
1690.78601	0.07126
1689.50024	0.07406
1688.21447	0.07698
1686.92870	0.07993
1685.64293	0.08291
1684.35716	0.08600
1683.07139	0.08918
1681.78563	0.09236
1680.49986	0.09552
1679.21409	0.09880
1677.92832	0.10222
1676.64255	0.10575
1675.35678	0.10937
1674.07101	0.11312
1672.78524	0.11694
1671.49947	0.12078
1670.21371	0.12465
1668.92794	0.12856
1667.64217	0.13243
1666.35640	0.13618
1665.07063	0.13981
1663.78486	0.14337
1662.49909	0.14691
1661.21332	0.15039
1659.92756	0.15374
1658.64179	0.15697
1657.35602	0.16012
1656.07025	0.16313
1654.78448	0.16590
1653.49871	0.16846
1652.21294	0.17085
1650.92717	0.17299
1649.64140	0.17478
1648.35564	0.17633
1647.06987	0.17787
1645.78410	0.17945
1644.49833	0.18096
1643.21256	0.18227
1641.92679	0.18341
1640.64102	0.18449
1639.35525	0.18558
1638.06949	0.18658
1636.78372	0.18741
1635.49795	0.18809
1634.21218	0.18863
1632.92641	0.18896
1631.64064	0.18902
1630.35487	0.18874
1629.06910	0.18809
1627.78333	0.18701
1626.49757	0.18547
1625.21180	0.18349
1623.92603	0.18116
1622.64026	0.17859
1621.35449	0.17584
1620.06872	0.17286
1618.78295	0.16958
1617.49718	0.16607
1616.21142	0.16246
1614.92565	0.15882
1613.63988	0.15513
1612.35411	0.15140
1611.06834	0.14769
1609.78257	0.14400
1608.49680	0.14034
1607.21103	0.13674
1605.92526	0.13325
1604.63950	0.12995
1603.35373	0.12689
1602.06796	0.12408
1600.78219	0.12151
1599.49642	0.11916
1598.21065	0.11700
1596.92488	0.11501
1595.63911	0.11316
1594.35335	0.11146
1593.06758	0.10991
1591.78181	0.10854
1590.49604	0.10740
1589.21027	0.10653
1587.92450	0.10592
1586.63873	0.10550
1585.35296	0.10521
1584.06719	0.10503
1582.78143	0.10500
1581.49566	0.10521
1580.20989	0.10567
1578.92412	0.10634
1577.63835	0.10712
1576.35258	0.10803
1575.06681	0.10915
1573.78104	0.11046
1572.49528	0.11185
1571.20951	0.11337
1569.92374	0.11508
1568.63797	0.11701
1567.35220	0.11907
1566.06643	0.12118
1564.78066	0.12334
1563.49489	0.12560
1562.20912	0.12792
1560.92336	0.13024
1559.63759	0.13255
1558.35182	0.13488
1557.06605	0.13712
1555.78028	0.13918
1554.49451	0.14113
1553.20874	0.14304
1551.92297	0.14493
1550.63721	0.14672
1549.35144	0.14843
1548.06567	0.15006
1546.77990	0.15158
1545.49413	0.15296
1544.20836	0.15420
1542.92259	0.15529
1541.63682	0.15617
1540.35105	0.15687
1539.06529	0.15743
1537.77952	0.15791
1536.49375	0.15827
1535.20798	0.15850
1533.92221	0.15867
1532.63644	0.15881
1531.35067	0.15887
1530.06490	0.15885
1528.77914	0.15879
1527.49337	0.15867
1526.20760	0.15845
1524.92183	0.15810
1523.63606	0.15764
1522.35029	0.15713
1521.06452	0.15665
1519.77875	0.15617
1518.49298	0.15557
1517.20722	0.15477
1515.92145	0.15376
1514.63568	0.15253
1513.34991	0.15102
1512.06414	0.14928
1510.77837	0.14740
1509.49260	0.14539
1508.20683	0.14324
1506.92107	0.14095
1505.63530	0.13857
1504.34953	0.13607
1503.06376	0.13342
1501.77799	0.13066
1500.49222	0.12792
1499.20645	0.12522
1497.92068	0.12251
1496.63491	0.11975
1495.34915	0.11698
1494.06338	0.11423
1492.77761	0.11152
1491.49184	0.10888
1490.20607	0.10634
1488.92030	0.10389
1487.63453	0.10156
1486.34876	0.09937
1485.06299	0.09740
1483.77723	0.09570
1482.49146	0.09431
1481.20569	0.09320
1479.91992	0.09238
1478.63415	0.09184
1477.34838	0.09160
1476.06261	0.09165
1474.77684	0.09194
1473.49108	0.09245
1472.20531	0.09320
1470.91954	0.09414
1469.63377	0.09516
1468.34800	0.09614
1467.06223	0.09703
1465.77646	0.09786
1464.49069	0.09869
1463.20492	0.09962
1461.91916	0.10067
1460.63339	0.10188
1459.34762	0.10325
1458.06185	0.10473
1456.77608	0.10620
1455.49031	0.10750
1454.20454	0.10847
1452.91877	0.10910
1451.63301	0.10952
1450.34724	0.10984
1449.06147	0.11001
1447.77570	0.11000
1446.48993	0.10980
1445.20416	0.10945
1443.91839	0.10894
1442.63262	0.10832
1441.34685	0.10762
1440.06109	0.10684
1438.77532	0.10598
1437.48955	0.10502
1436.20378	0.10398
1434.91801	0.10283
1433.63224	0.10156
1432.34647	0.10027
1431.06070	0.09912
1429.77494	0.09821
1428.48917	0.09752
1427.20340	0.09699
1425.91763	0.09657
1424.63186	0.09628
1423.34609	0.09609
1422.06032	0.09597
1420.77455	0.09587
1419.48878	0.09583
1418.20302	0.09587
1416.91725	0.09595
1415.63148	0.09601
1414.34571	0.09606
1413.05994	0.09614
1411.77417	0.09629
1410.48840	0.09651
1409.20263	0.09682
1407.91687	0.09716
1406.63110	0.09750
1405.34533	0.09782
1404.05956	0.09811
1402.77379	0.09837
1401.48802	0.09854
1400.20225	0.09861
1398.91648	0.09861
1397.63071	0.09858
1396.34495	0.09851
1395.05918	0.09840
1393.77341	0.09826
1392.48764	0.09811
1391.20187	0.09792
1389.91610	0.09771
1388.63033	0.09750
1387.34456	0.09732
1386.05880	0.09712
1384.77303	0.09684
1383.48726	0.09645
1382.20149	0.09597
1380.91572	0.09545
1379.62995	0.09493
1378.34418	0.09442
1377.05841	0.09390
1375.77264	0.09333
1374.48688	0.09266
1373.20111	0.09192
1371.91534	0.09113
1370.62957	0.09033
1369.34380	0.08954
1368.05803	0.08870
1366.77226	0.08777
1365.48649	0.08674
1364.20073	0.08568
1362.91496	0.08470
1361.62919	0.08385
1360.34342	0.08315
1359.05765	0.08256
1357.77188	0.08208
1356.48611	0.08171
1355.20034	0.08148
1353.91457	0.08137
1352.62881	0.08137
1351.34304	0.08147
1350.05727	0.08165
1348.77150	0.08189
1347.48573	0.08218
1346.19996	0.08251
1344.91419	0.08288
1343.62842	0.08329
1342.34266	0.08371
1341.05689	0.08412
1339.77112	0.08448
1338.48535	0.08479
1337.19958	0.08501
1335.91381	0.08508
1334.62804	0.08495
1333.34227	0.08464
1332.05650	0.08418
1330.77074	0.08366
1329.48497	0.08316
1328.19920	0.08269
1326.91343	0.08226
1325.62766	0.08185
1324.34189	0.08147
1323.05612	0.08115
1321.77035	0.08092
1320.48459	0.08077
1319.19882	0.08069
1317.91305	0.08062
1316.62728	0.08053
1315.34151	0.08038
1314.05574	0.08019
1312.76997	0.07998
1311.48420	0.07977
1310.19843	0.07957
1308.91267	0.07936
1307.62690	0.07914
1306.34113	0.07890
1305.05536	0.07865
1303.76959	0.07838
1302.48382	0.07811
1301.19805	0.07784
1299.91228	0.07760
1298.62652	0.07742
1297.34075	0.07732
1296.05498	0.07731
1294.76921	0.07737
1293.48344	0.07749
1292.19767	0.07765
1290.91190	0.07787
1289.62613	0.07816
1288.34036	0.07851
1287.05460	0.07892
1285.76883	0.07937
1284.48306	0.07981
1283.19729	0.08022
1281.91152	0.08056
1280.62575	0.08082
1279.33998	0.08100
1278.05421	0.08111
1276.76845	0.08119
1275.48268	0.08125
1274.19691	0.08136
1272.91114	0.08151
1271.62537	0.08170
1270.33960	0.08192
1269.05383	0.08218
1267.76806	0.08247
1266.48229	0.08279
1265.19653	0.08314
1263.91076	0.08354
1262.62499	0.08403
1261.33922	0.08459
1260.05345	0.08518
1258.76768	0.08577
1257.48191	0.08634
1256.19614	0.08694
1254.91037	0.08760
1253.62461	0.08836
1252.33884	0.08919
1251.05307	0.09007
1249.76730	0.09094
1248.48153	0.09181
1247.19576	0.09269
1245.90999	0.09360
1244.62422	0.09454
1243.33846	0.09547
1242.05269	0.09633
1240.76692	0.09712
1239.48115	0.09782
1238.19538	0.09840
1236.90961	0.09885
1235.62384	0.09915
1234.33807	0.09930
1233.05230	0.09930
1231.76654	0.09915
1230.48077	0.09886
1229.19500	0.09838
1227.90923	0.09771
1226.62346	0.09689
1225.33769	0.09596
1224.05192	0.09495
1222.76615	0.09389
1221.48039	0.09280
1220.19462	0.09175
1218.90885	0.09080
1217.62308	0.08992
1216.33731	0.08906
1215.05154	0.08824
1213.76577	0.08753
1212.48000	0.08702
1211.19423	0.08668
1209.90847	0.08647
1208.62270	0.08633
1207.33693	0.08624
1206.05116	0.08618
1204.76539	0.08611
1203.47962	0.08601
1202.19385	0.08583
1200.90808	0.08536
1199.62232	0.08448
1198.33655	0.08394
1197.05078	0.08326
1195.76501	0.08245
1194.47924	0.08155
1193.19347	0.08064
1191.90770	0.07975
1190.62193	0.07890
1189.33616	0.07812
1188.05040	0.07742
1186.76463	0.07679
1185.47886	0.07620
1184.19309	0.07566
1182.90732	0.07520
1181.62155	0.07483
1180.33578	0.07457
1179.05001	0.07439
1177.76425	0.07423
1176.47848	0.07407
1175.19271	0.07390
1173.90694	0.07378
1172.62117	0.07370
1171.33540	0.07365
1170.04963	0.07360
1168.76386	0.07354
1167.47809	0.07351
1166.19233	0.07355
1164.90656	0.07363
1163.62079	0.07370
1162.33502	0.07368
1161.04925	0.07355
1159.76348	0.07333
1158.47771	0.07301
1157.19194	0.07261
1155.90618	0.07213
1154.62041	0.07161
1153.33464	0.07107
1152.04887	0.07047
1150.76310	0.06982
1149.47733	0.06914
1148.19156	0.06849
1146.90579	0.06792
1145.62002	0.06749
1144.33426	0.06716
1143.04849	0.06683
1141.76272	0.06645
1140.47695	0.06604
1139.19118	0.06568
1137.90541	0.06540
1136.61964	0.06520
1135.33387	0.06508
1134.04811	0.06499
1132.76234	0.06490
1131.47657	0.06478
1130.19080	0.06471
1128.90503	0.06473
1127.61926	0.06482
1126.33349	0.06494
1125.04772	0.06503
1123.76195	0.06508
1122.47619	0.06513
1121.19042	0.06521
1119.90465	0.06533
1118.61888	0.06549
1117.33311	0.06569
1116.04734	0.06598
1114.76157	0.06639
1113.47580	0.06690
1112.19004	0.06743
1110.90427	0.06798
1109.61850	0.06854
1108.33273	0.06911
1107.04696	0.06963
1105.76119	0.07007
1104.47542	0.07049
1103.18965	0.07090
1101.90388	0.07125
1100.61812	0.07156
1099.33235	0.07184
1098.04658	0.07213
1096.76081	0.07244
1095.47504	0.07277
1094.18927	0.07313
1092.90350	0.07357
1091.61773	0.07410
1090.33197	0.07471
1089.04620	0.07535
1087.76043	0.07599
1086.47466	0.07666
1085.18889	0.07739
1083.90312	0.07816
1082.61735	0.07890
1081.33158	0.07954
1080.04581	0.08004
1078.76005	0.08042
1077.47428	0.08063
1076.18851	0.08065
1074.90274	0.08052
1073.61697	0.08030
1072.33120	0.08005
1071.04543	0.07979
1069.75966	0.07954
1068.47390	0.07930
1067.18813	0.07908
1065.90236	0.07889
1064.61659	0.07873
1063.33082	0.07861
1062.04505	0.07848
1060.75928	0.07831
1059.47351	0.07811
1058.18774	0.07791
1056.90198	0.07772
1055.61621	0.07750
1054.33044	0.07727
1053.04467	0.07707
1051.75890	0.07697
1050.47313	0.07700
1049.18736	0.07712
1047.90159	0.07729
1046.61583	0.07751
1045.33006	0.07778
1044.04429	0.07809
1042.75852	0.07841
1041.47275	0.07875
1040.18698	0.07912
1038.90121	0.07946
1037.61544	0.07950
1036.32967	0.07896
1035.04391	0.07800
1033.75814	0.07729
1032.47237	0.07750
1031.18660	0.07855
1029.90083	0.07970
1028.61506	0.08028
1027.32929	0.08011
1026.04352	0.07938
1024.75775	0.07834
1023.47199	0.07716
1022.18622	0.07594
1020.90045	0.07476
1019.61468	0.07364
1018.32891	0.07257
1017.04314	0.07153
1015.75737	0.07052
1014.47160	0.06956
1013.18584	0.06869
1011.90007	0.06789
1010.61430	0.06714
1009.32853	0.06639
1008.04276	0.06565
1006.75699	0.06495
1005.47122	0.06429
1004.18545	0.06364
1002.89968	0.06299
1001.61392	0.06236
1000.32815	0.06182
999.04238	0.06135
997.75661	0.06092
996.47084	0.06053
995.18507	0.06015
993.89930	0.05977
992.61353	0.05941
991.32777	0.05910
990.04200	0.05884
988.75623	0.05857
987.47046	0.05825
986.18469	0.05788
984.89892	0.05752
983.61315	0.05723
982.32738	0.05700
981.04161	0.05678
979.75585	0.05658
978.47008	0.05647
977.18431	0.05648
975.89854	0.05655
974.61277	0.05655
973.32700	0.05641
972.04123	0.05614
970.75546	0.05584
969.46970	0.05559
968.18393	0.05538
966.89816	0.05515
965.61239	0.05483
964.32662	0.05443
963.04085	0.05399
961.75508	0.05354
960.46931	0.05315
959.18354	0.05283
957.89778	0.05254
956.61201	0.05224
955.32624	0.05193
954.04047	0.05161
952.75470	0.05132
951.46893	0.05102
950.18316	0.05075
948.89739	0.05051
947.61163	0.05036
946.32586	0.05028
945.04009	0.05029
943.75432	0.05035
942.46855	0.05044
941.18278	0.05051
939.89701	0.05051
938.61124	0.05039
937.32547	0.05019
936.03971	0.04996
934.75394	0.04975
933.46817	0.04955
932.18240	0.04935
930.89663	0.04914
929.61086	0.04892
928.32509	0.04869
927.03932	0.04849
925.75356	0.04832
924.46779	0.04823
923.18202	0.04817
921.89625	0.04807
920.61048	0.04788
919.32471	0.04764
918.03894	0.04744
916.75317	0.04726
915.46740	0.04705
914.18164	0.04676
912.89587	0.04641
911.61010	0.04605
910.32433	0.04574
909.03856	0.04551
907.75279	0.04535
906.46702	0.04522
905.18125	0.04508
903.89549	0.04490
902.60972	0.04468
901.32395	0.04444
900.03818	0.04421
898.75241	0.04399
897.46664	0.04376
896.18087	0.04355
894.89510	0.04342
893.60933	0.04337
892.32357	0.04333
891.03780	0.04324
889.75203	0.04313
888.46626	0.04303
887.18049	0.04294
885.89472	0.04286
884.60895	0.04279
883.32318	0.04280
882.03742	0.04288
880.75165	0.04302
879.46588	0.04317
878.18011	0.04327
876.89434	0.04324
875.60857	0.04307
874.32280	0.04289
873.03703	0.04280
871.75126	0.04280
870.46550	0.04281
869.17973	0.04277
867.89396	0.04266
866.60819	0.04248
865.32242	0.04226
864.03665	0.04208
862.75088	0.04202
861.46511	0.04207
860.17935	0.04213
858.89358	0.04209
857.60781	0.04199
856.32204	0.04190
855.03627	0.04187
853.75050	0.04185
852.46473	0.04181
851.17896	0.04177
849.89319	0.04179
848.60743	0.04186
847.32166	0.04189
846.03589	0.04182
844.75012	0.04166
843.46435	0.04150
842.17858	0.04140
840.89281	0.04141
839.60704	0.04149
838.32128	0.04158
837.03551	0.04162
835.74974	0.04160
834.46397	0.04154
833.17820	0.04145
831.89243	0.04135
830.60666	0.04128
829.32089	0.04128
828.03512	0.04134
826.74936	0.04147
825.46359	0.04164
824.17782	0.04183
822.89205	0.04199
821.60628	0.04216
820.32051	0.04241
819.03474	0.04270
817.74897	0.04293
816.46321	0.04300
815.17744	0.04293
813.89167	0.04283
812.60590	0.04277
811.32013	0.04276
810.03436	0.04281
808.74859	0.04295
807.46282	0.04316
806.17705	0.04335
804.89129	0.04350
803.60552	0.04364
802.31975	0.04380
801.03398	0.04396
799.74821	0.04410
798.46244	0.04422
797.17667	0.04436
795.89090	0.04450
794.60513	0.04463
793.31937	0.04478
792.03360	0.04495
790.74783	0.04512
789.46206	0.04527
788.17629	0.04538
786.89052	0.04550
785.60475	0.04565
784.31898	0.04579
783.03322	0.04587
781.74745	0.04589
780.46168	0.04596
779.17591	0.04615
777.89014	0.04644
776.60437	0.04672
775.31860	0.04691
774.03283	0.04699
772.74706	0.04704
771.46130	0.04711
770.17553	0.04722
768.88976	0.04738
767.60399	0.04760
766.31822	0.04782
765.03245	0.04800
763.74668	0.04811
762.46091	0.04824
761.17515	0.04849
759.88938	0.04888
758.60361	0.04932
757.31784	0.04972
756.03207	0.05000
754.74630	0.05016
753.46053	0.05020
752.17476	0.05021
750.88899	0.05028
749.60323	0.05044
748.31746	0.05066
747.03169	0.05089
745.74592	0.05112
744.46015	0.05136
743.17438	0.05161
741.88861	0.05183
740.60284	0.05199
739.31708	0.05205
738.03131	0.05207
736.74554	0.05214
735.45977	0.05233
734.17400	0.05257
732.88823	0.05277
731.60246	0.05290
730.31669	0.05302
729.03092	0.05321
727.74516	0.05346
726.45939	0.05373
725.17362	0.05402
723.88785	0.05422
722.60208	0.05454
721.31631	0.05486
720.03054	0.05514
718.74477	0.05541
717.45901	0.05571
716.17324	0.05597
714.88747	0.05616
713.60170	0.05629
712.31593	0.05641
711.03016	0.05659
709.74439	0.05682
708.45862	0.05710
707.17285	0.05737
705.88709	0.05765
704.60132	0.05797
703.31555	0.05834
702.02978	0.05869
700.74401	0.05895
699.45824	0.05910
698.17247	0.05916
696.88670	0.05922
695.60094	0.05933
694.31517	0.05950
693.02940	0.05971
691.74363	0.05990
690.45786	0.06002
689.17209	0.06004
687.88632	0.06003
686.60055	0.06005
685.31478	0.06015
684.02902	0.06029
682.74325	0.06040
681.45748	0.06047
680.17171	0.06054
678.88594	0.06065
677.60017	0.06080
676.31440	0.06095
675.02863	0.06110
673.74287	0.06126
672.45710	0.06145
671.17133	0.06167
669.88556	0.06189
668.59979	0.06208
667.31402	0.06223
666.02825	0.06228
664.74248	0.06234
663.45671	0.06243
662.17095	0.06256
660.88518	0.06268
659.59941	0.06278
658.31364	0.06286
657.02787	0.06293
655.74210	0.06296
654.45633	0.06296
653.17056	0.06294
651.88480	0.06292
650.59903	0.06293
649.31326	0.06297
648.02749	0.06308
646.74172	0.06325
645.45595	0.06346
644.17018	0.06364
642.88441	0.06374
641.59864	0.06374
640.31288	0.06365
639.02711	0.06354
637.74134	0.06347
636.45557	0.06344
635.16980	0.06344
633.88403	0.06341
632.59826	0.06328
631.31249	0.06345
630.02673	0.06574
628.74096	0.06925
627.45519	0.06673
626.16942	0.07031
624.88365	0.07773
623.59788	0.08429
622.31211	0.08848
621.02634	0.09008
619.74057	0.08933
618.45481	0.08683
617.16904	0.08302
615.88327	0.07825
614.59750	0.07358
613.31173	0.07070
612.02596	0.07064
610.74019	0.07284
609.45442	0.07583
608.16866	0.07853
606.88289	0.08057
605.59712	0.08172
604.31135	0.08177
603.02558	0.08076
601.73981	0.07908
600.45404	0.07731
599.16827	0.07580
597.88250	0.07455
596.59674	0.07336
595.31097	0.07215
594.02520	0.07106
592.73943	0.07032
591.45366	0.07000
590.16789	0.07000
588.88212	0.07014
587.59635	0.07028
586.31059	0.07039
585.02482	0.07046
583.73905	0.07049
582.45328	0.07053
581.16751	0.07070
579.88174	0.07104
578.59597	0.07148
577.31020	0.07190
576.02443	0.07221
574.73867	0.07248
573.45290	0.07281
572.16713	0.07327
570.88136	0.07388
569.59559	0.07457
568.30982	0.07521
567.02405	0.07569
565.73828	0.07591
564.45251	0.07587
563.16675	0.07563
561.88098	0.07527
560.59521	0.07486
559.30944	0.07443
558.02367	0.07396
556.73790	0.07345
555.45213	0.07295
554.16636	0.07254
552.88060	0.07234
551.59483	0.07234
550.30906	0.07240
549.02329	0.07235
547.73752	0.07214
546.45175	0.07183
545.16598	0.07151
543.88021	0.07124
542.59444	0.07100
541.30868	0.07077
540.02291	0.07054
538.73714	0.07034
537.45137	0.07020
536.16560	0.07008
534.87983	0.06993
533.59406	0.06971
532.30829	0.06946
531.02253	0.06930
529.73676	0.06930
528.45099	0.06942
527.16522	0.06949
525.87945	0.06937
524.59368	0.06907
523.30791	0.06876
522.02214	0.06854
520.73637	0.06835
519.45061	0.06808
518.16484	0.06768
516.87907	0.06728
515.59330	0.06700
514.30753	0.06682
513.02176	0.06667
511.73599	0.06647
510.45022	0.06622
509.16446	0.06594
507.87869	0.06567
506.59292	0.06542
505.30715	0.06515
504.02138	0.06483
502.73561	0.06444
501.44984	0.06404
500.16407	0.06368
498.87830	0.06339
497.59254	0.06314
496.30677	0.06295
495.02100	0.06281
493.73523	0.06272
492.44946	0.06270
491.16369	0.06272
489.87792	0.06271
488.59215	0.06259
487.30639	0.06232
486.02062	0.06193
484.73485	0.06146
483.44908	0.06095
482.16331	0.06047
480.87754	0.06009
479.59177	0.05989
478.30600	0.05981
477.02023	0.05972
475.73447	0.05952
474.44870	0.05923
473.16293	0.05898
471.87716	0.05888
470.59139	0.05889
469.30562	0.05888
468.01985	0.05875
466.73408	0.05847
465.44832	0.05811
464.16255	0.05775
462.87678	0.05741
461.59101	0.05711
460.30524	0.05682
459.01947	0.05653
457.73370	0.05626
456.44793	0.05599
455.16216	0.05570
453.87640	0.05533
452.59063	0.05489
451.30486	0.05446
450.01909	0.05412
448.73332	0.05388
447.44755	0.05369
446.16178	0.05348
444.87601	0.05322
443.59025	0.05295
442.30448	0.05268
441.01871	0.05243
439.73294	0.05218
438.44717	0.05192
437.16140	0.05167
435.87563	0.05143
434.58986	0.05122
433.30409	0.05101
432.01833	0.05081
430.73256	0.05061
429.44679	0.05041
428.16102	0.05020
426.87525	0.04997
425.58948	0.04972
424.30371	0.04948
423.01794	0.04928
421.73218	0.04913
420.44641	0.04900
419.16064	0.04886
417.87487	0.04867
416.58910	0.04845
415.30333	0.04820
414.01756	0.04793
412.73179	0.04767
411.44602	0.04743
410.16026	0.04725
408.87449	0.04712
407.58872	0.04698
406.30295	0.04678
405.01718	0.04652
403.73141	0.04624
402.44564	0.04597
401.15987	0.04575
399.87411	0.04559
