3997.45528	0.02250
3996.16951	0.02264
3994.88374	0.02261
3993.59798	0.02238
3992.31221	0.02207
3991.02644	0.02187
3989.74067	0.02194
3988.45490	0.02233
3987.16913	0.02285
3985.88336	0.02317
3984.59759	0.02300
3983.31183	0.02228
3982.02606	0.02126
3980.74029	0.02034
3979.45452	0.01989
3978.16875	0.01999
3976.88298	0.02045
3975.59721	0.02095
3974.31144	0.02119
3973.02567	0.02100
3971.73991	0.02046
3970.45414	0.01996
3969.16837	0.01994
3967.88260	0.02040
3966.59683	0.02097
3965.31106	0.02134
3964.02529	0.02158
3962.73952	0.02186
3961.45376	0.02210
3960.16799	0.02202
3958.88222	0.02145
3957.59645	0.02057
3956.31068	0.01985
3955.02491	0.01972
3953.73914	0.02025
3952.45337	0.02113
3951.16760	0.02177
3949.88184	0.02179
3948.59607	0.02126
3947.31030	0.02063
3946.02453	0.02038
3944.73876	0.02057
3943.45299	0.02094
3942.16722	0.02111
3940.88145	0.02088
3939.59569	0.02046
3938.30992	0.02023
3937.02415	0.02042
3935.73838	0.02081
3934.45261	0.02109
3933.16684	0.02121
3931.88107	0.02137
3930.59530	0.02162
3929.30953	0.02178
3928.02377	0.02169
3926.73800	0.02139
3925.45223	0.02111
3924.16646	0.02104
3922.88069	0.02111
3921.59492	0.02102
3920.30915	0.02064
3919.02338	0.02014
3917.73762	0.01987
3916.45185	0.02003
3915.16608	0.02048
3913.88031	0.02084
3912.59454	0.02084
3911.30877	0.02051
3910.02300	0.02009
3908.73723	0.01987
3907.45146	0.01995
3906.16570	0.02022
3904.87993	0.02057
3903.59416	0.02096
3902.30839	0.02129
3901.02262	0.02140
3899.73685	0.02126
3898.45108	0.02108
3897.16531	0.02108
3895.87955	0.02126
3894.59378	0.02133
3893.30801	0.02100
3892.02224	0.02035
3890.73647	0.01991
3889.45070	0.01998
3888.16493	0.02018
3886.87916	0.02007
3885.59339	0.01970
3884.30763	0.01940
3883.02186	0.01939
3881.73609	0.01977
3880.45032	0.02046
3879.16455	0.02112
3877.87878	0.02130
3876.59301	0.02092
3875.30724	0.02036
3874.02148	0.01998
3872.73571	0.01975
3871.44994	0.01958
3870.16417	0.01973
3868.87840	0.02037
3867.59263	0.02109
3866.30686	0.02146
3865.02109	0.02162
3863.73532	0.02168
3862.44956	0.02142
3861.16379	0.02076
3859.87802	0.02014
3858.59225	0.02003
3857.30648	0.02038
3856.02071	0.02070
3854.73494	0.02083
3853.44917	0.02106
3852.16341	0.02142
3850.87764	0.02156
3849.59187	0.02136
3848.30610	0.02111
3847.02033	0.02102
3845.73456	0.02096
3844.44879	0.02079
3843.16302	0.02061
3841.87725	0.02052
3840.59149	0.02035
3839.30572	0.01993
3838.01995	0.01939
3836.73418	0.01892
3835.44841	0.01847
3834.16264	0.01808
3832.87687	0.01803
3831.59110	0.01839
3830.30534	0.01877
3829.01957	0.01871
3827.73380	0.01829
3826.44803	0.01810
3825.16226	0.01841
3823.87649	0.01876
3822.59072	0.01861
3821.30495	0.01824
3820.01918	0.01828
3818.73342	0.01870
3817.44765	0.01897
3816.16188	0.01899
3814.87611	0.01905
3813.59034	0.01923
3812.30457	0.01951
3811.01880	0.01989
3809.73303	0.02026
3808.44726	0.02043
3807.16150	0.02060
3805.87573	0.02093
3804.58996	0.02100
3803.30419	0.02037
3802.01842	0.01939
3800.73265	0.01882
3799.44688	0.01882
3798.16111	0.01898
3796.87535	0.01914
3795.58958	0.01935
3794.30381	0.01947
3793.01804	0.01935
3791.73227	0.01911
3790.44650	0.01902
3789.16073	0.01918
3787.87496	0.01946
3786.58919	0.01971
3785.30343	0.01983
3784.01766	0.01982
3782.73189	0.01970
3781.44612	0.01951
3780.16035	0.01934
3778.87458	0.01929
3777.58881	0.01945
3776.30304	0.01988
3775.01728	0.02060
3773.73151	0.02128
3772.44574	0.02129
3771.15997	0.02038
3769.87420	0.01910
3768.58843	0.01823
3767.30266	0.01802
3766.01689	0.01820
3764.73112	0.01841
3763.44536	0.01843
3762.15959	0.01825
3760.87382	0.01804
3759.58805	0.01801
3758.30228	0.01822
3757.01651	0.01862
3755.73074	0.01907
3754.44497	0.01928
3753.15921	0.01914
3751.87344	0.01873
3750.58767	0.01827
3749.30190	0.01810
3748.01613	0.01836
3746.73036	0.01864
3745.44459	0.01859
3744.15882	0.01846
3742.87305	0.01831
3741.58729	0.01784
3740.30152	0.01714
3739.01575	0.01663
3737.72998	0.01641
3736.44421	0.01639
3735.15844	0.01650
3733.87267	0.01651
3732.58690	0.01633
3731.30114	0.01624
3730.01537	0.01642
3728.72960	0.01676
3727.44383	0.01717
3726.15806	0.01764
3724.87229	0.01803
3723.58652	0.01809
3722.30075	0.01782
3721.01498	0.01737
3719.72922	0.01689
3718.44345	0.01653
3717.15768	0.01648
3715.87191	0.01669
3714.58614	0.01684
3713.30037	0.01664
3712.01460	0.01619
3710.72883	0.01574
3709.44307	0.01543
3708.15730	0.01533
3706.87153	0.01551
3705.58576	0.01588
3704.29999	0.01612
3703.01422	0.01604
3701.72845	0.01578
3700.44268	0.01563
3699.15691	0.01558
3697.87115	0.01552
3696.58538	0.01538
3695.29961	0.01516
3694.01384	0.01493
3692.72807	0.01489
3691.44230	0.01512
3690.15653	0.01551
3688.87076	0.01605
3687.58500	0.01673
3686.29923	0.01719
3685.01346	0.01707
3683.72769	0.01660
3682.44192	0.01630
3681.15615	0.01653
3679.87038	0.01729
3678.58461	0.01812
3677.29884	0.01851
3676.01308	0.01851
3674.72731	0.01848
3673.44154	0.01835
3672.15577	0.01773
3670.87000	0.01689
3669.58423	0.01647
3668.29846	0.01664
3667.01269	0.01706
3665.72693	0.01748
3664.44116	0.01781
3663.15539	0.01801
3661.86962	0.01810
3660.58385	0.01817
3659.29808	0.01825
3658.01231	0.01820
3656.72654	0.01801
3655.44077	0.01796
3654.15501	0.01821
3652.86924	0.01868
3651.58347	0.01917
3650.29770	0.01962
3649.01193	0.02008
3647.72616	0.02057
3646.44039	0.02102
3645.15462	0.02127
3643.86886	0.02117
3642.58309	0.02078
3641.29732	0.02029
3640.01155	0.01995
3638.72578	0.01987
3637.44001	0.02000
3636.15424	0.02027
3634.86847	0.02070
3633.58270	0.02143
3632.29694	0.02229
3631.01117	0.02281
3629.72540	0.02285
3628.43963	0.02285
3627.15386	0.02317
3625.86809	0.02369
3624.58232	0.02417
3623.29655	0.02442
3622.01079	0.02434
3620.72502	0.02409
3619.43925	0.02407
3618.15348	0.02446
3616.86771	0.02499
3615.58194	0.02531
3614.29617	0.02542
3613.01040	0.02556
3611.72463	0.02581
3610.43887	0.02606
3609.15310	0.02629
3607.86733	0.02661
3606.58156	0.02703
3605.29579	0.02746
3604.01002	0.02775
3602.72425	0.02784
3601.43848	0.02777
3600.15272	0.02776
3598.86695	0.02800
3597.58118	0.02858
3596.29541	0.02935
3595.00964	0.03007
3593.72387	0.03043
3592.43810	0.03036
3591.15233	0.03001
3589.86656	0.02964
3588.58080	0.02958
3587.29503	0.02999
3586.00926	0.03073
3584.72349	0.03152
3583.43772	0.03213
3582.15195	0.03246
3580.86618	0.03241
3579.58041	0.03209
3578.29464	0.03197
3577.00888	0.03252
3575.72311	0.03373
3574.43734	0.03500
3573.15157	0.03561
3571.86580	0.03529
3570.58003	0.03437
3569.29426	0.03347
3568.00849	0.03308
3566.72273	0.03331
3565.43696	0.03393
3564.15119	0.03461
3562.86542	0.03516
3561.57965	0.03555
3560.29388	0.03587
3559.00811	0.03623
3557.72234	0.03668
3556.43657	0.03717
3555.15081	0.03760
3553.86504	0.03792
3552.57927	0.03816
3551.29350	0.03831
3550.00773	0.03830
3548.72196	0.03812
3547.43619	0.03796
3546.15042	0.03807
3544.86466	0.03843
3543.57889	0.03871
3542.29312	0.03864
3541.00735	0.03841
3539.72158	0.03839
3538.43581	0.03878
3537.15004	0.03949
3535.86427	0.04037
3534.57850	0.04132
3533.29274	0.04214
3532.00697	0.04269
3530.72120	0.04297
3529.43543	0.04314
3528.14966	0.04334
3526.86389	0.04358
3525.57812	0.04382
3524.29235	0.04405
3523.00659	0.04420
3521.72082	0.04427
3520.43505	0.04435
3519.14928	0.04455
3517.86351	0.04486
3516.57774	0.04512
3515.29197	0.04526
3514.00620	0.04539
3512.72043	0.04559
3511.43467	0.04579
3510.14890	0.04586
3508.86313	0.04584
3507.57736	0.04596
3506.29159	0.04642
3505.00582	0.04712
3503.72005	0.04772
3502.43428	0.04800
3501.14852	0.04805
3499.86275	0.04808
3498.57698	0.04823
3497.29121	0.04846
3496.00544	0.04865
3494.71967	0.04868
3493.43390	0.04852
3492.14813	0.04832
3490.86236	0.04832
3489.57660	0.04873
3488.29083	0.04953
3487.00506	0.05042
3485.71929	0.05101
3484.43352	0.05115
3483.14775	0.05101
3481.86198	0.05090
3480.57621	0.05094
3479.29045	0.05097
3478.00468	0.05083
3476.71891	0.05058
3475.43314	0.05041
3474.14737	0.05042
3472.86160	0.05055
3471.57583	0.05068
3470.29006	0.05078
3469.00429	0.05097
3467.71853	0.05135
3466.43276	0.05186
3465.14699	0.05224
3463.86122	0.05236
3462.57545	0.05234
3461.28968	0.05247
3460.00391	0.05286
3458.71814	0.05343
3457.43238	0.05401
3456.14661	0.05449
3454.86084	0.05479
3453.57507	0.05482
3452.28930	0.05449
3451.00353	0.05388
3449.71776	0.05333
3448.43199	0.05329
3447.14622	0.05399
3445.86046	0.05515
3444.57469	0.05618
3443.28892	0.05669
3442.00315	0.05676
3440.71738	0.05664
3439.43161	0.05649
3438.14584	0.05643
3436.86007	0.05659
3435.57431	0.05699
3434.28854	0.05742
3433.00277	0.05763
3431.71700	0.05759
3430.43123	0.05758
3429.14546	0.05788
3427.85969	0.05857
3426.57392	0.05943
3425.28815	0.06017
3424.00239	0.06060
3422.71662	0.06070
3421.43085	0.06059
3420.14508	0.06044
3418.85931	0.06042
3417.57354	0.06059
3416.28777	0.06088
3415.00200	0.06115
3413.71624	0.06133
3412.43047	0.06142
3411.14470	0.06147
3409.85893	0.06155
3408.57316	0.06167
3407.28739	0.06187
3406.00162	0.06213
3404.71585	0.06238
3403.43008	0.06252
3402.14432	0.06258
3400.85855	0.06282
3399.57278	0.06345
3398.28701	0.06425
3397.00124	0.06503
3395.71547	0.06556
3394.42970	0.06570
3393.14393	0.06550
3391.85817	0.06515
3390.57240	0.06484
3389.28663	0.06468
3388.00086	0.06471
3386.71509	0.06484
3385.42932	0.06497
3384.14355	0.06508
3382.85778	0.06531
3381.57201	0.06577
3380.28625	0.06640
3379.00048	0.06694
3377.71471	0.06720
3376.42894	0.06721
3375.14317	0.06726
3373.85740	0.06760
3372.57163	0.06820
3371.28586	0.06877
3370.00010	0.06900
3368.71433	0.06892
3367.42856	0.06877
3366.14279	0.06870
3364.85702	0.06874
3363.57125	0.06884
3362.28548	0.06905
3360.99971	0.06938
3359.71394	0.06978
3358.42818	0.07018
3357.14241	0.07056
3355.85664	0.07091
3354.57087	0.07124
3353.28510	0.07156
3351.99933	0.07195
3350.71356	0.07247
3349.42779	0.07306
3348.14202	0.07357
3346.85626	0.07390
3345.57049	0.07408
3344.28472	0.07422
3342.99895	0.07444
3341.71318	0.07476
3340.42741	0.07511
3339.14164	0.07543
3337.85587	0.07574
3336.57011	0.07609
3335.28434	0.07643
3333.99857	0.07670
3332.71280	0.07688
3331.42703	0.07705
3330.14126	0.07726
3328.85549	0.07745
3327.56972	0.07761
3326.28395	0.07778
3324.99819	0.07807
3323.71242	0.07848
3322.42665	0.07886
3321.14088	0.07909
3319.85511	0.07920
3318.56934	0.07939
3317.28357	0.07977
3315.99780	0.08026
3314.71204	0.08066
3313.42627	0.08085
3312.14050	0.08090
3310.85473	0.08084
3309.56896	0.08066
3308.28319	0.08032
3306.99742	0.07994
3305.71165	0.07981
3304.42588	0.08017
3303.14012	0.08092
3301.85435	0.08168
3300.56858	0.08214
3299.28281	0.08232
3297.99704	0.08245
3296.71127	0.08267
3295.42550	0.08290
3294.13973	0.08300
3292.85397	0.08290
3291.56820	0.08263
3290.28243	0.08225
3288.99666	0.08180
3287.71089	0.08138
3286.42512	0.08120
3285.13935	0.08140
3283.85358	0.08191
3282.56781	0.08244
3281.28205	0.08265
3279.99628	0.08249
3278.71051	0.08224
3277.42474	0.08218
3276.13897	0.08236
3274.85320	0.08259
3273.56743	0.08270
3272.28166	0.08268
3270.99590	0.08260
3269.71013	0.08243
3268.42436	0.08211
3267.13859	0.08166
3265.85282	0.08128
3264.56705	0.08117
3263.28128	0.08133
3261.99551	0.08158
3260.70974	0.08170
3259.42398	0.08156
3258.13821	0.08117
3256.85244	0.08058
3255.56667	0.07995
3254.28090	0.07950
3252.99513	0.07934
3251.70936	0.07944
3250.42359	0.07960
3249.13783	0.07965
3247.85206	0.07959
3246.56629	0.07951
3245.28052	0.07946
3243.99475	0.07937
3242.70898	0.07915
3241.42321	0.07882
3240.13744	0.07846
3238.85167	0.07812
3237.56591	0.07784
3236.28014	0.07760
3234.99437	0.07735
3233.70860	0.07706
3232.42283	0.07677
3231.13706	0.07650
3229.85129	0.07623
3228.56552	0.07594
3227.27976	0.07569
3225.99399	0.07558
3224.70822	0.07561
3223.42245	0.07571
3222.13668	0.07578
3220.85091	0.07576
3219.56514	0.07566
3218.27937	0.07552
3216.99360	0.07538
3215.70784	0.07530
3214.42207	0.07521
3213.13630	0.07499
3211.85053	0.07458
3210.56476	0.07411
3209.27899	0.07375
3207.99322	0.07358
3206.70745	0.07352
3205.42169	0.07348
3204.13592	0.07347
3202.85015	0.07356
3201.56438	0.07376
3200.27861	0.07388
3198.99284	0.07376
3197.70707	0.07341
3196.42130	0.07300
3195.13553	0.07269
3193.84977	0.07249
3192.56400	0.07229
3191.27823	0.07204
3189.99246	0.07176
3188.70669	0.07150
3187.42092	0.07131
3186.13515	0.07121
3184.84938	0.07111
3183.56362	0.07085
3182.27785	0.07039
3180.99208	0.06989
3179.70631	0.06963
3178.42054	0.06968
3177.13477	0.06981
3175.84900	0.06972
3174.56323	0.06938
3173.27746	0.06896
3171.99170	0.06864
3170.70593	0.06838
3169.42016	0.06803
3168.13439	0.06757
3166.84862	0.06714
3165.56285	0.06694
3164.27708	0.06691
3162.99131	0.06681
3161.70555	0.06653
3160.41978	0.06619
3159.13401	0.06599
3157.84824	0.06593
3156.56247	0.06588
3155.27670	0.06576
3153.99093	0.06563
3152.70516	0.06545
3151.41939	0.06513
3150.13363	0.06457
3148.84786	0.06391
3147.56209	0.06343
3146.27632	0.06327
3144.99055	0.06325
3143.70478	0.06311
3142.41901	0.06273
3141.13324	0.06223
3139.84748	0.06181
3138.56171	0.06156
3137.27594	0.06150
3135.99017	0.06156
3134.70440	0.06169
3133.41863	0.06186
3132.13286	0.06209
3130.84709	0.06232
3129.56132	0.06243
3128.27556	0.06233
3126.98979	0.06208
3125.70402	0.06183
3124.41825	0.06160
3123.13248	0.06133
3121.84671	0.06099
3120.56094	0.06065
3119.27517	0.06041
3117.98940	0.06025
3116.70364	0.06018
3115.41787	0.06020
3114.13210	0.06021
3112.84633	0.06005
3111.56056	0.05967
3110.27479	0.05934
3108.98902	0.05938
3107.70325	0.05985
3106.41749	0.06041
3105.13172	0.06069
3103.84595	0.06058
3102.56018	0.06026
3101.27441	0.05997
3099.98864	0.05977
3098.70287	0.05958
3097.41710	0.05943
3096.13133	0.05949
3094.84557	0.05986
3093.55980	0.06039
3092.27403	0.06084
3090.98826	0.06112
3089.70249	0.06129
3088.41672	0.06142
3087.13095	0.06141
3085.84518	0.06108
3084.55942	0.06047
3083.27365	0.05990
3081.98788	0.05975
3080.70211	0.06012
3079.41634	0.06076
3078.13057	0.06130
3076.84480	0.06151
3075.55903	0.06133
3074.27326	0.06089
3072.98750	0.06043
3071.70173	0.06016
3070.41596	0.06014
3069.13019	0.06026
3067.84442	0.06036
3066.55865	0.06034
3065.27288	0.06019
3063.98711	0.05999
3062.70135	0.05984
3061.41558	0.05982
3060.12981	0.05998
3058.84404	0.06022
3057.55827	0.06035
3056.27250	0.06021
3054.98673	0.05978
3053.70096	0.05924
3052.41519	0.05883
3051.12943	0.05860
3049.84366	0.05840
3048.55789	0.05806
3047.27212	0.05760
3045.98635	0.05720
3044.70058	0.05699
3043.41481	0.05686
3042.12904	0.05658
3040.84328	0.05611
3039.55751	0.05555
3038.27174	0.05502
3036.98597	0.05456
3035.70020	0.05418
3034.41443	0.05390
3033.12866	0.05382
3031.84289	0.05392
3030.55712	0.05407
3029.27136	0.05403
3027.98559	0.05366
3026.69982	0.05303
3025.41405	0.05242
3024.12828	0.05207
3022.84251	0.05206
3021.55674	0.05223
3020.27097	0.05239
3018.98521	0.05242
3017.69944	0.05228
3016.41367	0.05195
3015.12790	0.05148
3013.84213	0.05103
3012.55636	0.05075
3011.27059	0.05067
3009.98482	0.05067
3008.69905	0.05061
3007.41329	0.05049
3006.12752	0.05037
3004.84175	0.05030
3003.55598	0.05026
3002.27021	0.05018
3000.98444	0.04999
2999.69867	0.04971
2998.41290	0.04949
2997.12714	0.04933
2995.84137	0.04918
2994.55560	0.04901
2993.26983	0.04878
2991.98406	0.04850
2990.69829	0.04829
2989.41252	0.04822
2988.12675	0.04827
2986.84098	0.04831
2985.55522	0.04835
2984.26945	0.04853
2982.98368	0.04893
2981.69791	0.04943
2980.41214	0.04989
2979.12637	0.05025
2977.84060	0.05055
2976.55483	0.05078
2975.26907	0.05088
2973.98330	0.05087
2972.69753	0.05086
2971.41176	0.05095
2970.12599	0.05109
2968.84022	0.05125
2967.55445	0.05148
2966.26868	0.05179
2964.98291	0.05213
2963.69715	0.05244
2962.41138	0.05272
2961.12561	0.05298
2959.83984	0.05311
2958.55407	0.05308
2957.26830	0.05301
2955.98253	0.05301
2954.69676	0.05307
2953.41100	0.05311
2952.12523	0.05315
2950.83946	0.05323
2949.55369	0.05326
2948.26792	0.05317
2946.98215	0.05296
2945.69638	0.05277
2944.41061	0.05272
2943.12484	0.05279
2941.83908	0.05293
2940.55331	0.05311
2939.26754	0.05333
2937.98177	0.05368
2936.69600	0.05415
2935.41023	0.05472
2934.12446	0.05528
2932.83869	0.05577
2931.55293	0.05610
2930.26716	0.05627
2928.98139	0.05624
2927.69562	0.05599
2926.40985	0.05561
2925.12408	0.05525
2923.83831	0.05503
2922.55254	0.05494
2921.26677	0.05485
2919.98101	0.05472
2918.69524	0.05458
2917.40947	0.05445
2916.12370	0.05431
2914.83793	0.05410
2913.55216	0.05378
2912.26639	0.05336
2910.98062	0.05294
2909.69486	0.05260
2908.40909	0.05233
2907.12332	0.05210
2905.83755	0.05184
2904.55178	0.05155
2903.26601	0.05126
2901.98024	0.05101
2900.69447	0.05080
2899.40870	0.05061
2898.12294	0.05043
2896.83717	0.05028
2895.55140	0.05018
2894.26563	0.05013
2892.97986	0.05007
2891.69409	0.04994
2890.40832	0.04971
2889.12255	0.04944
2887.83678	0.04925
2886.55102	0.04918
2885.26525	0.04912
2883.97948	0.04892
2882.69371	0.04862
2881.40794	0.04841
2880.12217	0.04841
2878.83640	0.04860
2877.55063	0.04884
2876.26487	0.04898
2874.97910	0.04894
2873.69333	0.04875
2872.40756	0.04852
2871.12179	0.04835
2869.83602	0.04826
2868.55025	0.04825
2867.26448	0.04831
2865.97871	0.04840
2864.69295	0.04844
2863.40718	0.04832
2862.12141	0.04800
2860.83564	0.04762
2859.54987	0.04731
2858.26410	0.04717
2856.97833	0.04717
2855.69256	0.04727
2854.40680	0.04745
2853.12103	0.04764
2851.83526	0.04772
2850.54949	0.04758
2849.26372	0.04715
2847.97795	0.04648
2846.69218	0.04572
2845.40641	0.04513
2844.12064	0.04486
2842.83488	0.04487
2841.54911	0.04493
2840.26334	0.04487
2838.97757	0.04468
2837.69180	0.04445
2836.40603	0.04423
2835.12026	0.04397
2833.83449	0.04373
2832.54873	0.04355
2831.26296	0.04342
2829.97719	0.04328
2828.69142	0.04309
2827.40565	0.04295
2826.11988	0.04295
2824.83411	0.04304
2823.54834	0.04312
2822.26257	0.04308
2820.97681	0.04289
2819.69104	0.04257
2818.40527	0.04224
2817.11950	0.04207
2815.83373	0.04214
2814.54796	0.04235
2813.26219	0.04253
2811.97642	0.04259
2810.69066	0.04255
2809.40489	0.04246
2808.11912	0.04242
2806.83335	0.04251
2805.54758	0.04271
2804.26181	0.04286
2802.97604	0.04281
2801.69027	0.04255
2800.40450	0.04220
2799.11874	0.04192
2797.83297	0.04177
2796.54720	0.04171
2795.26143	0.04167
2793.97566	0.04161
2792.68989	0.04154
2791.40412	0.04147
2790.11835	0.04139
2788.83259	0.04127
2787.54682	0.04119
2786.26105	0.04121
2784.97528	0.04132
2783.68951	0.04143
2782.40374	0.04147
2781.11797	0.04143
2779.83220	0.04134
2778.54643	0.04117
2777.26067	0.04092
2775.97490	0.04061
2774.68913	0.04030
2773.40336	0.04006
2772.11759	0.03985
2770.83182	0.03968
2769.54605	0.03961
2768.26028	0.03969
2766.97452	0.03988
2765.68875	0.04004
2764.40298	0.04006
2763.11721	0.03992
2761.83144	0.03971
2760.54567	0.03955
2759.25990	0.03947
2757.97413	0.03945
2756.68836	0.03942
2755.40260	0.03929
2754.11683	0.03902
2752.83106	0.03869
2751.54529	0.03844
2750.25952	0.03834
2748.97375	0.03841
2747.68798	0.03858
2746.40221	0.03873
2745.11645	0.03874
2743.83068	0.03864
2742.54491	0.03855
2741.25914	0.03852
2739.97337	0.03847
2738.68760	0.03831
2737.40183	0.03807
2736.11606	0.03788
2734.83029	0.03783
2733.54453	0.03789
2732.25876	0.03796
2730.97299	0.03792
2729.68722	0.03777
2728.40145	0.03756
2727.11568	0.03742
2725.82991	0.03742
2724.54414	0.03752
2723.25838	0.03758
2721.97261	0.03751
2720.68684	0.03737
2719.40107	0.03720
2718.11530	0.03700
2716.82953	0.03670
2715.54376	0.03640
2714.25799	0.03622
2712.97222	0.03624
2711.68646	0.03639
2710.40069	0.03652
2709.11492	0.03654
2707.82915	0.03645
2706.54338	0.03632
2705.25761	0.03620
2703.97184	0.03605
2702.68607	0.03589
2701.40031	0.03577
2700.11454	0.03581
2698.82877	0.03598
2697.54300	0.03618
2696.25723	0.03626
2694.97146	0.03619
2693.68569	0.03596
2692.39992	0.03568
2691.11415	0.03542
2689.82839	0.03527
2688.54262	0.03526
2687.25685	0.03531
2685.97108	0.03530
2684.68531	0.03517
2683.39954	0.03497
2682.11377	0.03483
2680.82800	0.03483
2679.54224	0.03489
2678.25647	0.03490
2676.97070	0.03482
2675.68493	0.03467
2674.39916	0.03453
2673.11339	0.03445
2671.82762	0.03445
2670.54185	0.03450
2669.25608	0.03457
2667.97032	0.03467
2666.68455	0.03482
2665.39878	0.03503
2664.11301	0.03521
2662.82724	0.03527
2661.54147	0.03514
2660.25570	0.03484
2658.96993	0.03453
2657.68417	0.03433
2656.39840	0.03428
2655.11263	0.03426
2653.82686	0.03428
2652.54109	0.03440
2651.25532	0.03461
2649.96955	0.03475
2648.68378	0.03467
2647.39801	0.03437
2646.11225	0.03402
2644.82648	0.03372
2643.54071	0.03346
2642.25494	0.03321
2640.96917	0.03301
2639.68340	0.03288
2638.39763	0.03278
2637.11186	0.03266
2635.82609	0.03248
2634.54033	0.03232
2633.25456	0.03223
2631.96879	0.03223
2630.68302	0.03227
2629.39725	0.03233
2628.11148	0.03239
2626.82571	0.03241
2625.53994	0.03227
2624.25418	0.03188
2622.96841	0.03129
2621.68264	0.03077
2620.39687	0.03058
2619.11110	0.03070
2617.82533	0.03086
2616.53956	0.03077
2615.25379	0.03044
2613.96802	0.03014
2612.68226	0.03012
2611.39649	0.03033
2610.11072	0.03049
2608.82495	0.03044
2607.53918	0.03027
2606.25341	0.03015
2604.96764	0.03006
2603.68187	0.02990
2602.39611	0.02961
2601.11034	0.02926
2599.82457	0.02897
2598.53880	0.02884
2597.25303	0.02884
2595.96726	0.02886
2594.68149	0.02883
2593.39572	0.02878
2592.10995	0.02873
2590.82419	0.02863
2589.53842	0.02844
2588.25265	0.02826
2586.96688	0.02820
2585.68111	0.02824
2584.39534	0.02827
2583.10957	0.02820
2581.82380	0.02811
2580.53804	0.02809
2579.25227	0.02815
2577.96650	0.02828
2576.68073	0.02843
2575.39496	0.02853
2574.10919	0.02846
2572.82342	0.02821
2571.53765	0.02784
2570.25188	0.02745
2568.96612	0.02712
2567.68035	0.02685
2566.39458	0.02660
2565.10881	0.02632
2563.82304	0.02599
2562.53727	0.02572
2561.25150	0.02564
2559.96573	0.02577
2558.67997	0.02601
2557.39420	0.02625
2556.10843	0.02644
2554.82266	0.02655
2553.53689	0.02653
2552.25112	0.02645
2550.96535	0.02644
2549.67958	0.02654
2548.39381	0.02660
2547.10805	0.02656
2545.82228	0.02660
2544.53651	0.02683
2543.25074	0.02708
2541.96497	0.02705
2540.67920	0.02672
2539.39343	0.02633
2538.10766	0.02604
2536.82190	0.02582
2535.53613	0.02559
2534.25036	0.02537
2532.96459	0.02523
2531.67882	0.02524
2530.39305	0.02542
2529.10728	0.02575
2527.82151	0.02604
2526.53574	0.02597
2525.24998	0.02540
2523.96421	0.02457
2522.67844	0.02396
2521.39267	0.02389
2520.10690	0.02428
2518.82113	0.02480
2517.53536	0.02516
2516.24959	0.02527
2514.96383	0.02519
2513.67806	0.02506
2512.39229	0.02496
2511.10652	0.02494
2509.82075	0.02493
2508.53498	0.02483
2507.24921	0.02458
2505.96344	0.02426
2504.67767	0.02408
2503.39191	0.02411
2502.10614	0.02416
2500.82037	0.02406
2499.53460	0.02392
2498.24883	0.02401
2496.96306	0.02441
2495.67729	0.02483
2494.39152	0.02499
2493.10576	0.02487
2491.81999	0.02467
2490.53422	0.02458
2489.24845	0.02452
2487.96268	0.02435
2486.67691	0.02404
2485.39114	0.02379
2484.10537	0.02375
2482.81960	0.02383
2481.53384	0.02382
2480.24807	0.02372
2478.96230	0.02378
2477.67653	0.02415
2476.39076	0.02460
2475.10499	0.02474
2473.81922	0.02435
2472.53345	0.02362
2471.24769	0.02292
2469.96192	0.02254
2468.67615	0.02254
2467.39038	0.02286
2466.10461	0.02331
2464.81884	0.02369
2463.53307	0.02384
2462.24730	0.02375
2460.96153	0.02358
2459.67577	0.02354
2458.39000	0.02369
2457.10423	0.02390
2455.81846	0.02401
2454.53269	0.02403
2453.24692	0.02408
2451.96115	0.02424
2450.67538	0.02442
2449.38962	0.02449
2448.10385	0.02438
2446.81808	0.02407
2445.53231	0.02363
2444.24654	0.02316
2442.96077	0.02280
2441.67500	0.02267
2440.38923	0.02278
2439.10346	0.02301
2437.81770	0.02322
2436.53193	0.02339
2435.24616	0.02363
2433.96039	0.02400
2432.67462	0.02440
2431.38885	0.02457
2430.10308	0.02435
2428.81731	0.02391
2427.53155	0.02349
2426.24578	0.02324
2424.96001	0.02309
2423.67424	0.02297
2422.38847	0.02287
2421.10270	0.02276
2419.81693	0.02262
2418.53116	0.02251
2417.24539	0.02253
2415.95963	0.02268
2414.67386	0.02283
2413.38809	0.02291
2412.10232	0.02295
2410.81655	0.02300
2409.53078	0.02305
2408.24501	0.02309
2406.95924	0.02314
2405.67347	0.02327
2404.38771	0.02343
2403.10194	0.02349
2401.81617	0.02337
2400.53040	0.02316
2399.24463	0.02300
2397.95886	0.02307
2396.67309	0.02326
2395.38732	0.02338
2394.10156	0.02338
2392.81579	0.02327
2391.53002	0.02314
2390.24425	0.02311
2388.95848	0.02323
2387.67271	0.02349
2386.38694	0.02378
2385.10117	0.02398
2383.81540	0.02403
2382.52964	0.02394
2381.24387	0.02377
2379.95810	0.02357
2378.67233	0.02365
2377.38656	0.02399
2376.10079	0.02438
2374.81502	0.02475
2373.52925	0.02533
2372.24349	0.02603
2370.95772	0.02654
2369.67195	0.02687
2368.38618	0.02714
2367.10041	0.02748
2365.81464	0.02777
2364.52887	0.02802
2363.24310	0.02822
2361.95733	0.02838
2360.67157	0.02856
2359.38580	0.02861
2358.10003	0.02846
2356.81426	0.02806
2355.52849	0.02737
2354.24272	0.02646
2352.95695	0.02559
2351.67118	0.02520
2350.38542	0.02510
2349.09965	0.02500
2347.81388	0.02516
2346.52811	0.02582
2345.24234	0.02654
2343.95657	0.02689
2342.67080	0.02665
2341.38503	0.02701
2340.09926	0.02774
2338.81350	0.02756
2337.52773	0.02674
2336.24196	0.02674
2334.95619	0.02702
2333.67042	0.02670
2332.38465	0.02598
2331.09888	0.02645
2329.81311	0.02657
2328.52735	0.02629
2327.24158	0.02665
2325.95581	0.02713
2324.67004	0.02727
2323.38427	0.02690
2322.09850	0.02666
2320.81273	0.02622
2319.52696	0.02573
2318.24119	0.02527
2316.95543	0.02490
2315.66966	0.02470
2314.38389	0.02450
2313.09812	0.02432
2311.81235	0.02419
2310.52658	0.02395
2309.24081	0.02363
2307.95504	0.02335
2306.66928	0.02308
2305.38351	0.02293
2304.09774	0.02289
2302.81197	0.02287
2301.52620	0.02278
2300.24043	0.02253
2298.95466	0.02222
2297.66889	0.02195
2296.38312	0.02181
2295.09736	0.02183
2293.81159	0.02191
2292.52582	0.02195
2291.24005	0.02194
2289.95428	0.02198
2288.66851	0.02212
2287.38274	0.02227
2286.09697	0.02228
2284.81121	0.02206
2283.52544	0.02168
2282.23967	0.02125
2280.95390	0.02091
2279.66813	0.02080
2278.38236	0.02095
2277.09659	0.02120
2275.81082	0.02134
2274.52505	0.02129
2273.23929	0.02117
2271.95352	0.02108
2270.66775	0.02093
2269.38198	0.02057
2268.09621	0.02000
2266.81044	0.01940
2265.52467	0.01897
2264.23890	0.01877
2262.95314	0.01872
2261.66737	0.01867
2260.38160	0.01851
2259.09583	0.01829
2257.81006	0.01810
2256.52429	0.01792
2255.23852	0.01763
2253.95275	0.01715
2252.66698	0.01656
2251.38122	0.01610
2250.09545	0.01615
2248.80968	0.01680
2247.52391	0.01735
2246.23814	0.01760
2244.95237	0.01742
2243.66660	0.01705
2242.38083	0.01680
2241.09507	0.01677
2239.80930	0.01684
2238.52353	0.01692
2237.23776	0.01706
2235.95199	0.01722
2234.66622	0.01726
2233.38045	0.01708
2232.09468	0.01686
2230.80891	0.01692
2229.52315	0.01729
2228.23738	0.01763
2226.95161	0.01761
2225.66584	0.01725
2224.38007	0.01681
2223.09430	0.01652
2221.80853	0.01633
2220.52276	0.01599
2219.23700	0.01537
2217.95123	0.01477
2216.66546	0.01484
2215.37969	0.01576
2214.09392	0.01683
2212.80815	0.01704
2211.52238	0.01624
2210.23661	0.01535
2208.95084	0.01534
2207.66508	0.01615
2206.37931	0.01695
2205.09354	0.01706
2203.80777	0.01654
2202.52200	0.01588
2201.23623	0.01533
2199.95046	0.01482
2198.66469	0.01433
2197.37893	0.01409
2196.09316	0.01420
2194.80739	0.01435
2193.52162	0.01411
2192.23585	0.01351
2190.95008	0.01303
2189.66431	0.01320
2188.37854	0.01411
2187.09277	0.01526
2185.80701	0.01589
2184.52124	0.01553
2183.23547	0.01447
2181.94970	0.01348
2180.66393	0.01303
2179.37816	0.01305
2178.09239	0.01317
2176.80662	0.01317
2175.52085	0.01316
2174.23509	0.01339
2172.94932	0.01390
2171.66355	0.01431
2170.37778	0.01418
2169.09201	0.01352
2167.80624	0.01282
2166.52047	0.01249
2165.23470	0.01252
2163.94894	0.01266
2162.66317	0.01273
2161.37740	0.01268
2160.09163	0.01251
2158.80586	0.01227
2157.52009	0.01201
2156.23432	0.01149
2154.94855	0.01051
2153.66278	0.00928
2152.37702	0.00851
2151.09125	0.00872
2149.80548	0.00961
2148.51971	0.01045
2147.23394	0.01093
2145.94817	0.01139
2144.66240	0.01198
2143.37663	0.01227
2142.09087	0.01184
2140.80510	0.01099
2139.51933	0.01033
2138.23356	0.01021
2136.94779	0.01059
2135.66202	0.01139
2134.37625	0.01240
2133.09048	0.01319
2131.80471	0.01348
2130.51895	0.01342
2129.23318	0.01335
2127.94741	0.01344
2126.66164	0.01366
2125.37587	0.01393
2124.09010	0.01425
2122.80433	0.01468
2121.51856	0.01530
2120.23280	0.01597
2118.94703	0.01639
2117.66126	0.01639
2116.37549	0.01610
2115.08972	0.01582
2113.80395	0.01564
2112.51818	0.01549
2111.23241	0.01531
2109.94664	0.01514
2108.66088	0.01507
2107.37511	0.01507
2106.08934	0.01506
2104.80357	0.01485
2103.51780	0.01424
2102.23203	0.01323
2100.94626	0.01238
2099.66049	0.01562
2098.37473	0.01767
2097.08896	0.01814
2095.80319	0.01789
2094.51742	0.01711
2093.23165	0.01606
2091.94588	0.01506
2090.66011	0.01438
2089.37434	0.01413
2088.08857	0.01420
2086.80281	0.01433
2085.51704	0.01435
2084.23127	0.01427
2082.94550	0.01417
2081.65973	0.01416
2080.37396	0.01440
2079.08819	0.01503
2077.80242	0.01597
2076.51666	0.01683
2075.23089	0.01730
2073.94512	0.01743
2072.65935	0.01755
2071.37358	0.01787
2070.08781	0.01827
2068.80204	0.01847
2067.51627	0.01834
2066.23050	0.01786
2064.94474	0.01711
2063.65897	0.01616
2062.37320	0.01516
2061.08743	0.01428
2059.80166	0.01368
2058.51589	0.01336
2057.23012	0.01323
2055.94435	0.01316
2054.65859	0.01325
2053.37282	0.01375
2052.08705	0.01490
2050.80128	0.01650
2049.51551	0.01795
2048.22974	0.01866
2046.94397	0.01845
2045.65820	0.01753
2044.37243	0.01642
2043.08667	0.01563
2041.80090	0.01548
2040.51513	0.01594
2039.22936	0.01677
2037.94359	0.01769
2036.65782	0.01851
2035.37205	0.01910
2034.08628	0.01933
2032.80052	0.01922
2031.51475	0.01888
2030.22898	0.01844
2028.94321	0.01791
2027.65744	0.01720
2026.37167	0.01636
2025.08590	0.01554
2023.80013	0.01478
2022.51436	0.01406
2021.22860	0.01342
2019.94283	0.01305
2018.65706	0.01315
2017.37129	0.01365
2016.08552	0.01428
2014.79975	0.01482
2013.51398	0.01538
2012.22821	0.01626
2010.94245	0.01753
2009.65668	0.01876
2008.37091	0.01926
2007.08514	0.01879
2005.79937	0.01766
2004.51360	0.01628
2003.22783	0.01482
2001.94206	0.01329
2000.65629	0.01187
1999.37053	0.01091
1998.08476	0.01061
1996.79899	0.01084
1995.51322	0.01126
1994.22745	0.01153
1992.94168	0.01152
1991.65591	0.01122
1990.37014	0.01087
1989.08438	0.01086
1987.79861	0.01148
1986.51284	0.01253
1985.22707	0.01338
1983.94130	0.01371
1982.65553	0.01400
1981.36976	0.01510
1980.08399	0.01720
1978.79822	0.01955
1977.51246	0.02113
1976.22669	0.02148
1974.94092	0.02089
1973.65515	0.01986
1972.36938	0.01875
1971.08361	0.01762
1969.79784	0.01650
1968.51207	0.01561
1967.22631	0.01527
1965.94054	0.01557
1964.65477	0.01610
1963.36900	0.01626
1962.08323	0.01571
1960.79746	0.01459
1959.51169	0.01336
1958.22592	0.01243
1956.94015	0.01203
1955.65439	0.01212
1954.36862	0.01258
1953.08285	0.01329
1951.79708	0.01404
1950.51131	0.01459
1949.22554	0.01473
1947.93977	0.01453
1946.65400	0.01429
1945.36823	0.01430
1944.08247	0.01466
1942.79670	0.01530
1941.51093	0.01602
1940.22516	0.01650
1938.93939	0.01656
1937.65362	0.01622
1936.36785	0.01574
1935.08208	0.01541
1933.79632	0.01531
1932.51055	0.01541
1931.22478	0.01560
1929.93901	0.01579
1928.65324	0.01581
1927.36747	0.01556
1926.08170	0.01510
1924.79593	0.01465
1923.51016	0.01445
1922.22440	0.01463
1920.93863	0.01515
1919.65286	0.01579
1918.36709	0.01625
1917.08132	0.01629
1915.79555	0.01591
1914.50978	0.01538
1913.22401	0.01509
1911.93825	0.01522
1910.65248	0.01567
1909.36671	0.01616
1908.08094	0.01644
1906.79517	0.01640
1905.50940	0.01613
1904.22363	0.01581
1902.93786	0.01564
1901.65209	0.01568
1900.36633	0.01584
1899.08056	0.01594
1897.79479	0.01588
1896.50902	0.01568
1895.22325	0.01545
1893.93748	0.01531
1892.65171	0.01532
1891.36594	0.01544
1890.08018	0.01559
1888.79441	0.01566
1887.50864	0.01556
1886.22287	0.01526
1884.93710	0.01489
1883.65133	0.01460
1882.36556	0.01454
1881.07979	0.01472
1879.79402	0.01503
1878.50826	0.01535
1877.22249	0.01557
1875.93672	0.01564
1874.65095	0.01555
1873.36518	0.01536
1872.07941	0.01514
1870.79364	0.01501
1869.50787	0.01504
1868.22211	0.01519
1866.93634	0.01531
1865.65057	0.01530
1864.36480	0.01517
1863.07903	0.01497
1861.79326	0.01476
1860.50749	0.01460
1859.22172	0.01461
1857.93595	0.01484
1856.65019	0.01521
1855.36442	0.01553
1854.07865	0.01567
1852.79288	0.01565
1851.50711	0.01556
1850.22134	0.01549
1848.93557	0.01548
1847.64980	0.01545
1846.36404	0.01527
1845.07827	0.01492
1843.79250	0.01456
1842.50673	0.01433
1841.22096	0.01423
1839.93519	0.01416
1838.64942	0.01409
1837.36365	0.01406
1836.07788	0.01409
1834.79212	0.01418
1833.50635	0.01428
1832.22058	0.01438
1830.93481	0.01451
1829.64904	0.01475
1828.36327	0.01510
1827.07750	0.01543
1825.79173	0.01572
1824.50597	0.01608
1823.22020	0.01657
1821.93443	0.01709
1820.64866	0.01744
1819.36289	0.01742
1818.07712	0.01693
1816.79135	0.01607
1815.50558	0.01513
1814.21981	0.01436
1812.93405	0.01388
1811.64828	0.01364
1810.36251	0.01355
1809.07674	0.01354
1807.79097	0.01356
1806.50520	0.01359
1805.21943	0.01361
1803.93366	0.01363
1802.64790	0.01371
1801.36213	0.01386
1800.07636	0.01406
1798.79059	0.01423
1797.50482	0.01435
1796.21905	0.01443
1794.93328	0.01450
1793.64751	0.01454
1792.36174	0.01462
1791.07598	0.01478
1789.79021	0.01496
1788.50444	0.01505
1787.21867	0.01501
1785.93290	0.01486
1784.64713	0.01472
1783.36136	0.01468
1782.07559	0.01472
1780.78983	0.01481
1779.50406	0.01488
1778.21829	0.01485
1776.93252	0.01471
1775.64675	0.01451
1774.36098	0.01427
1773.07521	0.01404
1771.78944	0.01389
1770.50367	0.01376
1769.21791	0.01359
1767.93214	0.01343
1766.64637	0.01343
1765.36060	0.01354
1764.07483	0.01364
1762.78906	0.01367
1761.50329	0.01370
1760.21752	0.01374
1758.93176	0.01376
1757.64599	0.01376
1756.36022	0.01379
1755.07445	0.01388
1753.78868	0.01396
1752.50291	0.01403
1751.21714	0.01414
1749.93137	0.01430
1748.64560	0.01440
1747.35984	0.01437
1746.07407	0.01430
1744.78830	0.01428
1743.50253	0.01434
1742.21676	0.01447
1740.93099	0.01460
1739.64522	0.01482
1738.35945	0.01513
1737.07369	0.01539
1735.78792	0.01545
1734.50215	0.01544
1733.21638	0.01561
1731.93061	0.01594
1730.64484	0.01621
1729.35907	0.01634
1728.07330	0.01641
1726.78753	0.01643
1725.50177	0.01640
1724.21600	0.01637
1722.93023	0.01646
1721.64446	0.01671
1720.35869	0.01705
1719.07292	0.01738
1717.78715	0.01772
1716.50138	0.01812
1715.21561	0.01851
1713.92985	0.01888
1712.64408	0.01929
1711.35831	0.01977
1710.07254	0.02032
1708.78677	0.02096
1707.50100	0.02171
1706.21523	0.02264
1704.92946	0.02379
1703.64370	0.02504
1702.35793	0.02617
1701.07216	0.02726
1699.78639	0.02857
1698.50062	0.03005
1697.21485	0.03136
1695.92908	0.03254
1694.64331	0.03383
1693.35754	0.03517
1692.07178	0.03636
1690.78601	0.03751
1689.50024	0.03885
1688.21447	0.04036
1686.92870	0.04183
1685.64293	0.04317
1684.35716	0.04457
1683.07139	0.04613
1681.78563	0.04768
1680.49986	0.04911
1679.21409	0.05058
1677.92832	0.05215
1676.64255	0.05375
1675.35678	0.05540
1674.07101	0.05713
1672.78524	0.05886
1671.49947	0.06052
1670.21371	0.06217
1668.92794	0.06388
1667.64217	0.06564
1666.35640	0.06735
1665.07063	0.06895
1663.78486	0.07049
1662.49909	0.07203
1661.21332	0.07353
1659.92756	0.07492
1658.64179	0.07627
1657.35602	0.07763
1656.07025	0.07886
1654.78448	0.07982
1653.49871	0.08069
1652.21294	0.08178
1650.92717	0.08299
1649.64140	0.08395
1648.35564	0.08455
1647.06987	0.08505
1645.78410	0.08566
1644.49833	0.08633
1643.21256	0.08689
1641.92679	0.08732
1640.64102	0.08771
1639.35525	0.08812
1638.06949	0.08847
1636.78372	0.08874
1635.49795	0.08900
1634.21218	0.08927
1632.92641	0.08942
1631.64064	0.08932
1630.35487	0.08901
1629.06910	0.08859
1627.78333	0.08807
1626.49757	0.08738
1625.21180	0.08645
1623.92603	0.08533
1622.64026	0.08417
1621.35449	0.08304
1620.06872	0.08180
1618.78295	0.08033
1617.49718	0.07871
1616.21142	0.07716
1614.92565	0.07569
1613.63988	0.07414
1612.35411	0.07245
1611.06834	0.07073
1609.78257	0.06910
1608.49680	0.06752
1607.21103	0.06599
1605.92526	0.06450
1604.63950	0.06308
1603.35373	0.06177
1602.06796	0.06055
1600.78219	0.05943
1599.49642	0.05840
1598.21065	0.05750
1596.92488	0.05670
1595.63911	0.05597
1594.35335	0.05525
1593.06758	0.05454
1591.78181	0.05390
1590.49604	0.05337
1589.21027	0.05298
1587.92450	0.05272
1586.63873	0.05255
1585.35296	0.05245
1584.06719	0.05240
1582.78143	0.05243
1581.49566	0.05258
1580.20989	0.05286
1578.92412	0.05315
1577.63835	0.05338
1576.35258	0.05365
1575.06681	0.05414
1573.78104	0.05476
1572.49528	0.05533
1571.20951	0.05589
1569.92374	0.05658
1568.63797	0.05744
1567.35220	0.05837
1566.06643	0.05927
1564.78066	0.06024
1563.49489	0.06135
1562.20912	0.06245
1560.92336	0.06338
1559.63759	0.06422
1558.35182	0.06517
1557.06605	0.06617
1555.78028	0.06702
1554.49451	0.06776
1553.20874	0.06855
1551.92297	0.06940
1550.63721	0.07020
1549.35144	0.07093
1548.06567	0.07160
1546.77990	0.07221
1545.49413	0.07277
1544.20836	0.07332
1542.92259	0.07379
1541.63682	0.07410
1540.35105	0.07431
1539.06529	0.07458
1537.77952	0.07491
1536.49375	0.07512
1535.20798	0.07512
1533.92221	0.07509
1532.63644	0.07519
1531.35067	0.07536
1530.06490	0.07546
1528.77914	0.07547
1527.49337	0.07542
1526.20760	0.07537
1524.92183	0.07533
1523.63606	0.07523
1522.35029	0.07506
1521.06452	0.07489
1519.77875	0.07471
1518.49298	0.07440
1517.20722	0.07396
1515.92145	0.07351
1514.63568	0.07307
1513.34991	0.07254
1512.06414	0.07192
1510.77837	0.07124
1509.49260	0.07046
1508.20683	0.06951
1506.92107	0.06849
1505.63530	0.06754
1504.34953	0.06662
1503.06376	0.06556
1501.77799	0.06435
1500.49222	0.06312
1499.20645	0.06193
1497.92068	0.06072
1496.63491	0.05949
1495.34915	0.05830
1494.06338	0.05715
1492.77761	0.05597
1491.49184	0.05478
1490.20607	0.05362
1488.92030	0.05253
1487.63453	0.05148
1486.34876	0.05046
1485.06299	0.04952
1483.77723	0.04867
1482.49146	0.04795
1481.20569	0.04737
1479.91992	0.04699
1478.63415	0.04677
1477.34838	0.04670
1476.06261	0.04675
1474.77684	0.04687
1473.49108	0.04707
1472.20531	0.04743
1470.91954	0.04792
1469.63377	0.04844
1468.34800	0.04889
1467.06223	0.04925
1465.77646	0.04961
1464.49069	0.05003
1463.20492	0.05058
1461.91916	0.05123
1460.63339	0.05194
1459.34762	0.05260
1458.06185	0.05319
1456.77608	0.05379
1455.49031	0.05443
1454.20454	0.05498
1452.91877	0.05536
1451.63301	0.05562
1450.34724	0.05581
1449.06147	0.05590
1447.77570	0.05588
1446.48993	0.05578
1445.20416	0.05561
1443.91839	0.05536
1442.63262	0.05503
1441.34685	0.05467
1440.06109	0.05426
1438.77532	0.05378
1437.48955	0.05330
1436.20378	0.05289
1434.91801	0.05254
1433.63224	0.05211
1432.34647	0.05155
1431.06070	0.05096
1429.77494	0.05045
1428.48917	0.05010
1427.20340	0.04990
1425.91763	0.04978
1424.63186	0.04969
1423.34609	0.04965
1422.06032	0.04961
1420.77455	0.04955
1419.48878	0.04950
1418.20302	0.04949
1416.91725	0.04946
1415.63148	0.04937
1414.34571	0.04927
1413.05994	0.04921
1411.77417	0.04918
1410.48840	0.04914
1409.20263	0.04911
1407.91687	0.04911
1406.63110	0.04915
1405.34533	0.04925
1404.05956	0.04940
1402.77379	0.04959
1401.48802	0.04971
1400.20225	0.04973
1398.91648	0.04964
1397.63071	0.04951
1396.34495	0.04935
1395.05918	0.04922
1393.77341	0.04916
1392.48764	0.04913
1391.20187	0.04905
1389.91610	0.04891
1388.63033	0.04875
1387.34456	0.04864
1386.05880	0.04854
1384.77303	0.04838
1383.48726	0.04813
1382.20149	0.04781
1380.91572	0.04750
1379.62995	0.04724
1378.34418	0.04703
1377.05841	0.04680
1375.77264	0.04650
1374.48688	0.04613
1373.20111	0.04574
1371.91534	0.04537
1370.62957	0.04501
1369.34380	0.04464
1368.05803	0.04426
1366.77226	0.04385
1365.48649	0.04338
1364.20073	0.04286
1362.91496	0.04234
1361.62919	0.04190
1360.34342	0.04154
1359.05765	0.04125
1357.77188	0.04098
1356.48611	0.04074
1355.20034	0.04053
1353.91457	0.04040
1352.62881	0.04035
1351.34304	0.04037
1350.05727	0.04041
1348.77150	0.04048
1347.48573	0.04056
1346.19996	0.04067
1344.91419	0.04082
1343.62842	0.04100
1342.34266	0.04122
1341.05689	0.04143
1339.77112	0.04163
1338.48535	0.04180
1337.19958	0.04194
1335.91381	0.04200
1334.62804	0.04195
1333.34227	0.04181
1332.05650	0.04160
1330.77074	0.04140
1329.48497	0.04123
1328.19920	0.04111
1326.91343	0.04100
1325.62766	0.04090
1324.34189	0.04078
1323.05612	0.04065
1321.77035	0.04053
1320.48459	0.04045
1319.19882	0.04044
1317.91305	0.04048
1316.62728	0.04053
1315.34151	0.04054
1314.05574	0.04051
1312.76997	0.04045
1311.48420	0.04035
1310.19843	0.04022
1308.91267	0.04007
1307.62690	0.03993
1306.34113	0.03980
1305.05536	0.03970
1303.76959	0.03961
1302.48382	0.03952
1301.19805	0.03941
1299.91228	0.03929
1298.62652	0.03919
1297.34075	0.03913
1296.05498	0.03909
1294.76921	0.03906
1293.48344	0.03905
1292.19767	0.03907
1290.91190	0.03917
1289.62613	0.03932
1288.34036	0.03954
1287.05460	0.03978
1285.76883	0.04003
1284.48306	0.04023
1283.19729	0.04039
1281.91152	0.04053
1280.62575	0.04067
1279.33998	0.04083
1278.05421	0.04097
1276.76845	0.04104
1275.48268	0.04104
1274.19691	0.04102
1272.91114	0.04105
1271.62537	0.04113
1270.33960	0.04126
1269.05383	0.04143
1267.76806	0.04163
1266.48229	0.04186
1265.19653	0.04212
1263.91076	0.04242
1262.62499	0.04272
1261.33922	0.04297
1260.05345	0.04317
1258.76768	0.04333
1257.48191	0.04349
1256.19614	0.04368
1254.91037	0.04391
1253.62461	0.04422
1252.33884	0.04460
1251.05307	0.04506
1249.76730	0.04553
1248.48153	0.04600
1247.19576	0.04644
1245.90999	0.04688
1244.62422	0.04732
1243.33846	0.04776
1242.05269	0.04821
1240.76692	0.04865
1239.48115	0.04906
1238.19538	0.04941
1236.90961	0.04968
1235.62384	0.04985
1234.33807	0.04990
1233.05230	0.04988
1231.76654	0.04982
1230.48077	0.04974
1229.19500	0.04961
1227.90923	0.04940
1226.62346	0.04912
1225.33769	0.04878
1224.05192	0.04837
1222.76615	0.04791
1221.48039	0.04740
1220.19462	0.04693
1218.90885	0.04651
1217.62308	0.04614
1216.33731	0.04577
1215.05154	0.04541
1213.76577	0.04509
1212.48000	0.04487
1211.19423	0.04475
1209.90847	0.04470
1208.62270	0.04470
1207.33693	0.04471
1206.05116	0.04472
1204.76539	0.04475
1203.47962	0.04479
1202.19385	0.04481
1200.90808	0.04453
1199.62232	0.04385
1198.33655	0.04363
1197.05078	0.04337
1195.76501	0.04305
1194.47924	0.04267
1193.19347	0.04227
1191.90770	0.04190
1190.62193	0.04158
1189.33616	0.04130
1188.05040	0.04103
1186.76463	0.04075
1185.47886	0.04048
1184.19309	0.04026
1182.90732	0.04011
1181.62155	0.04001
1180.33578	0.03994
1179.05001	0.03991
1177.76425	0.03988
1176.47848	0.03984
1175.19271	0.03978
1173.90694	0.03971
1172.62117	0.03966
1171.33540	0.03968
1170.04963	0.03978
1168.76386	0.03999
1167.47809	0.04024
1166.19233	0.04048
1164.90656	0.04069
1163.62079	0.04085
1162.33502	0.04094
1161.04925	0.04097
1159.76348	0.04096
1158.47771	0.04095
1157.19194	0.04092
1155.90618	0.04088
1154.62041	0.04080
1153.33464	0.04066
1152.04887	0.04047
1150.76310	0.04026
1149.47733	0.04011
1148.19156	0.04003
1146.90579	0.04000
1145.62002	0.03999
1144.33426	0.03997
1143.04849	0.03993
1141.76272	0.03985
1140.47695	0.03976
1139.19118	0.03967
1137.90541	0.03962
1136.61964	0.03964
1135.33387	0.03972
1134.04811	0.03988
1132.76234	0.04013
1131.47657	0.04050
1130.19080	0.04096
1128.90503	0.04149
1127.61926	0.04205
1126.33349	0.04262
1125.04772	0.04318
1123.76195	0.04376
1122.47619	0.04441
1121.19042	0.04514
1119.90465	0.04591
1118.61888	0.04667
1117.33311	0.04741
1116.04734	0.04820
1114.76157	0.04908
1113.47580	0.04998
1112.19004	0.05083
1110.90427	0.05162
1109.61850	0.05244
1108.33273	0.05331
1107.04696	0.05418
1105.76119	0.05500
1104.47542	0.05577
1103.18965	0.05648
1101.90388	0.05709
1100.61812	0.05759
1099.33235	0.05803
1098.04658	0.05847
1096.76081	0.05891
1095.47504	0.05929
1094.18927	0.05954
1092.90350	0.05968
1091.61773	0.05974
1090.33197	0.05976
1089.04620	0.05974
1087.76043	0.05975
1086.47466	0.05986
1085.18889	0.06012
1083.90312	0.06052
1082.61735	0.06101
1081.33158	0.06155
1080.04581	0.06212
1078.76005	0.06270
1077.47428	0.06326
1076.18851	0.06373
1074.90274	0.06407
1073.61697	0.06433
1072.33120	0.06455
1071.04543	0.06476
1069.75966	0.06495
1068.47390	0.06509
1067.18813	0.06516
1065.90236	0.06521
1064.61659	0.06530
1063.33082	0.06546
1062.04505	0.06567
1060.75928	0.06591
1059.47351	0.06617
1058.18774	0.06645
1056.90198	0.06678
1055.61621	0.06713
1054.33044	0.06754
1053.04467	0.06803
1051.75890	0.06858
1050.47313	0.06919
1049.18736	0.06985
1047.90159	0.07062
1046.61583	0.07150
1045.33006	0.07246
1044.04429	0.07347
1042.75852	0.07450
1041.47275	0.07554
1040.18698	0.07655
1038.90121	0.07742
1037.61544	0.07785
1036.32967	0.07755
1035.04391	0.07676
1033.75814	0.07634
1032.47237	0.07709
1031.18660	0.07890
1029.90083	0.08082
1028.61506	0.08195
1027.32929	0.08210
1026.04352	0.08157
1024.75775	0.08068
1023.47199	0.07959
1022.18622	0.07836
1020.90045	0.07705
1019.61468	0.07572
1018.32891	0.07439
1017.04314	0.07307
1015.75737	0.07172
1014.47160	0.07036
1013.18584	0.06904
1011.90007	0.06781
1010.61430	0.06671
1009.32853	0.06572
1008.04276	0.06482
1006.75699	0.06400
1005.47122	0.06319
1004.18545	0.06234
1002.89968	0.06142
1001.61392	0.06048
1000.32815	0.05961
999.04238	0.05886
997.75661	0.05823
996.47084	0.05771
995.18507	0.05726
993.89930	0.05681
992.61353	0.05634
991.32777	0.05581
990.04200	0.05527
988.75623	0.05471
987.47046	0.05417
986.18469	0.05367
984.89892	0.05322
983.61315	0.05282
982.32738	0.05244
981.04161	0.05208
979.75585	0.05179
978.47008	0.05160
977.18431	0.05151
975.89854	0.05142
974.61277	0.05123
973.32700	0.05095
972.04123	0.05065
970.75546	0.05046
969.46970	0.05044
968.18393	0.05058
966.89816	0.05079
965.61239	0.05094
964.32662	0.05092
963.04085	0.05071
961.75508	0.05036
960.46931	0.04994
959.18354	0.04949
957.89778	0.04902
956.61201	0.04853
955.32624	0.04802
954.04047	0.04751
952.75470	0.04701
951.46893	0.04651
950.18316	0.04600
948.89739	0.04549
947.61163	0.04501
946.32586	0.04461
945.04009	0.04429
943.75432	0.04402
942.46855	0.04370
941.18278	0.04331
939.89701	0.04290
938.61124	0.04250
937.32547	0.04212
936.03971	0.04177
934.75394	0.04147
933.46817	0.04123
932.18240	0.04099
930.89663	0.04072
929.61086	0.04040
928.32509	0.04006
927.03932	0.03974
925.75356	0.03948
924.46779	0.03929
923.18202	0.03911
921.89625	0.03889
920.61048	0.03862
919.32471	0.03835
918.03894	0.03811
916.75317	0.03786
915.46740	0.03755
914.18164	0.03721
912.89587	0.03689
911.61010	0.03662
910.32433	0.03641
909.03856	0.03622
907.75279	0.03600
906.46702	0.03579
905.18125	0.03560
903.89549	0.03543
902.60972	0.03525
901.32395	0.03506
900.03818	0.03488
898.75241	0.03471
897.46664	0.03450
896.18087	0.03426
894.89510	0.03405
893.60933	0.03391
892.32357	0.03385
891.03780	0.03381
889.75203	0.03374
888.46626	0.03360
887.18049	0.03342
885.89472	0.03327
884.60895	0.03322
883.32318	0.03324
882.03742	0.03330
880.75165	0.03337
879.46588	0.03350
878.18011	0.03365
876.89434	0.03369
875.60857	0.03360
874.32280	0.03347
873.03703	0.03343
871.75126	0.03352
870.46550	0.03365
869.17973	0.03372
867.89396	0.03367
866.60819	0.03348
865.32242	0.03322
864.03665	0.03298
862.75088	0.03282
861.46511	0.03271
860.17935	0.03258
858.89358	0.03241
857.60781	0.03226
856.32204	0.03216
855.03627	0.03208
853.75050	0.03197
852.46473	0.03187
851.17896	0.03180
849.89319	0.03174
848.60743	0.03164
847.32166	0.03146
846.03589	0.03120
844.75012	0.03088
843.46435	0.03058
842.17858	0.03033
840.89281	0.03013
839.60704	0.02996
838.32128	0.02981
837.03551	0.02972
835.74974	0.02970
834.46397	0.02969
833.17820	0.02962
831.89243	0.02946
830.60666	0.02927
829.32089	0.02911
828.03512	0.02902
826.74936	0.02901
825.46359	0.02907
824.17782	0.02915
822.89205	0.02921
821.60628	0.02924
820.32051	0.02929
819.03474	0.02938
817.74897	0.02946
816.46321	0.02949
815.17744	0.02943
813.89167	0.02934
812.60590	0.02925
811.32013	0.02919
810.03436	0.02914
808.74859	0.02909
807.46282	0.02905
806.17705	0.02901
804.89129	0.02897
803.60552	0.02897
802.31975	0.02904
801.03398	0.02915
799.74821	0.02925
798.46244	0.02927
797.17667	0.02923
795.89090	0.02919
794.60513	0.02922
793.31937	0.02931
792.03360	0.02944
790.74783	0.02956
789.46206	0.02963
788.17629	0.02966
786.89052	0.02967
785.60475	0.02967
784.31898	0.02966
783.03322	0.02957
781.74745	0.02943
780.46168	0.02931
779.17591	0.02931
777.89014	0.02946
776.60437	0.02968
775.31860	0.02983
774.03283	0.02983
772.74706	0.02969
771.46130	0.02951
770.17553	0.02942
768.88976	0.02946
767.60399	0.02960
766.31822	0.02976
765.03245	0.02989
763.74668	0.03000
762.46091	0.03012
761.17515	0.03025
759.88938	0.03038
758.60361	0.03049
757.31784	0.03057
756.03207	0.03059
754.74630	0.03058
753.46053	0.03059
752.17476	0.03066
750.88899	0.03079
749.60323	0.03092
748.31746	0.03103
747.03169	0.03110
745.74592	0.03114
744.46015	0.03113
743.17438	0.03107
741.88861	0.03099
740.60284	0.03093
739.31708	0.03098
738.03131	0.03114
736.74554	0.03137
735.45977	0.03157
734.17400	0.03167
732.88823	0.03166
731.60246	0.03159
730.31669	0.03152
729.03092	0.03152
727.74516	0.03160
726.45939	0.03174
725.17362	0.03188
723.88785	0.03190
722.60208	0.03206
721.31631	0.03231
720.03054	0.03257
718.74477	0.03278
717.45901	0.03288
716.17324	0.03286
714.88747	0.03278
713.60170	0.03268
712.31593	0.03260
711.03016	0.03256
709.74439	0.03259
708.45862	0.03270
707.17285	0.03290
705.88709	0.03314
704.60132	0.03336
703.31555	0.03352
702.02978	0.03360
700.74401	0.03362
699.45824	0.03360
698.17247	0.03359
696.88670	0.03361
695.60094	0.03369
694.31517	0.03378
693.02940	0.03382
691.74363	0.03377
690.45786	0.03370
689.17209	0.03365
687.88632	0.03368
686.60055	0.03377
685.31478	0.03390
684.02902	0.03402
682.74325	0.03411
681.45748	0.03415
680.17171	0.03416
678.88594	0.03418
677.60017	0.03422
676.31440	0.03428
675.02863	0.03432
673.74287	0.03436
672.45710	0.03442
671.17133	0.03454
669.88556	0.03468
668.59979	0.03475
667.31402	0.03469
666.02825	0.03456
664.74248	0.03444
663.45671	0.03439
662.17095	0.03444
660.88518	0.03454
659.59941	0.03467
658.31364	0.03478
657.02787	0.03483
655.74210	0.03482
654.45633	0.03476
653.17056	0.03469
651.88480	0.03463
650.59903	0.03459
649.31326	0.03459
648.02749	0.03464
646.74172	0.03473
645.45595	0.03480
644.17018	0.03482
642.88441	0.03479
641.59864	0.03474
640.31288	0.03468
639.02711	0.03461
637.74134	0.03452
636.45557	0.03441
635.16980	0.03432
633.88403	0.03422
632.59826	0.03402
631.31249	0.03419
630.02673	0.03675
628.74096	0.04080
627.45519	0.03839
626.16942	0.04318
624.88365	0.05268
623.59788	0.06129
622.31211	0.06667
621.02634	0.06794
619.74057	0.06544
618.45481	0.06062
617.16904	0.05515
615.88327	0.05019
614.59750	0.04668
613.31173	0.04559
612.02596	0.04729
610.74019	0.05093
609.45442	0.05477
608.16866	0.05755
606.88289	0.05928
605.59712	0.06053
604.31135	0.06142
603.02558	0.06147
601.73981	0.06034
600.45404	0.05830
599.16827	0.05603
597.88250	0.05403
596.59674	0.05235
595.31097	0.05088
594.02520	0.04964
592.73943	0.04873
591.45366	0.04819
590.16789	0.04792
588.88212	0.04776
587.59635	0.04769
586.31059	0.04774
585.02482	0.04794
583.73905	0.04830
582.45328	0.04883
581.16751	0.04952
579.88174	0.05034
578.59597	0.05116
577.31020	0.05187
576.02443	0.05243
574.73867	0.05293
573.45290	0.05350
572.16713	0.05429
570.88136	0.05535
569.59559	0.05660
568.30982	0.05778
567.02405	0.05868
565.73828	0.05919
564.45251	0.05935
563.16675	0.05917
561.88098	0.05870
560.59521	0.05803
559.30944	0.05724
558.02367	0.05640
556.73790	0.05554
555.45213	0.05473
554.16636	0.05405
552.88060	0.05349
551.59483	0.05300
550.30906	0.05255
549.02329	0.05211
547.73752	0.05171
546.45175	0.05135
545.16598	0.05101
543.88021	0.05065
542.59444	0.05027
541.30868	0.04987
540.02291	0.04949
538.73714	0.04914
537.45137	0.04880
536.16560	0.04848
534.87983	0.04821
533.59406	0.04797
532.30829	0.04773
531.02253	0.04750
529.73676	0.04727
528.45099	0.04705
527.16522	0.04681
525.87945	0.04651
524.59368	0.04617
523.30791	0.04586
522.02214	0.04562
520.73637	0.04543
519.45061	0.04526
518.16484	0.04507
516.87907	0.04489
515.59330	0.04474
514.30753	0.04455
513.02176	0.04432
511.73599	0.04407
510.45022	0.04387
509.16446	0.04369
507.87869	0.04344
506.59292	0.04305
505.30715	0.04256
504.02138	0.04208
502.73561	0.04172
501.44984	0.04151
500.16407	0.04141
498.87830	0.04129
497.59254	0.04107
496.30677	0.04075
495.02100	0.04040
493.73523	0.04008
492.44946	0.03983
491.16369	0.03968
489.87792	0.03961
488.59215	0.03956
487.30639	0.03938
486.02062	0.03899
484.73485	0.03841
483.44908	0.03778
482.16331	0.03725
480.87754	0.03694
479.59177	0.03680
478.30600	0.03673
477.02023	0.03664
475.73447	0.03654
474.44870	0.03648
473.16293	0.03649
471.87716	0.03652
470.59139	0.03653
469.30562	0.03648
468.01985	0.03636
466.73408	0.03619
465.44832	0.03599
464.16255	0.03575
462.87678	0.03547
461.59101	0.03516
460.30524	0.03485
459.01947	0.03458
457.73370	0.03439
456.44793	0.03425
455.16216	0.03404
453.87640	0.03371
452.59063	0.03332
451.30486	0.03297
450.01909	0.03275
448.73332	0.03260
447.44755	0.03244
446.16178	0.03223
444.87601	0.03199
443.59025	0.03178
442.30448	0.03164
441.01871	0.03157
439.73294	0.03153
438.44717	0.03148
437.16140	0.03140
435.87563	0.03131
434.58986	0.03119
433.30409	0.03103
432.01833	0.03085
430.73256	0.03069
429.44679	0.03056
428.16102	0.03041
426.87525	0.03023
425.58948	0.03003
424.30371	0.02990
423.01794	0.02986
421.73218	0.02985
420.44641	0.02980
419.16064	0.02966
417.87487	0.02947
416.58910	0.02927
415.30333	0.02910
414.01756	0.02894
412.73179	0.02878
411.44602	0.02859
410.16026	0.02843
408.87449	0.02832
407.58872	0.02825
406.30295	0.02813
405.01718	0.02796
403.73141	0.02780
402.44564	0.02767
401.15987	0.02759
399.87411	0.02754
