3997.45528	0.06112
3996.16951	0.06079
3994.88374	0.06045
3993.59798	0.06025
3992.31221	0.06030
3991.02644	0.06050
3989.74067	0.06074
3988.45490	0.06108
3987.16913	0.06154
3985.88336	0.06190
3984.59759	0.06201
3983.31183	0.06191
3982.02606	0.06180
3980.74029	0.06169
3979.45452	0.06141
3978.16875	0.06081
3976.88298	0.06004
3975.59721	0.05948
3974.31144	0.05948
3973.02567	0.06004
3971.73991	0.06079
3970.45414	0.06124
3969.16837	0.06117
3967.88260	0.06070
3966.59683	0.06012
3965.31106	0.05962
3964.02529	0.05922
3962.73952	0.05888
3961.45376	0.05856
3960.16799	0.05831
3958.88222	0.05820
3957.59645	0.05824
3956.31068	0.05831
3955.02491	0.05823
3953.73914	0.05803
3952.45337	0.05793
3951.16760	0.05817
3949.88184	0.05869
3948.59607	0.05920
3947.31030	0.05947
3946.02453	0.05959
3944.73876	0.05980
3943.45299	0.06006
3942.16722	0.06006
3940.88145	0.05962
3939.59569	0.05907
3938.30992	0.05889
3937.02415	0.05913
3935.73838	0.05938
3934.45261	0.05927
3933.16684	0.05885
3931.88107	0.05843
3930.59530	0.05816
3929.30953	0.05798
3928.02377	0.05768
3926.73800	0.05724
3925.45223	0.05682
3924.16646	0.05665
3922.88069	0.05680
3921.59492	0.05716
3920.30915	0.05738
3919.02338	0.05714
3917.73762	0.05636
3916.45185	0.05548
3915.16608	0.05509
3913.88031	0.05545
3912.59454	0.05624
3911.30877	0.05694
3910.02300	0.05719
3908.73723	0.05695
3907.45146	0.05637
3906.16570	0.05577
3904.87993	0.05549
3903.59416	0.05562
3902.30839	0.05591
3901.02262	0.05615
3899.73685	0.05633
3898.45108	0.05661
3897.16531	0.05698
3895.87955	0.05726
3894.59378	0.05718
3893.30801	0.05664
3892.02224	0.05582
3890.73647	0.05515
3889.45070	0.05498
3888.16493	0.05536
3886.87916	0.05598
3885.59339	0.05647
3884.30763	0.05663
3883.02186	0.05654
3881.73609	0.05649
3880.45032	0.05667
3879.16455	0.05705
3877.87878	0.05737
3876.59301	0.05742
3875.30724	0.05718
3874.02148	0.05679
3872.73571	0.05642
3871.44994	0.05630
3870.16417	0.05669
3868.87840	0.05754
3867.59263	0.05837
3866.30686	0.05864
3865.02109	0.05822
3863.73532	0.05757
3862.44956	0.05715
3861.16379	0.05704
3859.87802	0.05701
3858.59225	0.05686
3857.30648	0.05659
3856.02071	0.05634
3854.73494	0.05619
3853.44917	0.05613
3852.16341	0.05610
3850.87764	0.05609
3849.59187	0.05602
3848.30610	0.05575
3847.02033	0.05519
3845.73456	0.05448
3844.44879	0.05389
3843.16302	0.05361
3841.87725	0.05364
3840.59149	0.05392
3839.30572	0.05435
3838.01995	0.05470
3836.73418	0.05472
3835.44841	0.05435
3834.16264	0.05389
3832.87687	0.05376
3831.59110	0.05401
3830.30534	0.05431
3829.01957	0.05431
3827.73380	0.05399
3826.44803	0.05360
3825.16226	0.05345
3823.87649	0.05372
3822.59072	0.05436
3821.30495	0.05497
3820.01918	0.05512
3818.73342	0.05474
3817.44765	0.05426
3816.16188	0.05410
3814.87611	0.05418
3813.59034	0.05415
3812.30457	0.05379
3811.01880	0.05329
3809.73303	0.05285
3808.44726	0.05241
3807.16150	0.05190
3805.87573	0.05154
3804.58996	0.05166
3803.30419	0.05231
3802.01842	0.05307
3800.73265	0.05342
3799.44688	0.05326
3798.16111	0.05290
3796.87535	0.05269
3795.58958	0.05273
3794.30381	0.05293
3793.01804	0.05310
3791.73227	0.05313
3790.44650	0.05297
3789.16073	0.05272
3787.87496	0.05263
3786.58919	0.05278
3785.30343	0.05299
3784.01766	0.05300
3782.73189	0.05288
3781.44612	0.05287
3780.16035	0.05299
3778.87458	0.05286
3777.58881	0.05223
3776.30304	0.05140
3775.01728	0.05102
3773.73151	0.05139
3772.44574	0.05219
3771.15997	0.05278
3769.87420	0.05286
3768.58843	0.05259
3767.30266	0.05223
3766.01689	0.05195
3764.73112	0.05180
3763.44536	0.05172
3762.15959	0.05165
3760.87382	0.05149
3759.58805	0.05121
3758.30228	0.05085
3757.01651	0.05043
3755.73074	0.04999
3754.44497	0.04970
3753.15921	0.04977
3751.87344	0.05022
3750.58767	0.05088
3749.30190	0.05153
3748.01613	0.05204
3746.73036	0.05237
3745.44459	0.05245
3744.15882	0.05225
3742.87305	0.05186
3741.58729	0.05143
3740.30152	0.05108
3739.01575	0.05088
3737.72998	0.05079
3736.44421	0.05056
3735.15844	0.04995
3733.87267	0.04897
3732.58690	0.04809
3731.30114	0.04793
3730.01537	0.04863
3728.72960	0.04973
3727.44383	0.05058
3726.15806	0.05082
3724.87229	0.05056
3723.58652	0.05004
3722.30075	0.04942
3721.01498	0.04878
3719.72922	0.04826
3718.44345	0.04794
3717.15768	0.04771
3715.87191	0.04744
3714.58614	0.04712
3713.30037	0.04685
3712.01460	0.04676
3710.72883	0.04687
3709.44307	0.04707
3708.15730	0.04726
3706.87153	0.04745
3705.58576	0.04784
3704.29999	0.04861
3703.01422	0.04965
3701.72845	0.05056
3700.44268	0.05092
3699.15691	0.05064
3697.87115	0.05008
3696.58538	0.04970
3695.29961	0.04954
3694.01384	0.04934
3692.72807	0.04895
3691.44230	0.04849
3690.15653	0.04825
3688.87076	0.04829
3687.58500	0.04832
3686.29923	0.04788
3685.01346	0.04700
3683.72769	0.04621
3682.44192	0.04600
3681.15615	0.04652
3679.87038	0.04746
3678.58461	0.04832
3677.29884	0.04870
3676.01308	0.04858
3674.72731	0.04832
3673.44154	0.04844
3672.15577	0.04906
3670.87000	0.04985
3669.58423	0.05037
3668.29846	0.05053
3667.01269	0.05049
3665.72693	0.05048
3664.44116	0.05049
3663.15539	0.05039
3661.86962	0.05012
3660.58385	0.04979
3659.29808	0.04953
3658.01231	0.04932
3656.72654	0.04904
3655.44077	0.04879
3654.15501	0.04891
3652.86924	0.04957
3651.58347	0.05052
3650.29770	0.05122
3649.01193	0.05141
3647.72616	0.05128
3646.44039	0.05117
3645.15462	0.05118
3643.86886	0.05120
3642.58309	0.05121
3641.29732	0.05137
3640.01155	0.05176
3638.72578	0.05219
3637.44001	0.05248
3636.15424	0.05268
3634.86847	0.05290
3633.58270	0.05305
3632.29694	0.05291
3631.01117	0.05245
3629.72540	0.05207
3628.43963	0.05223
3627.15386	0.05304
3625.86809	0.05411
3624.58232	0.05496
3623.29655	0.05534
3622.01079	0.05538
3620.72502	0.05533
3619.43925	0.05540
3618.15348	0.05558
3616.86771	0.05575
3615.58194	0.05586
3614.29617	0.05600
3613.01040	0.05635
3611.72463	0.05684
3610.43887	0.05728
3609.15310	0.05763
3607.86733	0.05814
3606.58156	0.05911
3605.29579	0.06041
3604.01002	0.06156
3602.72425	0.06214
3601.43848	0.06216
3600.15272	0.06185
3598.86695	0.06144
3597.58118	0.06124
3596.29541	0.06152
3595.00964	0.06226
3593.72387	0.06296
3592.43810	0.06327
3591.15233	0.06330
3589.86656	0.06339
3588.58080	0.06370
3587.29503	0.06407
3586.00926	0.06430
3584.72349	0.06443
3583.43772	0.06472
3582.15195	0.06536
3580.86618	0.06630
3579.58041	0.06739
3578.29464	0.06855
3577.00888	0.06970
3575.72311	0.07068
3574.43734	0.07127
3573.15157	0.07138
3571.86580	0.07122
3570.58003	0.07107
3569.29426	0.07098
3568.00849	0.07093
3566.72273	0.07103
3565.43696	0.07149
3564.15119	0.07231
3562.86542	0.07317
3561.57965	0.07370
3560.29388	0.07394
3559.00811	0.07419
3557.72234	0.07464
3556.43657	0.07511
3555.15081	0.07532
3553.86504	0.07525
3552.57927	0.07518
3551.29350	0.07541
3550.00773	0.07597
3548.72196	0.07660
3547.43619	0.07702
3546.15042	0.07726
3544.86466	0.07758
3543.57889	0.07816
3542.29312	0.07882
3541.00735	0.07933
3539.72158	0.07974
3538.43581	0.08032
3537.15004	0.08114
3535.86427	0.08197
3534.57850	0.08253
3533.29274	0.08278
3532.00697	0.08286
3530.72120	0.08302
3529.43543	0.08339
3528.14966	0.08397
3526.86389	0.08460
3525.57812	0.08511
3524.29235	0.08543
3523.00659	0.08564
3521.72082	0.08581
3520.43505	0.08601
3519.14928	0.08640
3517.86351	0.08715
3516.57774	0.08822
3515.29197	0.08924
3514.00620	0.08978
3512.72043	0.08978
3511.43467	0.08954
3510.14890	0.08945
3508.86313	0.08969
3507.57736	0.09023
3506.29159	0.09097
3505.00582	0.09177
3503.72005	0.09242
3502.43428	0.09280
3501.14852	0.09294
3499.86275	0.09298
3498.57698	0.09308
3497.29121	0.09332
3496.00544	0.09370
3494.71967	0.09419
3493.43390	0.09469
3492.14813	0.09512
3490.86236	0.09542
3489.57660	0.09556
3488.29083	0.09556
3487.00506	0.09553
3485.71929	0.09573
3484.43352	0.09643
3483.14775	0.09762
3481.86198	0.09890
3480.57621	0.09976
3479.29045	0.09999
3478.00468	0.09978
3476.71891	0.09954
3475.43314	0.09947
3474.14737	0.09950
3472.86160	0.09948
3471.57583	0.09943
3470.29006	0.09953
3469.00429	0.09993
3467.71853	0.10054
3466.43276	0.10115
3465.14699	0.10158
3463.86122	0.10180
3462.57545	0.10196
3461.28968	0.10221
3460.00391	0.10264
3458.71814	0.10315
3457.43238	0.10355
3456.14661	0.10367
3454.86084	0.10356
3453.57507	0.10346
3452.28930	0.10371
3451.00353	0.10445
3449.71776	0.10553
3448.43199	0.10662
3447.14622	0.10744
3445.86046	0.10794
3444.57469	0.10824
3443.28892	0.10847
3442.00315	0.10862
3440.71738	0.10857
3439.43161	0.10836
3438.14584	0.10818
3436.86007	0.10824
3435.57431	0.10852
3434.28854	0.10879
3433.00277	0.10895
3431.71700	0.10910
3430.43123	0.10941
3429.14546	0.10997
3427.85969	0.11072
3426.57392	0.11147
3425.28815	0.11198
3424.00239	0.11218
3422.71662	0.11223
3421.43085	0.11239
3420.14508	0.11269
3418.85931	0.11293
3417.57354	0.11302
3416.28777	0.11320
3415.00200	0.11381
3413.71624	0.11484
3412.43047	0.11596
3411.14470	0.11689
3409.85893	0.11758
3408.57316	0.11808
3407.28739	0.11837
3406.00162	0.11849
3404.71585	0.11870
3403.43008	0.11923
3402.14432	0.11994
3400.85855	0.12041
3399.57278	0.12035
3398.28701	0.11987
3397.00124	0.11938
3395.71547	0.11924
3394.42970	0.11957
3393.14393	0.12033
3391.85817	0.12135
3390.57240	0.12236
3389.28663	0.12307
3388.00086	0.12342
3386.71509	0.12359
3385.42932	0.12378
3384.14355	0.12411
3382.85778	0.12459
3381.57201	0.12519
3380.28625	0.12591
3379.00048	0.12662
3377.71471	0.12718
3376.42894	0.12755
3375.14317	0.12783
3373.85740	0.12818
3372.57163	0.12866
3371.28586	0.12917
3370.00010	0.12965
3368.71433	0.13016
3367.42856	0.13084
3366.14279	0.13167
3364.85702	0.13254
3363.57125	0.13332
3362.28548	0.13401
3360.99971	0.13466
3359.71394	0.13528
3358.42818	0.13584
3357.14241	0.13628
3355.85664	0.13664
3354.57087	0.13710
3353.28510	0.13781
3351.99933	0.13877
3350.71356	0.13976
3349.42779	0.14061
3348.14202	0.14127
3346.85626	0.14180
3345.57049	0.14226
3344.28472	0.14267
3342.99895	0.14311
3341.71318	0.14367
3340.42741	0.14442
3339.14164	0.14533
3337.85587	0.14632
3336.57011	0.14725
3335.28434	0.14808
3333.99857	0.14883
3332.71280	0.14944
3331.42703	0.14983
3330.14126	0.15003
3328.85549	0.15016
3327.56972	0.15030
3326.28395	0.15050
3324.99819	0.15078
3323.71242	0.15123
3322.42665	0.15186
3321.14088	0.15259
3319.85511	0.15333
3318.56934	0.15402
3317.28357	0.15462
3315.99780	0.15507
3314.71204	0.15543
3313.42627	0.15583
3312.14050	0.15639
3310.85473	0.15712
3309.56896	0.15794
3308.28319	0.15877
3306.99742	0.15952
3305.71165	0.16012
3304.42588	0.16050
3303.14012	0.16069
3301.85435	0.16081
3300.56858	0.16098
3299.28281	0.16128
3297.99704	0.16169
3296.71127	0.16213
3295.42550	0.16250
3294.13973	0.16270
3292.85397	0.16274
3291.56820	0.16275
3290.28243	0.16281
3288.99666	0.16287
3287.71089	0.16286
3286.42512	0.16281
3285.13935	0.16280
3283.85358	0.16282
3282.56781	0.16272
3281.28205	0.16241
3279.99628	0.16201
3278.71051	0.16180
3277.42474	0.16195
3276.13897	0.16225
3274.85320	0.16232
3273.56743	0.16196
3272.28166	0.16133
3270.99590	0.16074
3269.71013	0.16041
3268.42436	0.16027
3267.13859	0.16011
3265.85282	0.15978
3264.56705	0.15927
3263.28128	0.15874
3261.99551	0.15829
3260.70974	0.15788
3259.42398	0.15735
3258.13821	0.15664
3256.85244	0.15585
3255.56667	0.15517
3254.28090	0.15464
3252.99513	0.15414
3251.70936	0.15359
3250.42359	0.15307
3249.13783	0.15270
3247.85206	0.15255
3246.56629	0.15246
3245.28052	0.15223
3243.99475	0.15170
3242.70898	0.15099
3241.42321	0.15037
3240.13744	0.15004
3238.85167	0.14994
3237.56591	0.14982
3236.28014	0.14950
3234.99437	0.14901
3233.70860	0.14850
3232.42283	0.14802
3231.13706	0.14746
3229.85129	0.14675
3228.56552	0.14601
3227.27976	0.14539
3225.99399	0.14501
3224.70822	0.14489
3223.42245	0.14506
3222.13668	0.14545
3220.85091	0.14578
3219.56514	0.14570
3218.27937	0.14511
3216.99360	0.14426
3215.70784	0.14351
3214.42207	0.14305
3213.13630	0.14284
3211.85053	0.14268
3210.56476	0.14241
3209.27899	0.14206
3207.99322	0.14179
3206.70745	0.14178
3205.42169	0.14194
3204.13592	0.14202
3202.85015	0.14184
3201.56438	0.14136
3200.27861	0.14063
3198.99284	0.13977
3197.70707	0.13893
3196.42130	0.13828
3195.13553	0.13786
3193.84977	0.13757
3192.56400	0.13725
3191.27823	0.13674
3189.99246	0.13606
3188.70669	0.13531
3187.42092	0.13469
3186.13515	0.13432
3184.84938	0.13411
3183.56362	0.13378
3182.27785	0.13315
3180.99208	0.13234
3179.70631	0.13164
3178.42054	0.13114
3177.13477	0.13060
3175.84900	0.12982
3174.56323	0.12887
3173.27746	0.12811
3171.99170	0.12785
3170.70593	0.12805
3169.42016	0.12837
3168.13439	0.12839
3166.84862	0.12791
3165.56285	0.12705
3164.27708	0.12611
3162.99131	0.12533
3161.70555	0.12474
3160.41978	0.12429
3159.13401	0.12393
3157.84824	0.12361
3156.56247	0.12327
3155.27670	0.12275
3153.99093	0.12202
3152.70516	0.12119
3151.41939	0.12043
3150.13363	0.11985
3148.84786	0.11947
3147.56209	0.11915
3146.27632	0.11873
3144.99055	0.11807
3143.70478	0.11716
3142.41901	0.11613
3141.13324	0.11524
3139.84748	0.11471
3138.56171	0.11461
3137.27594	0.11483
3135.99017	0.11512
3134.70440	0.11524
3133.41863	0.11505
3132.13286	0.11453
3130.84709	0.11377
3129.56132	0.11290
3128.27556	0.11215
3126.98979	0.11168
3125.70402	0.11157
3124.41825	0.11169
3123.13248	0.11191
3121.84671	0.11207
3120.56094	0.11204
3119.27517	0.11172
3117.98940	0.11120
3116.70364	0.11074
3115.41787	0.11055
3114.13210	0.11057
3112.84633	0.11064
3111.56056	0.11063
3110.27479	0.11054
3108.98902	0.11043
3107.70325	0.11034
3106.41749	0.11039
3105.13172	0.11070
3103.84595	0.11124
3102.56018	0.11180
3101.27441	0.11210
3099.98864	0.11201
3098.70287	0.11169
3097.41710	0.11141
3096.13133	0.11135
3094.84557	0.11158
3093.55980	0.11205
3092.27403	0.11261
3090.98826	0.11302
3089.70249	0.11318
3088.41672	0.11317
3087.13095	0.11313
3085.84518	0.11308
3084.55942	0.11299
3083.27365	0.11290
3081.98788	0.11293
3080.70211	0.11310
3079.41634	0.11334
3078.13057	0.11357
3076.84480	0.11370
3075.55903	0.11374
3074.27326	0.11369
3072.98750	0.11357
3071.70173	0.11337
3070.41596	0.11311
3069.13019	0.11289
3067.84442	0.11284
3066.55865	0.11303
3065.27288	0.11337
3063.98711	0.11361
3062.70135	0.11355
3061.41558	0.11311
3060.12981	0.11238
3058.84404	0.11153
3057.55827	0.11070
3056.27250	0.11000
3054.98673	0.10955
3053.70096	0.10943
3052.41519	0.10959
3051.12943	0.10979
3049.84366	0.10977
3048.55789	0.10945
3047.27212	0.10899
3045.98635	0.10863
3044.70058	0.10845
3043.41481	0.10837
3042.12904	0.10821
3040.84328	0.10785
3039.55751	0.10732
3038.27174	0.10669
3036.98597	0.10599
3035.70020	0.10519
3034.41443	0.10430
3033.12866	0.10341
3031.84289	0.10267
3030.55712	0.10216
3029.27136	0.10184
3027.98559	0.10164
3026.69982	0.10149
3025.41405	0.10132
3024.12828	0.10108
3022.84251	0.10074
3021.55674	0.10028
3020.27097	0.09965
3018.98521	0.09887
3017.69944	0.09811
3016.41367	0.09759
3015.12790	0.09746
3013.84213	0.09760
3012.55636	0.09773
3011.27059	0.09763
3009.98482	0.09727
3008.69905	0.09685
3007.41329	0.09654
3006.12752	0.09639
3004.84175	0.09626
3003.55598	0.09608
3002.27021	0.09593
3000.98444	0.09597
2999.69867	0.09621
2998.41290	0.09654
2997.12714	0.09677
2995.84137	0.09683
2994.55560	0.09677
2993.26983	0.09672
2991.98406	0.09678
2990.69829	0.09702
2989.41252	0.09747
2988.12675	0.09809
2986.84098	0.09870
2985.55522	0.09920
2984.26945	0.09964
2982.98368	0.10013
2981.69791	0.10070
2980.41214	0.10131
2979.12637	0.10193
2977.84060	0.10260
2976.55483	0.10333
2975.26907	0.10401
2973.98330	0.10457
2972.69753	0.10502
2971.41176	0.10547
2970.12599	0.10606
2968.84022	0.10675
2967.55445	0.10738
2966.26868	0.10778
2964.98291	0.10799
2963.69715	0.10820
2962.41138	0.10858
2961.12561	0.10915
2959.83984	0.10980
2958.55407	0.11034
2957.26830	0.11060
2955.98253	0.11057
2954.69676	0.11041
2953.41100	0.11030
2952.12523	0.11027
2950.83946	0.11024
2949.55369	0.11016
2948.26792	0.11014
2946.98215	0.11029
2945.69638	0.11063
2944.41061	0.11104
2943.12484	0.11144
2941.83908	0.11180
2940.55331	0.11209
2939.26754	0.11232
2937.98177	0.11261
2936.69600	0.11304
2935.41023	0.11356
2934.12446	0.11403
2932.83869	0.11437
2931.55293	0.11470
2930.26716	0.11514
2928.98139	0.11567
2927.69562	0.11614
2926.40985	0.11634
2925.12408	0.11621
2923.83831	0.11572
2922.55254	0.11494
2921.26677	0.11401
2919.98101	0.11310
2918.69524	0.11237
2917.40947	0.11180
2916.12370	0.11127
2914.83793	0.11066
2913.55216	0.10995
2912.26639	0.10914
2910.98062	0.10825
2909.69486	0.10735
2908.40909	0.10657
2907.12332	0.10593
2905.83755	0.10535
2904.55178	0.10472
2903.26601	0.10404
2901.98024	0.10336
2900.69447	0.10263
2899.40870	0.10182
2898.12294	0.10101
2896.83717	0.10039
2895.55140	0.10005
2894.26563	0.09994
2892.97986	0.09987
2891.69409	0.09975
2890.40832	0.09955
2889.12255	0.09933
2887.83678	0.09917
2886.55102	0.09912
2885.26525	0.09918
2883.97948	0.09927
2882.69371	0.09932
2881.40794	0.09934
2880.12217	0.09935
2878.83640	0.09935
2877.55063	0.09934
2876.26487	0.09936
2874.97910	0.09943
2873.69333	0.09941
2872.40756	0.09911
2871.12179	0.09855
2869.83602	0.09795
2868.55025	0.09751
2867.26448	0.09717
2865.97871	0.09677
2864.69295	0.09627
2863.40718	0.09583
2862.12141	0.09558
2860.83564	0.09552
2859.54987	0.09550
2858.26410	0.09544
2856.97833	0.09534
2855.69256	0.09529
2854.40680	0.09531
2853.12103	0.09533
2851.83526	0.09527
2850.54949	0.09506
2849.26372	0.09464
2847.97795	0.09394
2846.69218	0.09297
2845.40641	0.09190
2844.12064	0.09096
2842.83488	0.09024
2841.54911	0.08961
2840.26334	0.08896
2838.97757	0.08826
2837.69180	0.08754
2836.40603	0.08682
2835.12026	0.08616
2833.83449	0.08569
2832.54873	0.08547
2831.26296	0.08546
2829.97719	0.08557
2828.69142	0.08571
2827.40565	0.08575
2826.11988	0.08558
2824.83411	0.08519
2823.54834	0.08465
2822.26257	0.08400
2820.97681	0.08332
2819.69104	0.08269
2818.40527	0.08227
2817.11950	0.08211
2815.83373	0.08208
2814.54796	0.08200
2813.26219	0.08179
2811.97642	0.08148
2810.69066	0.08123
2809.40489	0.08110
2808.11912	0.08108
2806.83335	0.08106
2805.54758	0.08097
2804.26181	0.08078
2802.97604	0.08058
2801.69027	0.08045
2800.40450	0.08041
2799.11874	0.08034
2797.83297	0.08015
2796.54720	0.07977
2795.26143	0.07926
2793.97566	0.07874
2792.68989	0.07832
2791.40412	0.07802
2790.11835	0.07776
2788.83259	0.07747
2787.54682	0.07716
2786.26105	0.07697
2784.97528	0.07701
2783.68951	0.07725
2782.40374	0.07757
2781.11797	0.07779
2779.83220	0.07781
2778.54643	0.07764
2777.26067	0.07733
2775.97490	0.07702
2774.68913	0.07683
2773.40336	0.07675
2772.11759	0.07669
2770.83182	0.07654
2769.54605	0.07632
2768.26028	0.07610
2766.97452	0.07589
2765.68875	0.07564
2764.40298	0.07528
2763.11721	0.07484
2761.83144	0.07444
2760.54567	0.07419
2759.25990	0.07414
2757.97413	0.07423
2756.68836	0.07433
2755.40260	0.07441
2754.11683	0.07443
2752.83106	0.07436
2751.54529	0.07412
2750.25952	0.07373
2748.97375	0.07329
2747.68798	0.07288
2746.40221	0.07253
2745.11645	0.07227
2743.83068	0.07215
2742.54491	0.07220
2741.25914	0.07229
2739.97337	0.07223
2738.68760	0.07193
2737.40183	0.07148
2736.11606	0.07106
2734.83029	0.07082
2733.54453	0.07077
2732.25876	0.07090
2730.97299	0.07110
2729.68722	0.07124
2728.40145	0.07119
2727.11568	0.07092
2725.82991	0.07053
2724.54414	0.07013
2723.25838	0.06981
2721.97261	0.06954
2720.68684	0.06931
2719.40107	0.06913
2718.11530	0.06901
2716.82953	0.06895
2715.54376	0.06894
2714.25799	0.06895
2712.97222	0.06896
2711.68646	0.06894
2710.40069	0.06888
2709.11492	0.06877
2707.82915	0.06863
2706.54338	0.06850
2705.25761	0.06840
2703.97184	0.06832
2702.68607	0.06822
2701.40031	0.06810
2700.11454	0.06796
2698.82877	0.06778
2697.54300	0.06754
2696.25723	0.06729
2694.97146	0.06714
2693.68569	0.06720
2692.39992	0.06740
2691.11415	0.06754
2689.82839	0.06743
2688.54262	0.06711
2687.25685	0.06680
2685.97108	0.06672
2684.68531	0.06680
2683.39954	0.06681
2682.11377	0.06665
2680.82800	0.06644
2679.54224	0.06639
2678.25647	0.06653
2676.97070	0.06674
2675.68493	0.06690
2674.39916	0.06694
2673.11339	0.06685
2671.82762	0.06665
2670.54185	0.06635
2669.25608	0.06603
2667.97032	0.06577
2666.68455	0.06571
2665.39878	0.06587
2664.11301	0.06614
2662.82724	0.06637
2661.54147	0.06646
2660.25570	0.06641
2658.96993	0.06627
2657.68417	0.06609
2656.39840	0.06586
2655.11263	0.06556
2653.82686	0.06517
2652.54109	0.06475
2651.25532	0.06437
2649.96955	0.06405
2648.68378	0.06376
2647.39801	0.06351
2646.11225	0.06334
2644.82648	0.06330
2643.54071	0.06332
2642.25494	0.06322
2640.96917	0.06287
2639.68340	0.06230
2638.39763	0.06168
2637.11186	0.06121
2635.82609	0.06098
2634.54033	0.06098
2633.25456	0.06113
2631.96879	0.06129
2630.68302	0.06136
2629.39725	0.06133
2628.11148	0.06121
2626.82571	0.06104
2625.53994	0.06080
2624.25418	0.06045
2622.96841	0.06000
2621.68264	0.05960
2620.39687	0.05942
2619.11110	0.05944
2617.82533	0.05951
2616.53956	0.05948
2615.25379	0.05928
2613.96802	0.05893
2612.68226	0.05851
2611.39649	0.05815
2610.11072	0.05794
2608.82495	0.05783
2607.53918	0.05776
2606.25341	0.05775
2604.96764	0.05775
2603.68187	0.05764
2602.39611	0.05735
2601.11034	0.05694
2599.82457	0.05661
2598.53880	0.05644
2597.25303	0.05640
2595.96726	0.05642
2594.68149	0.05639
2593.39572	0.05623
2592.10995	0.05600
2590.82419	0.05586
2589.53842	0.05579
2588.25265	0.05561
2586.96688	0.05523
2585.68111	0.05485
2584.39534	0.05472
2583.10957	0.05476
2581.82380	0.05466
2580.53804	0.05433
2579.25227	0.05396
2577.96650	0.05381
2576.68073	0.05393
2575.39496	0.05419
2574.10919	0.05440
2572.82342	0.05440
2571.53765	0.05419
2570.25188	0.05393
2568.96612	0.05369
2567.68035	0.05342
2566.39458	0.05307
2565.10881	0.05277
2563.82304	0.05270
2562.53727	0.05291
2561.25150	0.05319
2559.96573	0.05329
2558.67997	0.05310
2557.39420	0.05266
2556.10843	0.05219
2554.82266	0.05187
2553.53689	0.05171
2552.25112	0.05160
2550.96535	0.05142
2549.67958	0.05118
2548.39381	0.05093
2547.10805	0.05076
2545.82228	0.05072
2544.53651	0.05079
2543.25074	0.05084
2541.96497	0.05079
2540.67920	0.05070
2539.39343	0.05065
2538.10766	0.05058
2536.82190	0.05036
2535.53613	0.04997
2534.25036	0.04955
2532.96459	0.04927
2531.67882	0.04916
2530.39305	0.04917
2529.10728	0.04923
2527.82151	0.04936
2526.53574	0.04957
2525.24998	0.04990
2523.96421	0.05020
2522.67844	0.05023
2521.39267	0.04985
2520.10690	0.04923
2518.82113	0.04878
2517.53536	0.04880
2516.24959	0.04920
2514.96383	0.04961
2513.67806	0.04975
2512.39229	0.04958
2511.10652	0.04924
2509.82075	0.04887
2508.53498	0.04856
2507.24921	0.04841
2505.96344	0.04854
2504.67767	0.04885
2503.39191	0.04906
2502.10614	0.04893
2500.82037	0.04852
2499.53460	0.04811
2498.24883	0.04783
2496.96306	0.04762
2495.67729	0.04736
2494.39152	0.04709
2493.10576	0.04696
2491.81999	0.04706
2490.53422	0.04730
2489.24845	0.04751
2487.96268	0.04749
2486.67691	0.04719
2485.39114	0.04669
2484.10537	0.04622
2482.81960	0.04602
2481.53384	0.04619
2480.24807	0.04659
2478.96230	0.04699
2477.67653	0.04724
2476.39076	0.04734
2475.10499	0.04732
2473.81922	0.04730
2472.53345	0.04740
2471.24769	0.04760
2469.96192	0.04763
2468.67615	0.04725
2467.39038	0.04659
2466.10461	0.04608
2464.81884	0.04596
2463.53307	0.04613
2462.24730	0.04629
2460.96153	0.04623
2459.67577	0.04595
2458.39000	0.04562
2457.10423	0.04548
2455.81846	0.04562
2454.53269	0.04594
2453.24692	0.04621
2451.96115	0.04627
2450.67538	0.04613
2449.38962	0.04592
2448.10385	0.04579
2446.81808	0.04577
2445.53231	0.04566
2444.24654	0.04534
2442.96077	0.04487
2441.67500	0.04451
2440.38923	0.04442
2439.10346	0.04461
2437.81770	0.04492
2436.53193	0.04516
2435.24616	0.04524
2433.96039	0.04514
2432.67462	0.04493
2431.38885	0.04467
2430.10308	0.04446
2428.81731	0.04439
2427.53155	0.04454
2426.24578	0.04487
2424.96001	0.04525
2423.67424	0.04553
2422.38847	0.04563
2421.10270	0.04559
2419.81693	0.04551
2418.53116	0.04546
2417.24539	0.04542
2415.95963	0.04537
2414.67386	0.04533
2413.38809	0.04524
2412.10232	0.04498
2410.81655	0.04452
2409.53078	0.04400
2408.24501	0.04364
2406.95924	0.04354
2405.67347	0.04370
2404.38771	0.04403
2403.10194	0.04442
2401.81617	0.04477
2400.53040	0.04501
2399.24463	0.04505
2397.95886	0.04498
2396.67309	0.04482
2395.38732	0.04461
2394.10156	0.04435
2392.81579	0.04404
2391.53002	0.04373
2390.24425	0.04355
2388.95848	0.04364
2387.67271	0.04394
2386.38694	0.04428
2385.10117	0.04450
2383.81540	0.04459
2382.52964	0.04457
2381.24387	0.04449
2379.95810	0.04435
2378.67233	0.04420
2377.38656	0.04409
2376.10079	0.04404
2374.81502	0.04411
2373.52925	0.04447
2372.24349	0.04503
2370.95772	0.04550
2369.67195	0.04565
2368.38618	0.04558
2367.10041	0.04558
2365.81464	0.04566
2364.52887	0.04580
2363.24310	0.04598
2361.95733	0.04627
2360.67157	0.04677
2359.38580	0.04714
2358.10003	0.04703
2356.81426	0.04648
2355.52849	0.04575
2354.24272	0.04504
2352.95695	0.04459
2351.67118	0.04460
2350.38542	0.04484
2349.09965	0.04492
2347.81388	0.04491
2346.52811	0.04520
2345.24234	0.04542
2343.95657	0.04488
2342.67080	0.04407
2341.38503	0.04440
2340.09926	0.04557
2338.81350	0.04545
2337.52773	0.04416
2336.24196	0.04422
2334.95619	0.04532
2333.67042	0.04509
2332.38465	0.04403
2331.09888	0.04440
2329.81311	0.04476
2328.52735	0.04401
2327.24158	0.04438
2325.95581	0.04544
2324.67004	0.04547
2323.38427	0.04536
2322.09850	0.04552
2320.81273	0.04483
2319.52696	0.04430
2318.24119	0.04415
2316.95543	0.04377
2315.66966	0.04368
2314.38389	0.04362
2313.09812	0.04318
2311.81235	0.04280
2310.52658	0.04235
2309.24081	0.04198
2307.95504	0.04187
2306.66928	0.04175
2305.38351	0.04167
2304.09774	0.04159
2302.81197	0.04148
2301.52620	0.04133
2300.24043	0.04098
2298.95466	0.04052
2297.66889	0.04006
2296.38312	0.03968
2295.09736	0.03942
2293.81159	0.03924
2292.52582	0.03921
2291.24005	0.03925
2289.95428	0.03918
2288.66851	0.03882
2287.38274	0.03822
2286.09697	0.03761
2284.81121	0.03721
2283.52544	0.03705
2282.23967	0.03702
2280.95390	0.03706
2279.66813	0.03714
2278.38236	0.03727
2277.09659	0.03740
2275.81082	0.03745
2274.52505	0.03733
2273.23929	0.03707
2271.95352	0.03675
2270.66775	0.03639
2269.38198	0.03582
2268.09621	0.03496
2266.81044	0.03397
2265.52467	0.03323
2264.23890	0.03294
2262.95314	0.03309
2261.66737	0.03347
2260.38160	0.03380
2259.09583	0.03386
2257.81006	0.03362
2256.52429	0.03316
2255.23852	0.03270
2253.95275	0.03244
2252.66698	0.03247
2251.38122	0.03281
2250.09545	0.03346
2248.80968	0.03432
2247.52391	0.03492
2246.23814	0.03512
2244.95237	0.03470
2243.66660	0.03374
2242.38083	0.03269
2241.09507	0.03211
2239.80930	0.03221
2238.52353	0.03274
2237.23776	0.03311
2235.95199	0.03293
2234.66622	0.03238
2233.38045	0.03197
2232.09468	0.03199
2230.80891	0.03215
2229.52315	0.03200
2228.23738	0.03149
2226.95161	0.03092
2225.66584	0.03044
2224.38007	0.03001
2223.09430	0.02961
2221.80853	0.02939
2220.52276	0.02942
2219.23700	0.02950
2217.95123	0.02941
2216.66546	0.02911
2215.37969	0.02873
2214.09392	0.02843
2212.80815	0.02831
2211.52238	0.02829
2210.23661	0.02814
2208.95084	0.02785
2207.66508	0.02772
2206.37931	0.02802
2205.09354	0.02849
2203.80777	0.02852
2202.52200	0.02776
2201.23623	0.02659
2199.95046	0.02574
2198.66469	0.02576
2197.37893	0.02655
2196.09316	0.02756
2194.80739	0.02832
2193.52162	0.02877
2192.23585	0.02905
2190.95008	0.02912
2189.66431	0.02880
2188.37854	0.02805
2187.09277	0.02701
2185.80701	0.02579
2184.52124	0.02449
2183.23547	0.02352
2181.94970	0.02346
2180.66393	0.02432
2179.37816	0.02530
2178.09239	0.02546
2176.80662	0.02459
2175.52085	0.02331
2174.23509	0.02231
2172.94932	0.02189
2171.66355	0.02190
2170.37778	0.02206
2169.09201	0.02197
2167.80624	0.02113
2166.52047	0.01934
2165.23470	0.01717
2163.94894	0.01578
2162.66317	0.01593
2161.37740	0.01719
2160.09163	0.01841
2158.80586	0.01890
2157.52009	0.01896
2156.23432	0.01921
2154.94855	0.01993
2153.66278	0.02110
2152.37702	0.02243
2151.09125	0.02355
2149.80548	0.02418
2148.51971	0.02436
2147.23394	0.02416
2145.94817	0.02365
2144.66240	0.02311
2143.37663	0.02301
2142.09087	0.02347
2140.80510	0.02400
2139.51933	0.02395
2138.23356	0.02328
2136.94779	0.02261
2135.66202	0.02265
2134.37625	0.02358
2133.09048	0.02495
2131.80471	0.02615
2130.51895	0.02685
2129.23318	0.02708
2127.94741	0.02703
2126.66164	0.02700
2125.37587	0.02727
2124.09010	0.02786
2122.80433	0.02848
2121.51856	0.02885
2120.23280	0.02903
2118.94703	0.02925
2117.66126	0.02958
2116.37549	0.02984
2115.08972	0.02982
2113.80395	0.02955
2112.51818	0.02923
2111.23241	0.02910
2109.94664	0.02920
2108.66088	0.02946
2107.37511	0.02982
2106.08934	0.03018
2104.80357	0.03036
2103.51780	0.03014
2102.23203	0.02963
2100.94626	0.02913
2099.66049	0.02819
2098.37473	0.02762
2097.08896	0.02729
2095.80319	0.02707
2094.51742	0.02714
2093.23165	0.02755
2091.94588	0.02800
2090.66011	0.02807
2089.37434	0.02766
2088.08857	0.02707
2086.80281	0.02669
2085.51704	0.02658
2084.23127	0.02648
2082.94550	0.02622
2081.65973	0.02593
2080.37396	0.02580
2079.08819	0.02572
2077.80242	0.02545
2076.51666	0.02493
2075.23089	0.02450
2073.94512	0.02446
2072.65935	0.02474
2071.37358	0.02490
2070.08781	0.02460
2068.80204	0.02391
2067.51627	0.02321
2066.23050	0.02294
2064.94474	0.02331
2063.65897	0.02419
2062.37320	0.02514
2061.08743	0.02561
2059.80166	0.02539
2058.51589	0.02477
2057.23012	0.02424
2055.94435	0.02404
2054.65859	0.02396
2053.37282	0.02358
2052.08705	0.02273
2050.80128	0.02160
2049.51551	0.02045
2048.22974	0.01937
2046.94397	0.01837
2045.65820	0.01761
2044.37243	0.01735
2043.08667	0.01760
2041.80090	0.01791
2040.51513	0.01772
2039.22936	0.01703
2037.94359	0.01639
2036.65782	0.01641
2035.37205	0.01716
2034.08628	0.01807
2032.80052	0.01837
2031.51475	0.01762
2030.22898	0.01619
2028.94321	0.01510
2027.65744	0.01525
2026.37167	0.01660
2025.08590	0.01833
2023.80013	0.01961
2022.51436	0.02010
2021.22860	0.01979
2019.94283	0.01882
2018.65706	0.01754
2017.37129	0.01642
2016.08552	0.01579
2014.79975	0.01573
2013.51398	0.01618
2012.22821	0.01686
2010.94245	0.01727
2009.65668	0.01701
2008.37091	0.01623
2007.08514	0.01558
2005.79937	0.01569
2004.51360	0.01670
2003.22783	0.01828
2001.94206	0.01987
2000.65629	0.02089
1999.37053	0.02104
1998.08476	0.02053
1996.79899	0.01988
1995.51322	0.01959
1994.22745	0.01972
1992.94168	0.01995
1991.65591	0.01989
1990.37014	0.01957
1989.08438	0.01937
1987.79861	0.01962
1986.51284	0.02020
1985.22707	0.02065
1983.94130	0.02055
1982.65553	0.01979
1981.36976	0.01852
1980.08399	0.01710
1978.79822	0.01602
1977.51246	0.01565
1976.22669	0.01595
1974.94092	0.01656
1973.65515	0.01721
1972.36938	0.01797
1971.08361	0.01895
1969.79784	0.01999
1968.51207	0.02070
1967.22631	0.02085
1965.94054	0.02060
1964.65477	0.02030
1963.36900	0.02016
1962.08323	0.02012
1960.79746	0.02003
1959.51169	0.01979
1958.22592	0.01958
1956.94015	0.01969
1955.65439	0.02017
1954.36862	0.02075
1953.08285	0.02110
1951.79708	0.02117
1950.51131	0.02121
1949.22554	0.02143
1947.93977	0.02179
1946.65400	0.02204
1945.36823	0.02207
1944.08247	0.02198
1942.79670	0.02192
1941.51093	0.02186
1940.22516	0.02168
1938.93939	0.02130
1937.65362	0.02085
1936.36785	0.02058
1935.08208	0.02064
1933.79632	0.02093
1932.51055	0.02125
1931.22478	0.02145
1929.93901	0.02148
1928.65324	0.02142
1927.36747	0.02135
1926.08170	0.02139
1924.79593	0.02162
1923.51016	0.02207
1922.22440	0.02269
1920.93863	0.02337
1919.65286	0.02393
1918.36709	0.02418
1917.08132	0.02409
1915.79555	0.02383
1914.50978	0.02368
1913.22401	0.02379
1911.93825	0.02407
1910.65248	0.02433
1909.36671	0.02439
1908.08094	0.02427
1906.79517	0.02412
1905.50940	0.02412
1904.22363	0.02435
1902.93786	0.02469
1901.65209	0.02488
1900.36633	0.02472
1899.08056	0.02426
1897.79479	0.02374
1896.50902	0.02334
1895.22325	0.02312
1893.93748	0.02307
1892.65171	0.02315
1891.36594	0.02333
1890.08018	0.02355
1888.79441	0.02375
1887.50864	0.02389
1886.22287	0.02393
1884.93710	0.02385
1883.65133	0.02368
1882.36556	0.02342
1881.07979	0.02308
1879.79402	0.02274
1878.50826	0.02257
1877.22249	0.02262
1875.93672	0.02280
1874.65095	0.02300
1873.36518	0.02320
1872.07941	0.02343
1870.79364	0.02366
1869.50787	0.02380
1868.22211	0.02377
1866.93634	0.02358
1865.65057	0.02327
1864.36480	0.02291
1863.07903	0.02264
1861.79326	0.02252
1860.50749	0.02255
1859.22172	0.02258
1857.93595	0.02253
1856.65019	0.02243
1855.36442	0.02242
1854.07865	0.02258
1852.79288	0.02287
1851.50711	0.02318
1850.22134	0.02336
1848.93557	0.02336
1847.64980	0.02318
1846.36404	0.02296
1845.07827	0.02281
1843.79250	0.02275
1842.50673	0.02273
1841.22096	0.02271
1839.93519	0.02269
1838.64942	0.02270
1837.36365	0.02272
1836.07788	0.02270
1834.79212	0.02268
1833.50635	0.02270
1832.22058	0.02281
1830.93481	0.02300
1829.64904	0.02321
1828.36327	0.02333
1827.07750	0.02330
1825.79173	0.02310
1824.50597	0.02279
1823.22020	0.02246
1821.93443	0.02219
1820.64866	0.02201
1819.36289	0.02193
1818.07712	0.02198
1816.79135	0.02218
1815.50558	0.02248
1814.21981	0.02279
1812.93405	0.02298
1811.64828	0.02299
1810.36251	0.02284
1809.07674	0.02263
1807.79097	0.02248
1806.50520	0.02243
1805.21943	0.02242
1803.93366	0.02241
1802.64790	0.02237
1801.36213	0.02232
1800.07636	0.02226
1798.79059	0.02221
1797.50482	0.02219
1796.21905	0.02224
1794.93328	0.02233
1793.64751	0.02242
1792.36174	0.02249
1791.07598	0.02249
1789.79021	0.02242
1788.50444	0.02227
1787.21867	0.02209
1785.93290	0.02195
1784.64713	0.02190
1783.36136	0.02195
1782.07559	0.02205
1780.78983	0.02212
1779.50406	0.02213
1778.21829	0.02207
1776.93252	0.02198
1775.64675	0.02192
1774.36098	0.02189
1773.07521	0.02189
1771.78944	0.02194
1770.50367	0.02202
1769.21791	0.02211
1767.93214	0.02218
1766.64637	0.02220
1765.36060	0.02221
1764.07483	0.02223
1762.78906	0.02226
1761.50329	0.02229
1760.21752	0.02233
1758.93176	0.02241
1757.64599	0.02254
1756.36022	0.02274
1755.07445	0.02301
1753.78868	0.02334
1752.50291	0.02367
1751.21714	0.02397
1749.93137	0.02426
1748.64560	0.02456
1747.35984	0.02487
1746.07407	0.02519
1744.78830	0.02552
1743.50253	0.02587
1742.21676	0.02626
1740.93099	0.02671
1739.64522	0.02722
1738.35945	0.02777
1737.07369	0.02828
1735.78792	0.02872
1734.50215	0.02908
1733.21638	0.02945
1731.93061	0.02989
1730.64484	0.03036
1729.35907	0.03080
1728.07330	0.03120
1726.78753	0.03164
1725.50177	0.03212
1724.21600	0.03261
1722.93023	0.03303
1721.64446	0.03340
1720.35869	0.03378
1719.07292	0.03423
1717.78715	0.03476
1716.50138	0.03532
1715.21561	0.03589
1713.92985	0.03651
1712.64408	0.03724
1711.35831	0.03814
1710.07254	0.03920
1708.78677	0.04036
1707.50100	0.04160
1706.21523	0.04294
1704.92946	0.04442
1703.64370	0.04606
1702.35793	0.04790
1701.07216	0.04991
1699.78639	0.05209
1698.50062	0.05440
1697.21485	0.05686
1695.92908	0.05948
1694.64331	0.06220
1693.35754	0.06491
1692.07178	0.06753
1690.78601	0.07005
1689.50024	0.07250
1688.21447	0.07494
1686.92870	0.07748
1685.64293	0.08018
1684.35716	0.08301
1683.07139	0.08589
1681.78563	0.08879
1680.49986	0.09175
1679.21409	0.09486
1677.92832	0.09814
1676.64255	0.10156
1675.35678	0.10505
1674.07101	0.10857
1672.78524	0.11211
1671.49947	0.11574
1670.21371	0.11949
1668.92794	0.12328
1667.64217	0.12698
1666.35640	0.13053
1665.07063	0.13395
1663.78486	0.13733
1662.49909	0.14067
1661.21332	0.14392
1659.92756	0.14702
1658.64179	0.14993
1657.35602	0.15262
1656.07025	0.15517
1654.78448	0.15767
1653.49871	0.16014
1652.21294	0.16248
1650.92717	0.16454
1649.64140	0.16629
1648.35564	0.16783
1647.06987	0.16927
1645.78410	0.17064
1644.49833	0.17191
1643.21256	0.17310
1641.92679	0.17427
1640.64102	0.17545
1639.35525	0.17656
1638.06949	0.17753
1636.78372	0.17833
1635.49795	0.17900
1634.21218	0.17955
1632.92641	0.17996
1631.64064	0.18016
1630.35487	0.18007
1629.06910	0.17962
1627.78333	0.17881
1626.49757	0.17760
1625.21180	0.17600
1623.92603	0.17404
1622.64026	0.17169
1621.35449	0.16898
1620.06872	0.16593
1618.78295	0.16262
1617.49718	0.15917
1616.21142	0.15564
1614.92565	0.15205
1613.63988	0.14839
1612.35411	0.14466
1611.06834	0.14089
1609.78257	0.13711
1608.49680	0.13335
1607.21103	0.12965
1605.92526	0.12609
1604.63950	0.12268
1603.35373	0.11943
1602.06796	0.11635
1600.78219	0.11345
1599.49642	0.11076
1598.21065	0.10826
1596.92488	0.10594
1595.63911	0.10378
1594.35335	0.10179
1593.06758	0.09999
1591.78181	0.09838
1590.49604	0.09696
1589.21027	0.09574
1587.92450	0.09474
1586.63873	0.09400
1585.35296	0.09349
1584.06719	0.09316
1582.78143	0.09296
1581.49566	0.09288
1580.20989	0.09296
1578.92412	0.09328
1577.63835	0.09388
1576.35258	0.09477
1575.06681	0.09588
1573.78104	0.09712
1572.49528	0.09845
1571.20951	0.09990
1569.92374	0.10152
1568.63797	0.10333
1567.35220	0.10529
1566.06643	0.10738
1564.78066	0.10955
1563.49489	0.11176
1562.20912	0.11398
1560.92336	0.11622
1559.63759	0.11852
1558.35182	0.12085
1557.06605	0.12316
1555.78028	0.12540
1554.49451	0.12758
1553.20874	0.12969
1551.92297	0.13172
1550.63721	0.13361
1549.35144	0.13536
1548.06567	0.13696
1546.77990	0.13844
1545.49413	0.13981
1544.20836	0.14110
1542.92259	0.14231
1541.63682	0.14342
1540.35105	0.14443
1539.06529	0.14531
1537.77952	0.14601
1536.49375	0.14651
1535.20798	0.14684
1533.92221	0.14710
1532.63644	0.14731
1531.35067	0.14748
1530.06490	0.14756
1528.77914	0.14755
1527.49337	0.14745
1526.20760	0.14727
1524.92183	0.14702
1523.63606	0.14672
1522.35029	0.14637
1521.06452	0.14599
1519.77875	0.14561
1518.49298	0.14519
1517.20722	0.14464
1515.92145	0.14385
1514.63568	0.14274
1513.34991	0.14129
1512.06414	0.13957
1510.77837	0.13765
1509.49260	0.13560
1508.20683	0.13346
1506.92107	0.13125
1505.63530	0.12894
1504.34953	0.12651
1503.06376	0.12399
1501.77799	0.12145
1500.49222	0.11893
1499.20645	0.11644
1497.92068	0.11393
1496.63491	0.11136
1495.34915	0.10871
1494.06338	0.10602
1492.77761	0.10335
1491.49184	0.10073
1490.20607	0.09822
1488.92030	0.09590
1487.63453	0.09381
1486.34876	0.09195
1485.06299	0.09030
1483.77723	0.08882
1482.49146	0.08753
1481.20569	0.08647
1479.91992	0.08569
1478.63415	0.08522
1477.34838	0.08504
1476.06261	0.08514
1474.77684	0.08551
1473.49108	0.08617
1472.20531	0.08706
1470.91954	0.08809
1469.63377	0.08910
1468.34800	0.08999
1467.06223	0.09075
1465.77646	0.09146
1464.49069	0.09221
1463.20492	0.09304
1461.91916	0.09397
1460.63339	0.09497
1459.34762	0.09604
1458.06185	0.09720
1456.77608	0.09838
1455.49031	0.09950
1454.20454	0.10042
1452.91877	0.10111
1451.63301	0.10158
1450.34724	0.10190
1449.06147	0.10207
1447.77570	0.10207
1446.48993	0.10189
1445.20416	0.10157
1443.91839	0.10115
1442.63262	0.10067
1441.34685	0.10014
1440.06109	0.09953
1438.77532	0.09880
1437.48955	0.09792
1436.20378	0.09687
1434.91801	0.09571
1433.63224	0.09449
1432.34647	0.09331
1431.06070	0.09226
1429.77494	0.09139
1428.48917	0.09069
1427.20340	0.09014
1425.91763	0.08970
1424.63186	0.08936
1423.34609	0.08913
1422.06032	0.08901
1420.77455	0.08897
1419.48878	0.08899
1418.20302	0.08903
1416.91725	0.08905
1415.63148	0.08905
1414.34571	0.08906
1413.05994	0.08909
1411.77417	0.08913
1410.48840	0.08916
1409.20263	0.08918
1407.91687	0.08920
1406.63110	0.08923
1405.34533	0.08928
1404.05956	0.08935
1402.77379	0.08941
1401.48802	0.08941
1400.20225	0.08932
1398.91648	0.08916
1397.63071	0.08900
1396.34495	0.08890
1395.05918	0.08887
1393.77341	0.08888
1392.48764	0.08888
1391.20187	0.08885
1389.91610	0.08881
1388.63033	0.08876
1387.34456	0.08871
1386.05880	0.08861
1384.77303	0.08845
1383.48726	0.08821
1382.20149	0.08792
1380.91572	0.08762
1379.62995	0.08730
1378.34418	0.08696
1377.05841	0.08658
1375.77264	0.08615
1374.48688	0.08569
1373.20111	0.08519
1371.91534	0.08465
1370.62957	0.08404
1369.34380	0.08337
1368.05803	0.08264
1366.77226	0.08185
1365.48649	0.08102
1364.20073	0.08020
1362.91496	0.07943
1361.62919	0.07871
1360.34342	0.07803
1359.05765	0.07743
1357.77188	0.07695
1356.48611	0.07667
1355.20034	0.07657
1353.91457	0.07661
1352.62881	0.07673
1351.34304	0.07689
1350.05727	0.07710
1348.77150	0.07738
1347.48573	0.07774
1346.19996	0.07815
1344.91419	0.07858
1343.62842	0.07903
1342.34266	0.07949
1341.05689	0.07990
1339.77112	0.08024
1338.48535	0.08048
1337.19958	0.08060
1335.91381	0.08061
1334.62804	0.08049
1333.34227	0.08025
1332.05650	0.07992
1330.77074	0.07955
1329.48497	0.07913
1328.19920	0.07869
1326.91343	0.07823
1325.62766	0.07778
1324.34189	0.07738
1323.05612	0.07701
1321.77035	0.07669
1320.48459	0.07641
1319.19882	0.07620
1317.91305	0.07606
1316.62728	0.07596
1315.34151	0.07585
1314.05574	0.07569
1312.76997	0.07549
1311.48420	0.07526
1310.19843	0.07503
1308.91267	0.07479
1307.62690	0.07452
1306.34113	0.07428
1305.05536	0.07410
1303.76959	0.07398
1302.48382	0.07389
1301.19805	0.07379
1299.91228	0.07366
1298.62652	0.07353
1297.34075	0.07346
1296.05498	0.07347
1294.76921	0.07358
1293.48344	0.07376
1292.19767	0.07398
1290.91190	0.07423
1289.62613	0.07452
1288.34036	0.07484
1287.05460	0.07523
1285.76883	0.07566
1284.48306	0.07610
1283.19729	0.07653
1281.91152	0.07688
1280.62575	0.07714
1279.33998	0.07732
1278.05421	0.07747
1276.76845	0.07761
1275.48268	0.07775
1274.19691	0.07789
1272.91114	0.07803
1271.62537	0.07816
1270.33960	0.07830
1269.05383	0.07848
1267.76806	0.07872
1266.48229	0.07905
1265.19653	0.07946
1263.91076	0.07991
1262.62499	0.08037
1261.33922	0.08083
1260.05345	0.08131
1258.76768	0.08179
1257.48191	0.08231
1256.19614	0.08288
1254.91037	0.08353
1253.62461	0.08426
1252.33884	0.08502
1251.05307	0.08579
1249.76730	0.08658
1248.48153	0.08739
1247.19576	0.08825
1245.90999	0.08915
1244.62422	0.09010
1243.33846	0.09102
1242.05269	0.09188
1240.76692	0.09264
1239.48115	0.09330
1238.19538	0.09385
1236.90961	0.09428
1235.62384	0.09462
1234.33807	0.09486
1233.05230	0.09501
1231.76654	0.09504
1230.48077	0.09493
1229.19500	0.09469
1227.90923	0.09430
1226.62346	0.09374
1225.33769	0.09304
1224.05192	0.09223
1222.76615	0.09136
1221.48039	0.09047
1220.19462	0.08960
1218.90885	0.08877
1217.62308	0.08798
1216.33731	0.08724
1215.05154	0.08658
1213.76577	0.08602
1212.48000	0.08559
1211.19423	0.08527
1209.90847	0.08502
1208.62270	0.08483
1207.33693	0.08472
1206.05116	0.08468
1204.76539	0.08466
1203.47962	0.08455
1202.19385	0.08429
1200.90808	0.08391
1199.62232	0.08349
1198.33655	0.08288
1197.05078	0.08220
1195.76501	0.08148
1194.47924	0.08073
1193.19347	0.07999
1191.90770	0.07927
1190.62193	0.07856
1189.33616	0.07792
1188.05040	0.07736
1186.76463	0.07689
1185.47886	0.07649
1184.19309	0.07611
1182.90732	0.07575
1181.62155	0.07542
1180.33578	0.07517
1179.05001	0.07499
1177.76425	0.07482
1176.47848	0.07464
1175.19271	0.07446
1173.90694	0.07432
1172.62117	0.07426
1171.33540	0.07426
1170.04963	0.07427
1168.76386	0.07423
1167.47809	0.07412
1166.19233	0.07399
1164.90656	0.07389
1163.62079	0.07382
1162.33502	0.07378
1161.04925	0.07373
1159.76348	0.07362
1158.47771	0.07340
1157.19194	0.07303
1155.90618	0.07251
1154.62041	0.07193
1153.33464	0.07134
1152.04887	0.07080
1150.76310	0.07028
1149.47733	0.06972
1148.19156	0.06911
1146.90579	0.06848
1145.62002	0.06786
1144.33426	0.06727
1143.04849	0.06668
1141.76272	0.06609
1140.47695	0.06549
1139.19118	0.06489
1137.90541	0.06433
1136.61964	0.06386
1135.33387	0.06354
1134.04811	0.06336
1132.76234	0.06325
1131.47657	0.06314
1130.19080	0.06298
1128.90503	0.06279
1127.61926	0.06259
1126.33349	0.06240
1125.04772	0.06222
1123.76195	0.06202
1122.47619	0.06182
1121.19042	0.06163
1119.90465	0.06147
1118.61888	0.06137
1117.33311	0.06131
1116.04734	0.06130
1114.76157	0.06137
1113.47580	0.06153
1112.19004	0.06174
1110.90427	0.06191
1109.61850	0.06198
1108.33273	0.06193
1107.04696	0.06187
1105.76119	0.06190
1104.47542	0.06210
1103.18965	0.06246
1101.90388	0.06287
1100.61812	0.06323
1099.33235	0.06355
1098.04658	0.06387
1096.76081	0.06422
1095.47504	0.06459
1094.18927	0.06501
1092.90350	0.06552
1091.61773	0.06609
1090.33197	0.06669
1089.04620	0.06731
1087.76043	0.06801
1086.47466	0.06883
1085.18889	0.06970
1083.90312	0.07052
1082.61735	0.07117
1081.33158	0.07162
1080.04581	0.07192
1078.76005	0.07210
1077.47428	0.07213
1076.18851	0.07205
1074.90274	0.07192
1073.61697	0.07187
1072.33120	0.07192
1071.04543	0.07202
1069.75966	0.07207
1068.47390	0.07207
1067.18813	0.07204
1065.90236	0.07205
1064.61659	0.07207
1063.33082	0.07209
1062.04505	0.07209
1060.75928	0.07205
1059.47351	0.07200
1058.18774	0.07191
1056.90198	0.07176
1055.61621	0.07153
1054.33044	0.07127
1053.04467	0.07103
1051.75890	0.07082
1050.47313	0.07058
1049.18736	0.07030
1047.90159	0.07003
1046.61583	0.06983
1045.33006	0.06969
1044.04429	0.06953
1042.75852	0.06935
1041.47275	0.06923
1040.18698	0.06921
1038.90121	0.06926
1037.61544	0.06929
1036.32967	0.06926
1035.04391	0.06920
1033.75814	0.06917
1032.47237	0.06917
1031.18660	0.06915
1029.90083	0.06903
1028.61506	0.06875
1027.32929	0.06828
1026.04352	0.06764
1024.75775	0.06691
1023.47199	0.06620
1022.18622	0.06557
1020.90045	0.06503
1019.61468	0.06453
1018.32891	0.06406
1017.04314	0.06362
1015.75737	0.06322
1014.47160	0.06282
1013.18584	0.06241
1011.90007	0.06198
1010.61430	0.06151
1009.32853	0.06099
1008.04276	0.06042
1006.75699	0.05985
1005.47122	0.05926
1004.18545	0.05865
1002.89968	0.05803
1001.61392	0.05747
1000.32815	0.05699
999.04238	0.05656
997.75661	0.05615
996.47084	0.05576
995.18507	0.05534
993.89930	0.05489
992.61353	0.05442
991.32777	0.05395
990.04200	0.05353
988.75623	0.05317
987.47046	0.05286
986.18469	0.05259
984.89892	0.05231
983.61315	0.05198
982.32738	0.05163
981.04161	0.05136
979.75585	0.05126
978.47008	0.05132
977.18431	0.05146
975.89854	0.05154
974.61277	0.05152
973.32700	0.05141
972.04123	0.05124
970.75546	0.05101
969.46970	0.05068
968.18393	0.05028
966.89816	0.04984
965.61239	0.04946
964.32662	0.04917
963.04085	0.04899
961.75508	0.04891
960.46931	0.04888
959.18354	0.04880
957.89778	0.04862
956.61201	0.04836
955.32624	0.04812
954.04047	0.04795
952.75470	0.04783
951.46893	0.04773
950.18316	0.04765
948.89739	0.04760
947.61163	0.04753
946.32586	0.04742
945.04009	0.04731
943.75432	0.04728
942.46855	0.04735
941.18278	0.04741
939.89701	0.04736
938.61124	0.04723
937.32547	0.04707
936.03971	0.04695
934.75394	0.04689
933.46817	0.04690
932.18240	0.04694
930.89663	0.04690
929.61086	0.04674
928.32509	0.04654
927.03932	0.04638
925.75356	0.04630
924.46779	0.04625
923.18202	0.04618
921.89625	0.04604
920.61048	0.04588
919.32471	0.04571
918.03894	0.04551
916.75317	0.04526
915.46740	0.04495
914.18164	0.04460
912.89587	0.04426
911.61010	0.04400
910.32433	0.04391
909.03856	0.04397
907.75279	0.04406
906.46702	0.04402
905.18125	0.04382
903.89549	0.04352
902.60972	0.04323
901.32395	0.04296
900.03818	0.04270
898.75241	0.04245
897.46664	0.04223
896.18087	0.04202
894.89510	0.04183
893.60933	0.04164
892.32357	0.04147
891.03780	0.04135
889.75203	0.04129
888.46626	0.04123
887.18049	0.04112
885.89472	0.04094
884.60895	0.04079
883.32318	0.04075
882.03742	0.04080
880.75165	0.04084
879.46588	0.04084
878.18011	0.04084
876.89434	0.04085
875.60857	0.04083
874.32280	0.04068
873.03703	0.04041
871.75126	0.04013
870.46550	0.03994
869.17973	0.03987
867.89396	0.03985
866.60819	0.03982
865.32242	0.03979
864.03665	0.03975
862.75088	0.03969
861.46511	0.03959
860.17935	0.03945
858.89358	0.03933
857.60781	0.03928
856.32204	0.03930
855.03627	0.03938
853.75050	0.03946
852.46473	0.03949
851.17896	0.03950
849.89319	0.03949
848.60743	0.03944
847.32166	0.03930
846.03589	0.03913
844.75012	0.03902
843.46435	0.03899
842.17858	0.03899
840.89281	0.03895
839.60704	0.03887
838.32128	0.03879
837.03551	0.03874
835.74974	0.03875
834.46397	0.03880
833.17820	0.03887
831.89243	0.03891
830.60666	0.03888
829.32089	0.03882
828.03512	0.03881
826.74936	0.03887
825.46359	0.03899
824.17782	0.03909
822.89205	0.03918
821.60628	0.03933
820.32051	0.03957
819.03474	0.03983
817.74897	0.04000
816.46321	0.04005
815.17744	0.04002
813.89167	0.03999
812.60590	0.04002
811.32013	0.04013
810.03436	0.04027
808.74859	0.04038
807.46282	0.04047
806.17705	0.04060
804.89129	0.04076
803.60552	0.04094
802.31975	0.04111
801.03398	0.04127
799.74821	0.04141
798.46244	0.04147
797.17667	0.04146
795.89090	0.04143
794.60513	0.04142
793.31937	0.04148
792.03360	0.04163
790.74783	0.04186
789.46206	0.04214
788.17629	0.04238
786.89052	0.04253
785.60475	0.04255
784.31898	0.04250
783.03322	0.04245
781.74745	0.04246
780.46168	0.04256
779.17591	0.04272
777.89014	0.04291
776.60437	0.04308
775.31860	0.04327
774.03283	0.04349
772.74706	0.04373
771.46130	0.04391
770.17553	0.04397
768.88976	0.04395
767.60399	0.04397
766.31822	0.04412
765.03245	0.04440
763.74668	0.04472
762.46091	0.04499
761.17515	0.04516
759.88938	0.04520
758.60361	0.04514
757.31784	0.04510
756.03207	0.04516
754.74630	0.04534
753.46053	0.04557
752.17476	0.04579
750.88899	0.04601
749.60323	0.04629
748.31746	0.04660
747.03169	0.04694
745.74592	0.04723
744.46015	0.04745
743.17438	0.04758
741.88861	0.04763
740.60284	0.04765
739.31708	0.04766
738.03131	0.04773
736.74554	0.04791
735.45977	0.04817
734.17400	0.04846
732.88823	0.04871
731.60246	0.04889
730.31669	0.04904
729.03092	0.04922
727.74516	0.04947
726.45939	0.04974
725.17362	0.05000
723.88785	0.05018
722.60208	0.05044
721.31631	0.05073
720.03054	0.05099
718.74477	0.05124
717.45901	0.05149
716.17324	0.05173
714.88747	0.05191
713.60170	0.05202
712.31593	0.05211
711.03016	0.05221
709.74439	0.05235
708.45862	0.05257
707.17285	0.05289
705.88709	0.05330
704.60132	0.05374
703.31555	0.05412
702.02978	0.05439
700.74401	0.05457
699.45824	0.05472
698.17247	0.05487
696.88670	0.05501
695.60094	0.05513
694.31517	0.05520
693.02940	0.05520
691.74363	0.05514
690.45786	0.05508
689.17209	0.05507
687.88632	0.05512
686.60055	0.05522
685.31478	0.05534
684.02902	0.05547
682.74325	0.05561
681.45748	0.05574
680.17171	0.05583
678.88594	0.05592
677.60017	0.05606
676.31440	0.05627
675.02863	0.05648
673.74287	0.05662
672.45710	0.05672
671.17133	0.05683
669.88556	0.05701
668.59979	0.05722
667.31402	0.05733
666.02825	0.05744
664.74248	0.05749
663.45671	0.05751
662.17095	0.05755
660.88518	0.05764
659.59941	0.05781
658.31364	0.05801
657.02787	0.05820
655.74210	0.05834
654.45633	0.05846
653.17056	0.05857
651.88480	0.05868
650.59903	0.05878
649.31326	0.05887
648.02749	0.05893
646.74172	0.05895
645.45595	0.05895
644.17018	0.05895
642.88441	0.05895
641.59864	0.05895
640.31288	0.05896
639.02711	0.05898
637.74134	0.05901
636.45557	0.05907
635.16980	0.05913
633.88403	0.05921
632.59826	0.05929
631.31249	0.05929
630.02673	0.05880
628.74096	0.05797
627.45519	0.05826
626.16942	0.05704
624.88365	0.05475
623.59788	0.05248
622.31211	0.05079
621.02634	0.04999
619.74057	0.05042
618.45481	0.05222
617.16904	0.05480
615.88327	0.05704
614.59750	0.05823
613.31173	0.05863
612.02596	0.05882
610.74019	0.05890
609.45442	0.05866
608.16866	0.05811
606.88289	0.05758
605.59712	0.05735
604.31135	0.05746
603.02558	0.05776
601.73981	0.05805
600.45404	0.05825
599.16827	0.05846
597.88250	0.05875
596.59674	0.05907
595.31097	0.05938
594.02520	0.05965
592.73943	0.05987
591.45366	0.06003
590.16789	0.06010
588.88212	0.06010
587.59635	0.06006
586.31059	0.06001
585.02482	0.06002
583.73905	0.06013
582.45328	0.06033
581.16751	0.06054
579.88174	0.06067
578.59597	0.06067
577.31020	0.06059
576.02443	0.06051
574.73867	0.06049
573.45290	0.06047
572.16713	0.06041
570.88136	0.06029
569.59559	0.06019
568.30982	0.06019
567.02405	0.06036
565.73828	0.06066
564.45251	0.06091
563.16675	0.06097
561.88098	0.06082
560.59521	0.06058
559.30944	0.06044
558.02367	0.06050
556.73790	0.06076
555.45213	0.06110
554.16636	0.06140
552.88060	0.06155
551.59483	0.06159
550.30906	0.06158
549.02329	0.06160
547.73752	0.06165
546.45175	0.06169
545.16598	0.06167
543.88021	0.06152
542.59444	0.06123
541.30868	0.06085
540.02291	0.06054
538.73714	0.06045
537.45137	0.06061
536.16560	0.06088
534.87983	0.06108
533.59406	0.06112
532.30829	0.06101
531.02253	0.06081
529.73676	0.06066
528.45099	0.06064
527.16522	0.06075
525.87945	0.06087
524.59368	0.06089
523.30791	0.06079
522.02214	0.06068
520.73637	0.06063
519.45061	0.06059
518.16484	0.06051
516.87907	0.06037
515.59330	0.06026
514.30753	0.06020
513.02176	0.06014
511.73599	0.06001
510.45022	0.05979
509.16446	0.05955
507.87869	0.05929
506.59292	0.05901
505.30715	0.05871
504.02138	0.05842
502.73561	0.05819
501.44984	0.05807
500.16407	0.05802
498.87830	0.05798
497.59254	0.05789
496.30677	0.05774
495.02100	0.05755
493.73523	0.05737
492.44946	0.05715
491.16369	0.05683
489.87792	0.05642
488.59215	0.05603
487.30639	0.05577
486.02062	0.05565
484.73485	0.05564
483.44908	0.05567
482.16331	0.05569
480.87754	0.05567
479.59177	0.05561
478.30600	0.05553
477.02023	0.05541
475.73447	0.05522
474.44870	0.05494
473.16293	0.05459
471.87716	0.05424
470.59139	0.05391
469.30562	0.05364
468.01985	0.05345
466.73408	0.05338
465.44832	0.05338
464.16255	0.05333
462.87678	0.05313
461.59101	0.05278
460.30524	0.05239
459.01947	0.05202
457.73370	0.05173
456.44793	0.05149
455.16216	0.05127
453.87640	0.05105
452.59063	0.05084
451.30486	0.05067
450.01909	0.05049
448.73332	0.05028
447.44755	0.05001
446.16178	0.04971
444.87601	0.04944
443.59025	0.04926
442.30448	0.04917
441.01871	0.04909
439.73294	0.04895
438.44717	0.04868
437.16140	0.04836
435.87563	0.04807
434.58986	0.04787
433.30409	0.04772
432.01833	0.04758
430.73256	0.04745
429.44679	0.04734
428.16102	0.04724
426.87525	0.04713
425.58948	0.04700
424.30371	0.04684
423.01794	0.04666
421.73218	0.04645
420.44641	0.04623
419.16064	0.04603
417.87487	0.04588
416.58910	0.04577
415.30333	0.04567
414.01756	0.04554
412.73179	0.04540
411.44602	0.04524
410.16026	0.04505
408.87449	0.04480
407.58872	0.04451
406.30295	0.04422
405.01718	0.04401
403.73141	0.04388
402.44564	0.04382
401.15987	0.04376
399.87411	0.04368
