3997.45528	0.07612
3996.16951	0.07574
3994.88374	0.07545
3993.59798	0.07556
3992.31221	0.07625
3991.02644	0.07723
3989.74067	0.07799
3988.45490	0.07819
3987.16913	0.07787
3985.88336	0.07720
3984.59759	0.07641
3983.31183	0.07581
3982.02606	0.07568
3980.74029	0.07599
3979.45452	0.07630
3978.16875	0.07618
3976.88298	0.07565
3975.59721	0.07509
3974.31144	0.07481
3973.02567	0.07478
3971.73991	0.07476
3970.45414	0.07466
3969.16837	0.07462
3967.88260	0.07481
3966.59683	0.07523
3965.31106	0.07571
3964.02529	0.07604
3962.73952	0.07611
3961.45376	0.07592
3960.16799	0.07556
3958.88222	0.07532
3957.59645	0.07545
3956.31068	0.07591
3955.02491	0.07634
3953.73914	0.07637
3952.45337	0.07597
3951.16760	0.07538
3949.88184	0.07487
3948.59607	0.07457
3947.31030	0.07446
3946.02453	0.07447
3944.73876	0.07447
3943.45299	0.07435
3942.16722	0.07411
3940.88145	0.07386
3939.59569	0.07368
3938.30992	0.07360
3937.02415	0.07364
3935.73838	0.07376
3934.45261	0.07384
3933.16684	0.07382
3931.88107	0.07376
3930.59530	0.07368
3929.30953	0.07342
3928.02377	0.07277
3926.73800	0.07179
3925.45223	0.07090
3924.16646	0.07064
3922.88069	0.07117
3921.59492	0.07222
3920.30915	0.07318
3919.02338	0.07350
3917.73762	0.07301
3916.45185	0.07211
3915.16608	0.07140
3913.88031	0.07118
3912.59454	0.07123
3911.30877	0.07127
3910.02300	0.07140
3908.73723	0.07187
3907.45146	0.07256
3906.16570	0.07308
3904.87993	0.07322
3903.59416	0.07314
3902.30839	0.07304
3901.02262	0.07286
3899.73685	0.07246
3898.45108	0.07182
3897.16531	0.07113
3895.87955	0.07069
3894.59378	0.07064
3893.30801	0.07093
3892.02224	0.07136
3890.73647	0.07175
3889.45070	0.07199
3888.16493	0.07190
3886.87916	0.07144
3885.59339	0.07080
3884.30763	0.07036
3883.02186	0.07033
3881.73609	0.07059
3880.45032	0.07083
3879.16455	0.07089
3877.87878	0.07081
3876.59301	0.07078
3875.30724	0.07093
3874.02148	0.07120
3872.73571	0.07138
3871.44994	0.07147
3870.16417	0.07167
3868.87840	0.07206
3867.59263	0.07232
3866.30686	0.07211
3865.02109	0.07151
3863.73532	0.07103
3862.44956	0.07102
3861.16379	0.07135
3859.87802	0.07157
3858.59225	0.07141
3857.30648	0.07091
3856.02071	0.07029
3854.73494	0.06974
3853.44917	0.06941
3852.16341	0.06942
3850.87764	0.06976
3849.59187	0.07018
3848.30610	0.07043
3847.02033	0.07043
3845.73456	0.07031
3844.44879	0.07012
3843.16302	0.06979
3841.87725	0.06929
3840.59149	0.06884
3839.30572	0.06875
3838.01995	0.06907
3836.73418	0.06948
3835.44841	0.06959
3834.16264	0.06938
3832.87687	0.06918
3831.59110	0.06914
3830.30534	0.06903
3829.01957	0.06856
3827.73380	0.06782
3826.44803	0.06723
3825.16226	0.06720
3823.87649	0.06777
3822.59072	0.06859
3821.30495	0.06914
3820.01918	0.06913
3818.73342	0.06871
3817.44765	0.06833
3816.16188	0.06821
3814.87611	0.06827
3813.59034	0.06826
3812.30457	0.06810
3811.01880	0.06792
3809.73303	0.06789
3808.44726	0.06798
3807.16150	0.06806
3805.87573	0.06802
3804.58996	0.06788
3803.30419	0.06772
3802.01842	0.06766
3800.73265	0.06778
3799.44688	0.06803
3798.16111	0.06819
3796.87535	0.06805
3795.58958	0.06762
3794.30381	0.06715
3793.01804	0.06698
3791.73227	0.06720
3790.44650	0.06750
3789.16073	0.06752
3787.87496	0.06715
3786.58919	0.06662
3785.30343	0.06624
3784.01766	0.06614
3782.73189	0.06622
3781.44612	0.06631
3780.16035	0.06629
3778.87458	0.06621
3777.58881	0.06620
3776.30304	0.06629
3775.01728	0.06635
3773.73151	0.06623
3772.44574	0.06596
3771.15997	0.06567
3769.87420	0.06549
3768.58843	0.06546
3767.30266	0.06552
3766.01689	0.06554
3764.73112	0.06534
3763.44536	0.06476
3762.15959	0.06393
3760.87382	0.06323
3759.58805	0.06304
3758.30228	0.06327
3757.01651	0.06344
3755.73074	0.06319
3754.44497	0.06264
3753.15921	0.06227
3751.87344	0.06242
3750.58767	0.06303
3749.30190	0.06390
3748.01613	0.06486
3746.73036	0.06576
3745.44459	0.06628
3744.15882	0.06616
3742.87305	0.06543
3741.58729	0.06444
3740.30152	0.06364
3739.01575	0.06320
3737.72998	0.06302
3736.44421	0.06287
3735.15844	0.06257
3733.87267	0.06221
3732.58690	0.06211
3731.30114	0.06249
3730.01537	0.06328
3728.72960	0.06405
3727.44383	0.06433
3726.15806	0.06390
3724.87229	0.06293
3723.58652	0.06178
3722.30075	0.06078
3721.01498	0.06015
3719.72922	0.06000
3718.44345	0.06026
3717.15768	0.06072
3715.87191	0.06108
3714.58614	0.06106
3713.30037	0.06052
3712.01460	0.05963
3710.72883	0.05881
3709.44307	0.05846
3708.15730	0.05873
3706.87153	0.05946
3705.58576	0.06035
3704.29999	0.06115
3703.01422	0.06168
3701.72845	0.06193
3700.44268	0.06197
3699.15691	0.06194
3697.87115	0.06196
3696.58538	0.06216
3695.29961	0.06250
3694.01384	0.06274
3692.72807	0.06255
3691.44230	0.06186
3690.15653	0.06103
3688.87076	0.06045
3687.58500	0.06018
3686.29923	0.05991
3685.01346	0.05948
3683.72769	0.05922
3682.44192	0.05953
3681.15615	0.06038
3679.87038	0.06125
3678.58461	0.06165
3677.29884	0.06157
3676.01308	0.06135
3674.72731	0.06128
3673.44154	0.06148
3672.15577	0.06185
3670.87000	0.06225
3669.58423	0.06252
3668.29846	0.06254
3667.01269	0.06231
3665.72693	0.06189
3664.44116	0.06142
3663.15539	0.06107
3661.86962	0.06091
3660.58385	0.06084
3659.29808	0.06075
3658.01231	0.06066
3656.72654	0.06069
3655.44077	0.06090
3654.15501	0.06120
3652.86924	0.06157
3651.58347	0.06209
3650.29770	0.06276
3649.01193	0.06333
3647.72616	0.06347
3646.44039	0.06316
3645.15462	0.06271
3643.86886	0.06249
3642.58309	0.06263
3641.29732	0.06305
3640.01155	0.06358
3638.72578	0.06415
3637.44001	0.06478
3636.15424	0.06542
3634.86847	0.06585
3633.58270	0.06577
3632.29694	0.06507
3631.01117	0.06421
3629.72540	0.06391
3628.43963	0.06453
3627.15386	0.06580
3625.86809	0.06706
3624.58232	0.06785
3623.29655	0.06820
3622.01079	0.06842
3620.72502	0.06877
3619.43925	0.06921
3618.15348	0.06944
3616.86771	0.06919
3615.58194	0.06853
3614.29617	0.06788
3613.01040	0.06770
3611.72463	0.06808
3610.43887	0.06885
3609.15310	0.06983
3607.86733	0.07101
3606.58156	0.07229
3605.29579	0.07342
3604.01002	0.07417
3602.72425	0.07457
3601.43848	0.07474
3600.15272	0.07471
3598.86695	0.07451
3597.58118	0.07433
3596.29541	0.07439
3595.00964	0.07471
3593.72387	0.07507
3592.43810	0.07537
3591.15233	0.07579
3589.86656	0.07655
3588.58080	0.07754
3587.29503	0.07838
3586.00926	0.07872
3584.72349	0.07861
3583.43772	0.07843
3582.15195	0.07863
3580.86618	0.07942
3579.58041	0.08061
3578.29464	0.08183
3577.00888	0.08271
3575.72311	0.08316
3574.43734	0.08337
3573.15157	0.08363
3571.86580	0.08414
3570.58003	0.08482
3569.29426	0.08543
3568.00849	0.08585
3566.72273	0.08621
3565.43696	0.08671
3564.15119	0.08725
3562.86542	0.08756
3561.57965	0.08744
3560.29388	0.08704
3559.00811	0.08676
3557.72234	0.08697
3556.43657	0.08768
3555.15081	0.08853
3553.86504	0.08915
3552.57927	0.08946
3551.29350	0.08970
3550.00773	0.09008
3548.72196	0.09059
3547.43619	0.09110
3546.15042	0.09149
3544.86466	0.09181
3543.57889	0.09223
3542.29312	0.09283
3541.00735	0.09359
3539.72158	0.09435
3538.43581	0.09503
3537.15004	0.09560
3535.86427	0.09607
3534.57850	0.09647
3533.29274	0.09683
3532.00697	0.09717
3530.72120	0.09754
3529.43543	0.09801
3528.14966	0.09856
3526.86389	0.09914
3525.57812	0.09970
3524.29235	0.10023
3523.00659	0.10068
3521.72082	0.10094
3520.43505	0.10101
3519.14928	0.10117
3517.86351	0.10175
3516.57774	0.10272
3515.29197	0.10367
3514.00620	0.10419
3512.72043	0.10430
3511.43467	0.10436
3510.14890	0.10465
3508.86313	0.10513
3507.57736	0.10563
3506.29159	0.10600
3505.00582	0.10628
3503.72005	0.10660
3502.43428	0.10706
3501.14852	0.10764
3499.86275	0.10817
3498.57698	0.10850
3497.29121	0.10869
3496.00544	0.10899
3494.71967	0.10958
3493.43390	0.11038
3492.14813	0.11113
3490.86236	0.11164
3489.57660	0.11187
3488.29083	0.11183
3487.00506	0.11165
3485.71929	0.11155
3484.43352	0.11179
3483.14775	0.11240
3481.86198	0.11309
3480.57621	0.11353
3479.29045	0.11360
3478.00468	0.11348
3476.71891	0.11344
3475.43314	0.11366
3474.14737	0.11408
3472.86160	0.11448
3471.57583	0.11472
3470.29006	0.11490
3469.00429	0.11520
3467.71853	0.11573
3466.43276	0.11641
3465.14699	0.11711
3463.86122	0.11768
3462.57545	0.11807
3461.28968	0.11826
3460.00391	0.11835
3458.71814	0.11855
3457.43238	0.11900
3456.14661	0.11967
3454.86084	0.12037
3453.57507	0.12096
3452.28930	0.12139
3451.00353	0.12173
3449.71776	0.12205
3448.43199	0.12236
3447.14622	0.12266
3445.86046	0.12287
3444.57469	0.12301
3443.28892	0.12315
3442.00315	0.12339
3440.71738	0.12372
3439.43161	0.12400
3438.14584	0.12411
3436.86007	0.12412
3435.57431	0.12419
3434.28854	0.12450
3433.00277	0.12512
3431.71700	0.12600
3430.43123	0.12692
3429.14546	0.12753
3427.85969	0.12764
3426.57392	0.12746
3425.28815	0.12742
3424.00239	0.12775
3422.71662	0.12832
3421.43085	0.12891
3420.14508	0.12940
3418.85931	0.12976
3417.57354	0.12997
3416.28777	0.13005
3415.00200	0.13021
3413.71624	0.13062
3412.43047	0.13130
3411.14470	0.13208
3409.85893	0.13283
3408.57316	0.13351
3407.28739	0.13417
3406.00162	0.13490
3404.71585	0.13576
3403.43008	0.13664
3402.14432	0.13732
3400.85855	0.13760
3399.57278	0.13754
3398.28701	0.13730
3397.00124	0.13709
3395.71547	0.13702
3394.42970	0.13724
3393.14393	0.13785
3391.85817	0.13874
3390.57240	0.13960
3389.28663	0.14006
3388.00086	0.14014
3386.71509	0.14020
3385.42932	0.14053
3384.14355	0.14111
3382.85778	0.14163
3381.57201	0.14198
3380.28625	0.14231
3379.00048	0.14282
3377.71471	0.14350
3376.42894	0.14415
3375.14317	0.14467
3373.85740	0.14512
3372.57163	0.14559
3371.28586	0.14607
3370.00010	0.14648
3368.71433	0.14680
3367.42856	0.14722
3366.14279	0.14795
3364.85702	0.14900
3363.57125	0.15016
3362.28548	0.15123
3360.99971	0.15222
3359.71394	0.15326
3358.42818	0.15435
3357.14241	0.15525
3355.85664	0.15582
3354.57087	0.15620
3353.28510	0.15666
3351.99933	0.15726
3350.71356	0.15780
3349.42779	0.15817
3348.14202	0.15852
3346.85626	0.15905
3345.57049	0.15978
3344.28472	0.16051
3342.99895	0.16113
3341.71318	0.16165
3340.42741	0.16219
3339.14164	0.16289
3337.85587	0.16375
3336.57011	0.16473
3335.28434	0.16572
3333.99857	0.16662
3332.71280	0.16734
3331.42703	0.16783
3330.14126	0.16810
3328.85549	0.16827
3327.56972	0.16851
3326.28395	0.16891
3324.99819	0.16946
3323.71242	0.17006
3322.42665	0.17063
3321.14088	0.17111
3319.85511	0.17152
3318.56934	0.17198
3317.28357	0.17258
3315.99780	0.17326
3314.71204	0.17390
3313.42627	0.17448
3312.14050	0.17509
3310.85473	0.17587
3309.56896	0.17678
3308.28319	0.17765
3306.99742	0.17833
3305.71165	0.17879
3304.42588	0.17918
3303.14012	0.17961
3301.85435	0.18010
3300.56858	0.18050
3299.28281	0.18069
3297.99704	0.18067
3296.71127	0.18062
3295.42550	0.18066
3294.13973	0.18082
3292.85397	0.18111
3291.56820	0.18154
3290.28243	0.18197
3288.99666	0.18219
3287.71089	0.18217
3286.42512	0.18211
3285.13935	0.18224
3283.85358	0.18257
3282.56781	0.18290
3281.28205	0.18304
3279.99628	0.18295
3278.71051	0.18273
3277.42474	0.18258
3276.13897	0.18255
3274.85320	0.18252
3273.56743	0.18229
3272.28166	0.18186
3270.99590	0.18137
3269.71013	0.18090
3268.42436	0.18038
3267.13859	0.17976
3265.85282	0.17914
3264.56705	0.17869
3263.28128	0.17836
3261.99551	0.17794
3260.70974	0.17731
3259.42398	0.17655
3258.13821	0.17582
3256.85244	0.17518
3255.56667	0.17461
3254.28090	0.17399
3252.99513	0.17325
3251.70936	0.17247
3250.42359	0.17186
3249.13783	0.17155
3247.85206	0.17137
3246.56629	0.17099
3245.28052	0.17026
3243.99475	0.16937
3242.70898	0.16861
3241.42321	0.16814
3240.13744	0.16793
3238.85167	0.16785
3237.56591	0.16778
3236.28014	0.16761
3234.99437	0.16732
3233.70860	0.16695
3232.42283	0.16654
3231.13706	0.16603
3229.85129	0.16537
3228.56552	0.16464
3227.27976	0.16393
3225.99399	0.16325
3224.70822	0.16260
3223.42245	0.16216
3222.13668	0.16210
3220.85091	0.16229
3219.56514	0.16236
3218.27937	0.16205
3216.99360	0.16142
3215.70784	0.16078
3214.42207	0.16034
3213.13630	0.16009
3211.85053	0.15983
3210.56476	0.15941
3209.27899	0.15885
3207.99322	0.15835
3206.70745	0.15804
3205.42169	0.15788
3204.13592	0.15770
3202.85015	0.15735
3201.56438	0.15680
3200.27861	0.15609
3198.99284	0.15534
3197.70707	0.15468
3196.42130	0.15428
3195.13553	0.15413
3193.84977	0.15411
3192.56400	0.15399
3191.27823	0.15359
3189.99246	0.15289
3188.70669	0.15206
3187.42092	0.15141
3186.13515	0.15110
3184.84938	0.15101
3183.56362	0.15073
3182.27785	0.15004
3180.99208	0.14907
3179.70631	0.14817
3178.42054	0.14751
3177.13477	0.14694
3175.84900	0.14621
3174.56323	0.14532
3173.27746	0.14444
3171.99170	0.14378
3170.70593	0.14338
3169.42016	0.14318
3168.13439	0.14300
3166.84862	0.14269
3165.56285	0.14217
3164.27708	0.14155
3162.99131	0.14104
3161.70555	0.14078
3160.41978	0.14067
3159.13401	0.14047
3157.84824	0.13998
3156.56247	0.13917
3155.27670	0.13822
3153.99093	0.13730
3152.70516	0.13657
3151.41939	0.13604
3150.13363	0.13564
3148.84786	0.13523
3147.56209	0.13463
3146.27632	0.13385
3144.99055	0.13309
3143.70478	0.13254
3142.41901	0.13215
3141.13324	0.13167
3139.84748	0.13100
3138.56171	0.13023
3137.27594	0.12960
3135.99017	0.12925
3134.70440	0.12916
3133.41863	0.12919
3132.13286	0.12912
3130.84709	0.12882
3129.56132	0.12834
3128.27556	0.12793
3126.98979	0.12776
3125.70402	0.12779
3124.41825	0.12779
3123.13248	0.12762
3121.84671	0.12728
3120.56094	0.12686
3119.27517	0.12646
3117.98940	0.12611
3116.70364	0.12589
3115.41787	0.12587
3114.13210	0.12604
3112.84633	0.12630
3111.56056	0.12655
3110.27479	0.12666
3108.98902	0.12655
3107.70325	0.12617
3106.41749	0.12564
3105.13172	0.12522
3103.84595	0.12516
3102.56018	0.12550
3101.27441	0.12608
3099.98864	0.12664
3098.70287	0.12704
3097.41710	0.12728
3096.13133	0.12740
3094.84557	0.12740
3093.55980	0.12733
3092.27403	0.12722
3090.98826	0.12711
3089.70249	0.12701
3088.41672	0.12690
3087.13095	0.12683
3085.84518	0.12681
3084.55942	0.12683
3083.27365	0.12694
3081.98788	0.12721
3080.70211	0.12767
3079.41634	0.12823
3078.13057	0.12867
3076.84480	0.12883
3075.55903	0.12867
3074.27326	0.12833
3072.98750	0.12800
3071.70173	0.12778
3070.41596	0.12764
3069.13019	0.12753
3067.84442	0.12750
3066.55865	0.12760
3065.27288	0.12776
3063.98711	0.12780
3062.70135	0.12757
3061.41558	0.12709
3060.12981	0.12646
3058.84404	0.12578
3057.55827	0.12509
3056.27250	0.12444
3054.98673	0.12399
3053.70096	0.12388
3052.41519	0.12404
3051.12943	0.12418
3049.84366	0.12397
3048.55789	0.12332
3047.27212	0.12249
3045.98635	0.12183
3044.70058	0.12155
3043.41481	0.12154
3042.12904	0.12151
3040.84328	0.12120
3039.55751	0.12054
3038.27174	0.11973
3036.98597	0.11901
3035.70020	0.11846
3034.41443	0.11795
3033.12866	0.11735
3031.84289	0.11671
3030.55712	0.11618
3029.27136	0.11584
3027.98559	0.11561
3026.69982	0.11536
3025.41405	0.11500
3024.12828	0.11458
3022.84251	0.11419
3021.55674	0.11382
3020.27097	0.11342
3018.98521	0.11291
3017.69944	0.11233
3016.41367	0.11178
3015.12790	0.11138
3013.84213	0.11123
3012.55636	0.11127
3011.27059	0.11137
3009.98482	0.11138
3008.69905	0.11129
3007.41329	0.11111
3006.12752	0.11076
3004.84175	0.11021
3003.55598	0.10957
3002.27021	0.10909
3000.98444	0.10898
2999.69867	0.10926
2998.41290	0.10976
2997.12714	0.11019
2995.84137	0.11034
2994.55560	0.11024
2993.26983	0.11008
2991.98406	0.11004
2990.69829	0.11022
2989.41252	0.11066
2988.12675	0.11131
2986.84098	0.11204
2985.55522	0.11268
2984.26945	0.11315
2982.98368	0.11352
2981.69791	0.11393
2980.41214	0.11448
2979.12637	0.11515
2977.84060	0.11586
2976.55483	0.11653
2975.26907	0.11711
2973.98330	0.11759
2972.69753	0.11801
2971.41176	0.11850
2970.12599	0.11920
2968.84022	0.12009
2967.55445	0.12100
2966.26868	0.12181
2964.98291	0.12249
2963.69715	0.12310
2962.41138	0.12361
2961.12561	0.12404
2959.83984	0.12441
2958.55407	0.12475
2957.26830	0.12498
2955.98253	0.12508
2954.69676	0.12512
2953.41100	0.12520
2952.12523	0.12530
2950.83946	0.12537
2949.55369	0.12542
2948.26792	0.12556
2946.98215	0.12581
2945.69638	0.12610
2944.41061	0.12636
2943.12484	0.12663
2941.83908	0.12697
2940.55331	0.12743
2939.26754	0.12802
2937.98177	0.12868
2936.69600	0.12931
2935.41023	0.12981
2934.12446	0.13016
2932.83869	0.13044
2931.55293	0.13075
2930.26716	0.13120
2928.98139	0.13174
2927.69562	0.13221
2926.40985	0.13245
2925.12408	0.13239
2923.83831	0.13212
2922.55254	0.13171
2921.26677	0.13118
2919.98101	0.13049
2918.69524	0.12965
2917.40947	0.12865
2916.12370	0.12751
2914.83793	0.12634
2913.55216	0.12531
2912.26639	0.12448
2910.98062	0.12375
2909.69486	0.12295
2908.40909	0.12202
2907.12332	0.12107
2905.83755	0.12023
2904.55178	0.11949
2903.26601	0.11882
2901.98024	0.11814
2900.69447	0.11742
2899.40870	0.11665
2898.12294	0.11594
2896.83717	0.11548
2895.55140	0.11532
2894.26563	0.11527
2892.97986	0.11505
2891.69409	0.11460
2890.40832	0.11407
2889.12255	0.11364
2887.83678	0.11335
2886.55102	0.11318
2885.26525	0.11315
2883.97948	0.11322
2882.69371	0.11333
2881.40794	0.11341
2880.12217	0.11343
2878.83640	0.11343
2877.55063	0.11346
2876.26487	0.11358
2874.97910	0.11374
2873.69333	0.11374
2872.40756	0.11346
2871.12179	0.11297
2869.83602	0.11245
2868.55025	0.11204
2867.26448	0.11169
2865.97871	0.11130
2864.69295	0.11085
2863.40718	0.11044
2862.12141	0.11022
2860.83564	0.11021
2859.54987	0.11030
2858.26410	0.11040
2856.97833	0.11049
2855.69256	0.11056
2854.40680	0.11056
2853.12103	0.11046
2851.83526	0.11023
2850.54949	0.10980
2849.26372	0.10905
2847.97795	0.10798
2846.69218	0.10676
2845.40641	0.10562
2844.12064	0.10471
2842.83488	0.10401
2841.54911	0.10335
2840.26334	0.10262
2838.97757	0.10176
2837.69180	0.10082
2836.40603	0.09992
2835.12026	0.09922
2833.83449	0.09878
2832.54873	0.09852
2831.26296	0.09830
2829.97719	0.09809
2828.69142	0.09790
2827.40565	0.09771
2826.11988	0.09747
2824.83411	0.09719
2823.54834	0.09690
2822.26257	0.09663
2820.97681	0.09632
2819.69104	0.09594
2818.40527	0.09554
2817.11950	0.09521
2815.83373	0.09494
2814.54796	0.09462
2813.26219	0.09424
2811.97642	0.09389
2810.69066	0.09366
2809.40489	0.09352
2808.11912	0.09340
2806.83335	0.09321
2805.54758	0.09292
2804.26181	0.09256
2802.97604	0.09221
2801.69027	0.09196
2800.40450	0.09182
2799.11874	0.09172
2797.83297	0.09154
2796.54720	0.09125
2795.26143	0.09093
2793.97566	0.09066
2792.68989	0.09049
2791.40412	0.09036
2790.11835	0.09018
2788.83259	0.08989
2787.54682	0.08949
2786.26105	0.08914
2784.97528	0.08899
2783.68951	0.08911
2782.40374	0.08936
2781.11797	0.08953
2779.83220	0.08947
2778.54643	0.08921
2777.26067	0.08891
2775.97490	0.08870
2774.68913	0.08856
2773.40336	0.08831
2772.11759	0.08788
2770.83182	0.08739
2769.54605	0.08705
2768.26028	0.08690
2766.97452	0.08683
2765.68875	0.08672
2764.40298	0.08648
2763.11721	0.08618
2761.83144	0.08589
2760.54567	0.08571
2759.25990	0.08565
2757.97413	0.08562
2756.68836	0.08552
2755.40260	0.08538
2754.11683	0.08524
2752.83106	0.08514
2751.54529	0.08506
2750.25952	0.08498
2748.97375	0.08489
2747.68798	0.08479
2746.40221	0.08468
2745.11645	0.08456
2743.83068	0.08444
2742.54491	0.08434
2741.25914	0.08424
2739.97337	0.08407
2738.68760	0.08375
2737.40183	0.08328
2736.11606	0.08282
2734.83029	0.08250
2733.54453	0.08235
2732.25876	0.08227
2730.97299	0.08217
2729.68722	0.08202
2728.40145	0.08184
2727.11568	0.08166
2725.82991	0.08153
2724.54414	0.08144
2723.25838	0.08134
2721.97261	0.08114
2720.68684	0.08090
2719.40107	0.08072
2718.11530	0.08062
2716.82953	0.08056
2715.54376	0.08047
2714.25799	0.08031
2712.97222	0.08010
2711.68646	0.07986
2710.40069	0.07963
2709.11492	0.07946
2707.82915	0.07936
2706.54338	0.07931
2705.25761	0.07929
2703.97184	0.07928
2702.68607	0.07926
2701.40031	0.07919
2700.11454	0.07908
2698.82877	0.07891
2697.54300	0.07871
2696.25723	0.07855
2694.97146	0.07848
2693.68569	0.07847
2692.39992	0.07845
2691.11415	0.07833
2689.82839	0.07812
2688.54262	0.07790
2687.25685	0.07772
2685.97108	0.07763
2684.68531	0.07758
2683.39954	0.07747
2682.11377	0.07728
2680.82800	0.07707
2679.54224	0.07698
2678.25647	0.07706
2676.97070	0.07723
2675.68493	0.07738
2674.39916	0.07741
2673.11339	0.07732
2671.82762	0.07717
2670.54185	0.07702
2669.25608	0.07691
2667.97032	0.07682
2666.68455	0.07671
2665.39878	0.07658
2664.11301	0.07648
2662.82724	0.07648
2661.54147	0.07658
2660.25570	0.07668
2658.96993	0.07664
2657.68417	0.07643
2656.39840	0.07612
2655.11263	0.07581
2653.82686	0.07552
2652.54109	0.07528
2651.25532	0.07515
2649.96955	0.07510
2648.68378	0.07497
2647.39801	0.07466
2646.11225	0.07420
2644.82648	0.07376
2643.54071	0.07339
2642.25494	0.07301
2640.96917	0.07253
2639.68340	0.07204
2638.39763	0.07168
2637.11186	0.07148
2635.82609	0.07136
2634.54033	0.07128
2633.25456	0.07122
2631.96879	0.07119
2630.68302	0.07117
2629.39725	0.07111
2628.11148	0.07098
2626.82571	0.07071
2625.53994	0.07030
2624.25418	0.06980
2622.96841	0.06932
2621.68264	0.06899
2620.39687	0.06883
2619.11110	0.06875
2617.82533	0.06865
2616.53956	0.06849
2615.25379	0.06830
2613.96802	0.06806
2612.68226	0.06777
2611.39649	0.06743
2610.11072	0.06711
2608.82495	0.06681
2607.53918	0.06655
2606.25341	0.06632
2604.96764	0.06608
2603.68187	0.06577
2602.39611	0.06542
2601.11034	0.06519
2599.82457	0.06519
2598.53880	0.06533
2597.25303	0.06546
2595.96726	0.06550
2594.68149	0.06545
2593.39572	0.06535
2592.10995	0.06531
2590.82419	0.06539
2589.53842	0.06551
2588.25265	0.06541
2586.96688	0.06493
2585.68111	0.06428
2584.39534	0.06379
2583.10957	0.06357
2581.82380	0.06345
2580.53804	0.06336
2579.25227	0.06336
2577.96650	0.06353
2576.68073	0.06384
2575.39496	0.06412
2574.10919	0.06413
2572.82342	0.06372
2571.53765	0.06300
2570.25188	0.06225
2568.96612	0.06177
2567.68035	0.06160
2566.39458	0.06161
2565.10881	0.06165
2563.82304	0.06169
2562.53727	0.06174
2561.25150	0.06180
2559.96573	0.06177
2558.67997	0.06148
2557.39420	0.06099
2556.10843	0.06055
2554.82266	0.06038
2553.53689	0.06040
2552.25112	0.06034
2550.96535	0.06001
2549.67958	0.05953
2548.39381	0.05910
2547.10805	0.05889
2545.82228	0.05895
2544.53651	0.05924
2543.25074	0.05961
2541.96497	0.05981
2540.67920	0.05972
2539.39343	0.05942
2538.10766	0.05907
2536.82190	0.05872
2535.53613	0.05834
2534.25036	0.05800
2532.96459	0.05780
2531.67882	0.05774
2530.39305	0.05772
2529.10728	0.05770
2527.82151	0.05777
2526.53574	0.05806
2525.24998	0.05853
2523.96421	0.05892
2522.67844	0.05898
2521.39267	0.05867
2520.10690	0.05820
2518.82113	0.05783
2517.53536	0.05768
2516.24959	0.05772
2514.96383	0.05779
2513.67806	0.05773
2512.39229	0.05749
2511.10652	0.05716
2509.82075	0.05684
2508.53498	0.05658
2507.24921	0.05644
2505.96344	0.05649
2504.67767	0.05664
2503.39191	0.05673
2502.10614	0.05668
2500.82037	0.05664
2499.53460	0.05681
2498.24883	0.05713
2496.96306	0.05729
2495.67729	0.05705
2494.39152	0.05651
2493.10576	0.05594
2491.81999	0.05554
2490.53422	0.05532
2489.24845	0.05522
2487.96268	0.05516
2486.67691	0.05504
2485.39114	0.05482
2484.10537	0.05454
2482.81960	0.05435
2481.53384	0.05436
2480.24807	0.05460
2478.96230	0.05497
2477.67653	0.05532
2476.39076	0.05545
2475.10499	0.05528
2473.81922	0.05501
2472.53345	0.05495
2471.24769	0.05525
2469.96192	0.05565
2468.67615	0.05575
2467.39038	0.05547
2466.10461	0.05514
2464.81884	0.05509
2463.53307	0.05519
2462.24730	0.05504
2460.96153	0.05443
2459.67577	0.05364
2458.39000	0.05317
2457.10423	0.05328
2455.81846	0.05376
2454.53269	0.05423
2453.24692	0.05447
2451.96115	0.05448
2450.67538	0.05434
2449.38962	0.05410
2448.10385	0.05378
2446.81808	0.05342
2445.53231	0.05310
2444.24654	0.05290
2442.96077	0.05291
2441.67500	0.05314
2440.38923	0.05346
2439.10346	0.05364
2437.81770	0.05360
2436.53193	0.05338
2435.24616	0.05310
2433.96039	0.05287
2432.67462	0.05271
2431.38885	0.05263
2430.10308	0.05268
2428.81731	0.05285
2427.53155	0.05305
2426.24578	0.05317
2424.96001	0.05316
2423.67424	0.05306
2422.38847	0.05292
2421.10270	0.05276
2419.81693	0.05260
2418.53116	0.05246
2417.24539	0.05236
2415.95963	0.05233
2414.67386	0.05236
2413.38809	0.05234
2412.10232	0.05221
2410.81655	0.05199
2409.53078	0.05172
2408.24501	0.05147
2406.95924	0.05124
2405.67347	0.05108
2404.38771	0.05102
2403.10194	0.05108
2401.81617	0.05125
2400.53040	0.05143
2399.24463	0.05138
2397.95886	0.05122
2396.67309	0.05107
2395.38732	0.05105
2394.10156	0.05112
2392.81579	0.05113
2391.53002	0.05108
2390.24425	0.05108
2388.95848	0.05119
2387.67271	0.05130
2386.38694	0.05128
2385.10117	0.05121
2383.81540	0.05131
2382.52964	0.05161
2381.24387	0.05196
2379.95810	0.05216
2378.67233	0.05219
2377.38656	0.05213
2376.10079	0.05206
2374.81502	0.05199
2373.52925	0.05195
2372.24349	0.05195
2370.95772	0.05199
2369.67195	0.05206
2368.38618	0.05216
2367.10041	0.05230
2365.81464	0.05248
2364.52887	0.05268
2363.24310	0.05285
2361.95733	0.05295
2360.67157	0.05296
2359.38580	0.05287
2358.10003	0.05273
2356.81426	0.05259
2355.52849	0.05246
2354.24272	0.05232
2352.95695	0.05219
2351.67118	0.05211
2350.38542	0.05213
2349.09965	0.05227
2347.81388	0.05250
2346.52811	0.05272
2345.24234	0.05283
2343.95657	0.05282
2342.67080	0.05273
2341.38503	0.05273
2340.09926	0.05280
2338.81350	0.05282
2337.52773	0.05272
2336.24196	0.05257
2334.95619	0.05239
2333.67042	0.05225
2332.38465	0.05212
2331.09888	0.05203
2329.81311	0.05190
2328.52735	0.05191
2327.24158	0.05223
2325.95581	0.05271
2324.67004	0.05307
2323.38427	0.05306
2322.09850	0.05272
2320.81273	0.05225
2319.52696	0.05181
2318.24119	0.05140
2316.95543	0.05096
2315.66966	0.05048
2314.38389	0.05000
2313.09812	0.04955
2311.81235	0.04917
2310.52658	0.04890
2309.24081	0.04878
2307.95504	0.04877
2306.66928	0.04881
2305.38351	0.04880
2304.09774	0.04870
2302.81197	0.04847
2301.52620	0.04808
2300.24043	0.04755
2298.95466	0.04704
2297.66889	0.04673
2296.38312	0.04665
2295.09736	0.04664
2293.81159	0.04651
2292.52582	0.04624
2291.24005	0.04593
2289.95428	0.04567
2288.66851	0.04548
2287.38274	0.04535
2286.09697	0.04526
2284.81121	0.04512
2283.52544	0.04476
2282.23967	0.04421
2280.95390	0.04369
2279.66813	0.04350
2278.38236	0.04371
2277.09659	0.04406
2275.81082	0.04416
2274.52505	0.04380
2273.23929	0.04314
2271.95352	0.04255
2270.66775	0.04218
2269.38198	0.04184
2268.09621	0.04121
2266.81044	0.04030
2265.52467	0.03949
2264.23890	0.03917
2262.95314	0.03938
2261.66737	0.03986
2260.38160	0.04023
2259.09583	0.04035
2257.81006	0.04027
2256.52429	0.04008
2255.23852	0.03976
2253.95275	0.03927
2252.66698	0.03868
2251.38122	0.03821
2250.09545	0.03815
2248.80968	0.03856
2247.52391	0.03893
2246.23814	0.03907
2244.95237	0.03877
2243.66660	0.03805
2242.38083	0.03732
2241.09507	0.03702
2239.80930	0.03735
2238.52353	0.03804
2237.23776	0.03848
2235.95199	0.03829
2234.66622	0.03762
2233.38045	0.03702
2232.09468	0.03687
2230.80891	0.03703
2229.52315	0.03708
2228.23738	0.03682
2226.95161	0.03635
2225.66584	0.03572
2224.38007	0.03488
2223.09430	0.03403
2221.80853	0.03363
2220.52276	0.03383
2219.23700	0.03409
2217.95123	0.03382
2216.66546	0.03312
2215.37969	0.03258
2214.09392	0.03264
2212.80815	0.03316
2211.52238	0.03378
2210.23661	0.03425
2208.95084	0.03443
2207.66508	0.03431
2206.37931	0.03404
2205.09354	0.03390
2203.80777	0.03394
2202.52200	0.03386
2201.23623	0.03323
2199.95046	0.03206
2198.66469	0.03085
2197.37893	0.03010
2196.09316	0.02991
2194.80739	0.03006
2193.52162	0.03036
2192.23585	0.03074
2190.95008	0.03110
2189.66431	0.03119
2188.37854	0.03077
2187.09277	0.02981
2185.80701	0.02861
2184.52124	0.02769
2183.23547	0.02748
2181.94970	0.02808
2180.66393	0.02914
2179.37816	0.02999
2178.09239	0.03006
2176.80662	0.02939
2175.52085	0.02849
2174.23509	0.02783
2172.94932	0.02739
2171.66355	0.02682
2170.37778	0.02592
2169.09201	0.02485
2167.80624	0.02393
2166.52047	0.02327
2165.23470	0.02260
2163.94894	0.02172
2162.66317	0.02102
2161.37740	0.02113
2160.09163	0.02209
2158.80586	0.02306
2157.52009	0.02329
2156.23432	0.02301
2154.94855	0.02304
2153.66278	0.02367
2152.37702	0.02448
2151.09125	0.02498
2149.80548	0.02512
2148.51971	0.02525
2147.23394	0.02560
2145.94817	0.02609
2144.66240	0.02648
2143.37663	0.02675
2142.09087	0.02701
2140.80510	0.02729
2139.51933	0.02758
2138.23356	0.02790
2136.94779	0.02830
2135.66202	0.02878
2134.37625	0.02927
2133.09048	0.02969
2131.80471	0.03002
2130.51895	0.03031
2129.23318	0.03061
2127.94741	0.03097
2126.66164	0.03144
2125.37587	0.03197
2124.09010	0.03243
2122.80433	0.03271
2121.51856	0.03289
2120.23280	0.03319
2118.94703	0.03367
2117.66126	0.03409
2116.37549	0.03423
2115.08972	0.03403
2113.80395	0.03358
2112.51818	0.03298
2111.23241	0.03231
2109.94664	0.03178
2108.66088	0.03162
2107.37511	0.03188
2106.08934	0.03235
2104.80357	0.03271
2103.51780	0.03288
2102.23203	0.03301
2100.94626	0.03317
2099.66049	0.03288
2098.37473	0.03245
2097.08896	0.03194
2095.80319	0.03146
2094.51742	0.03124
2093.23165	0.03141
2091.94588	0.03195
2090.66011	0.03260
2089.37434	0.03302
2088.08857	0.03303
2086.80281	0.03270
2085.51704	0.03223
2084.23127	0.03179
2082.94550	0.03151
2081.65973	0.03144
2080.37396	0.03145
2079.08819	0.03127
2077.80242	0.03075
2076.51666	0.03001
2075.23089	0.02936
2073.94512	0.02905
2072.65935	0.02900
2071.37358	0.02893
2070.08781	0.02864
2068.80204	0.02820
2067.51627	0.02785
2066.23050	0.02771
2064.94474	0.02772
2063.65897	0.02766
2062.37320	0.02742
2061.08743	0.02709
2059.80166	0.02688
2058.51589	0.02689
2057.23012	0.02692
2055.94435	0.02669
2054.65859	0.02629
2053.37282	0.02606
2052.08705	0.02618
2050.80128	0.02639
2049.51551	0.02616
2048.22974	0.02517
2046.94397	0.02367
2045.65820	0.02230
2044.37243	0.02169
2043.08667	0.02191
2041.80090	0.02247
2040.51513	0.02271
2039.22936	0.02232
2037.94359	0.02149
2036.65782	0.02069
2035.37205	0.02030
2034.08628	0.02032
2032.80052	0.02043
2031.51475	0.02035
2030.22898	0.02020
2028.94321	0.02042
2027.65744	0.02124
2026.37167	0.02244
2025.08590	0.02358
2023.80013	0.02429
2022.51436	0.02432
2021.22860	0.02357
2019.94283	0.02232
2018.65706	0.02119
2017.37129	0.02071
2016.08552	0.02092
2014.79975	0.02156
2013.51398	0.02234
2012.22821	0.02296
2010.94245	0.02300
2009.65668	0.02218
2008.37091	0.02070
2007.08514	0.01922
2005.79937	0.01837
2004.51360	0.01823
2003.22783	0.01848
2001.94206	0.01888
2000.65629	0.01948
1999.37053	0.02037
1998.08476	0.02150
1996.79899	0.02261
1995.51322	0.02346
1994.22745	0.02389
1992.94168	0.02390
1991.65591	0.02369
1990.37014	0.02358
1989.08438	0.02377
1987.79861	0.02410
1986.51284	0.02420
1985.22707	0.02383
1983.94130	0.02307
1982.65553	0.02215
1981.36976	0.02127
1980.08399	0.02058
1978.79822	0.02019
1977.51246	0.02012
1976.22669	0.02027
1974.94092	0.02051
1973.65515	0.02084
1972.36938	0.02135
1971.08361	0.02212
1969.79784	0.02299
1968.51207	0.02354
1967.22631	0.02342
1965.94054	0.02269
1964.65477	0.02180
1963.36900	0.02122
1962.08323	0.02116
1960.79746	0.02150
1959.51169	0.02202
1958.22592	0.02257
1956.94015	0.02320
1955.65439	0.02392
1954.36862	0.02460
1953.08285	0.02504
1951.79708	0.02516
1950.51131	0.02500
1949.22554	0.02468
1947.93977	0.02440
1946.65400	0.02440
1945.36823	0.02487
1944.08247	0.02571
1942.79670	0.02657
1941.51093	0.02704
1940.22516	0.02692
1938.93939	0.02633
1937.65362	0.02568
1936.36785	0.02537
1935.08208	0.02552
1933.79632	0.02594
1932.51055	0.02639
1931.22478	0.02677
1929.93901	0.02712
1928.65324	0.02746
1927.36747	0.02773
1926.08170	0.02780
1924.79593	0.02770
1923.51016	0.02754
1922.22440	0.02748
1920.93863	0.02754
1919.65286	0.02761
1918.36709	0.02760
1917.08132	0.02747
1915.79555	0.02733
1914.50978	0.02727
1913.22401	0.02731
1911.93825	0.02743
1910.65248	0.02757
1909.36671	0.02767
1908.08094	0.02771
1906.79517	0.02769
1905.50940	0.02763
1904.22363	0.02755
1902.93786	0.02748
1901.65209	0.02744
1900.36633	0.02741
1899.08056	0.02735
1897.79479	0.02726
1896.50902	0.02717
1895.22325	0.02718
1893.93748	0.02730
1892.65171	0.02751
1891.36594	0.02774
1890.08018	0.02794
1888.79441	0.02810
1887.50864	0.02818
1886.22287	0.02814
1884.93710	0.02802
1883.65133	0.02785
1882.36556	0.02766
1881.07979	0.02739
1879.79402	0.02709
1878.50826	0.02689
1877.22249	0.02691
1875.93672	0.02713
1874.65095	0.02744
1873.36518	0.02771
1872.07941	0.02791
1870.79364	0.02803
1869.50787	0.02806
1868.22211	0.02801
1866.93634	0.02787
1865.65057	0.02767
1864.36480	0.02740
1863.07903	0.02711
1861.79326	0.02689
1860.50749	0.02679
1859.22172	0.02682
1857.93595	0.02692
1856.65019	0.02705
1855.36442	0.02720
1854.07865	0.02734
1852.79288	0.02745
1851.50711	0.02751
1850.22134	0.02752
1848.93557	0.02748
1847.64980	0.02739
1846.36404	0.02729
1845.07827	0.02719
1843.79250	0.02711
1842.50673	0.02699
1841.22096	0.02683
1839.93519	0.02668
1838.64942	0.02665
1837.36365	0.02677
1836.07788	0.02699
1834.79212	0.02721
1833.50635	0.02732
1832.22058	0.02726
1830.93481	0.02705
1829.64904	0.02683
1828.36327	0.02671
1827.07750	0.02670
1825.79173	0.02672
1824.50597	0.02670
1823.22020	0.02658
1821.93443	0.02640
1820.64866	0.02621
1819.36289	0.02609
1818.07712	0.02608
1816.79135	0.02615
1815.50558	0.02628
1814.21981	0.02639
1812.93405	0.02646
1811.64828	0.02646
1810.36251	0.02639
1809.07674	0.02630
1807.79097	0.02618
1806.50520	0.02607
1805.21943	0.02598
1803.93366	0.02595
1802.64790	0.02600
1801.36213	0.02609
1800.07636	0.02613
1798.79059	0.02606
1797.50482	0.02592
1796.21905	0.02583
1794.93328	0.02585
1793.64751	0.02598
1792.36174	0.02612
1791.07598	0.02619
1789.79021	0.02611
1788.50444	0.02588
1787.21867	0.02561
1785.93290	0.02542
1784.64713	0.02538
1783.36136	0.02541
1782.07559	0.02540
1780.78983	0.02533
1779.50406	0.02524
1778.21829	0.02523
1776.93252	0.02532
1775.64675	0.02544
1774.36098	0.02552
1773.07521	0.02554
1771.78944	0.02553
1770.50367	0.02554
1769.21791	0.02557
1767.93214	0.02564
1766.64637	0.02569
1765.36060	0.02572
1764.07483	0.02571
1762.78906	0.02567
1761.50329	0.02565
1760.21752	0.02570
1758.93176	0.02583
1757.64599	0.02601
1756.36022	0.02620
1755.07445	0.02642
1753.78868	0.02667
1752.50291	0.02696
1751.21714	0.02729
1749.93137	0.02764
1748.64560	0.02801
1747.35984	0.02837
1746.07407	0.02869
1744.78830	0.02899
1743.50253	0.02935
1742.21676	0.02980
1740.93099	0.03033
1739.64522	0.03091
1738.35945	0.03149
1737.07369	0.03206
1735.78792	0.03260
1734.50215	0.03308
1733.21638	0.03348
1731.93061	0.03384
1730.64484	0.03420
1729.35907	0.03455
1728.07330	0.03488
1726.78753	0.03521
1725.50177	0.03559
1724.21600	0.03602
1722.93023	0.03649
1721.64446	0.03697
1720.35869	0.03744
1719.07292	0.03795
1717.78715	0.03848
1716.50138	0.03900
1715.21561	0.03950
1713.92985	0.04008
1712.64408	0.04084
1711.35831	0.04185
1710.07254	0.04308
1708.78677	0.04446
1707.50100	0.04593
1706.21523	0.04748
1704.92946	0.04913
1703.64370	0.05094
1702.35793	0.05295
1701.07216	0.05520
1699.78639	0.05767
1698.50062	0.06034
1697.21485	0.06317
1695.92908	0.06610
1694.64331	0.06903
1693.35754	0.07187
1692.07178	0.07463
1690.78601	0.07734
1689.50024	0.08004
1688.21447	0.08276
1686.92870	0.08560
1685.64293	0.08864
1684.35716	0.09184
1683.07139	0.09506
1681.78563	0.09823
1680.49986	0.10141
1679.21409	0.10472
1677.92832	0.10821
1676.64255	0.11186
1675.35678	0.11559
1674.07101	0.11937
1672.78524	0.12319
1671.49947	0.12710
1670.21371	0.13110
1668.92794	0.13509
1667.64217	0.13898
1666.35640	0.14276
1665.07063	0.14650
1663.78486	0.15027
1662.49909	0.15403
1661.21332	0.15771
1659.92756	0.16119
1658.64179	0.16444
1657.35602	0.16747
1656.07025	0.17037
1654.78448	0.17321
1653.49871	0.17596
1652.21294	0.17849
1650.92717	0.18065
1649.64140	0.18247
1648.35564	0.18406
1647.06987	0.18552
1645.78410	0.18691
1644.49833	0.18820
1643.21256	0.18938
1641.92679	0.19048
1640.64102	0.19153
1639.35525	0.19258
1638.06949	0.19359
1636.78372	0.19449
1635.49795	0.19521
1634.21218	0.19575
1632.92641	0.19610
1631.64064	0.19625
1630.35487	0.19608
1629.06910	0.19549
1627.78333	0.19443
1626.49757	0.19291
1625.21180	0.19098
1623.92603	0.18867
1622.64026	0.18596
1621.35449	0.18284
1620.06872	0.17937
1618.78295	0.17564
1617.49718	0.17178
1616.21142	0.16787
1614.92565	0.16391
1613.63988	0.15986
1612.35411	0.15571
1611.06834	0.15151
1609.78257	0.14733
1608.49680	0.14322
1607.21103	0.13923
1605.92526	0.13541
1604.63950	0.13181
1603.35373	0.12844
1602.06796	0.12529
1600.78219	0.12235
1599.49642	0.11962
1598.21065	0.11711
1596.92488	0.11483
1595.63911	0.11273
1594.35335	0.11080
1593.06758	0.10905
1591.78181	0.10750
1590.49604	0.10615
1589.21027	0.10498
1587.92450	0.10401
1586.63873	0.10324
1585.35296	0.10269
1584.06719	0.10235
1582.78143	0.10219
1581.49566	0.10221
1580.20989	0.10242
1578.92412	0.10286
1577.63835	0.10354
1576.35258	0.10447
1575.06681	0.10560
1573.78104	0.10687
1572.49528	0.10827
1571.20951	0.10983
1569.92374	0.11155
1568.63797	0.11342
1567.35220	0.11540
1566.06643	0.11750
1564.78066	0.11969
1563.49489	0.12196
1562.20912	0.12431
1560.92336	0.12676
1559.63759	0.12931
1558.35182	0.13190
1557.06605	0.13443
1555.78028	0.13689
1554.49451	0.13928
1553.20874	0.14161
1551.92297	0.14381
1550.63721	0.14587
1549.35144	0.14779
1548.06567	0.14959
1546.77990	0.15128
1545.49413	0.15287
1544.20836	0.15433
1542.92259	0.15567
1541.63682	0.15688
1540.35105	0.15796
1539.06529	0.15887
1537.77952	0.15958
1536.49375	0.16010
1535.20798	0.16051
1533.92221	0.16083
1532.63644	0.16108
1531.35067	0.16122
1530.06490	0.16124
1528.77914	0.16115
1527.49337	0.16099
1526.20760	0.16078
1524.92183	0.16057
1523.63606	0.16033
1522.35029	0.16005
1521.06452	0.15970
1519.77875	0.15929
1518.49298	0.15885
1517.20722	0.15829
1515.92145	0.15745
1514.63568	0.15623
1513.34991	0.15462
1512.06414	0.15272
1510.77837	0.15063
1509.49260	0.14842
1508.20683	0.14612
1506.92107	0.14371
1505.63530	0.14117
1504.34953	0.13850
1503.06376	0.13572
1501.77799	0.13291
1500.49222	0.13014
1499.20645	0.12739
1497.92068	0.12461
1496.63491	0.12175
1495.34915	0.11881
1494.06338	0.11588
1492.77761	0.11300
1491.49184	0.11020
1490.20607	0.10751
1488.92030	0.10497
1487.63453	0.10262
1486.34876	0.10048
1485.06299	0.09857
1483.77723	0.09688
1482.49146	0.09543
1481.20569	0.09425
1479.91992	0.09337
1478.63415	0.09279
1477.34838	0.09251
1476.06261	0.09253
1474.77684	0.09287
1473.49108	0.09355
1472.20531	0.09448
1470.91954	0.09552
1469.63377	0.09654
1468.34800	0.09746
1467.06223	0.09827
1465.77646	0.09903
1464.49069	0.09984
1463.20492	0.10075
1461.91916	0.10175
1460.63339	0.10280
1459.34762	0.10388
1458.06185	0.10501
1456.77608	0.10613
1455.49031	0.10714
1454.20454	0.10793
1452.91877	0.10850
1451.63301	0.10890
1450.34724	0.10919
1449.06147	0.10937
1447.77570	0.10937
1446.48993	0.10914
1445.20416	0.10870
1443.91839	0.10816
1442.63262	0.10758
1441.34685	0.10697
1440.06109	0.10629
1438.77532	0.10550
1437.48955	0.10460
1436.20378	0.10358
1434.91801	0.10245
1433.63224	0.10125
1432.34647	0.10007
1431.06070	0.09896
1429.77494	0.09799
1428.48917	0.09719
1427.20340	0.09657
1425.91763	0.09610
1424.63186	0.09574
1423.34609	0.09549
1422.06032	0.09533
1420.77455	0.09530
1419.48878	0.09540
1418.20302	0.09555
1416.91725	0.09565
1415.63148	0.09568
1414.34571	0.09570
1413.05994	0.09580
1411.77417	0.09601
1410.48840	0.09626
1409.20263	0.09648
1407.91687	0.09667
1406.63110	0.09686
1405.34533	0.09706
1404.05956	0.09727
1402.77379	0.09748
1401.48802	0.09764
1400.20225	0.09773
1398.91648	0.09773
1397.63071	0.09766
1396.34495	0.09758
1395.05918	0.09756
1393.77341	0.09761
1392.48764	0.09771
1391.20187	0.09782
1389.91610	0.09789
1388.63033	0.09790
1387.34456	0.09782
1386.05880	0.09766
1384.77303	0.09740
1383.48726	0.09705
1382.20149	0.09662
1380.91572	0.09617
1379.62995	0.09572
1378.34418	0.09528
1377.05841	0.09484
1375.77264	0.09435
1374.48688	0.09381
1373.20111	0.09321
1371.91534	0.09254
1370.62957	0.09183
1369.34380	0.09108
1368.05803	0.09026
1366.77226	0.08938
1365.48649	0.08844
1364.20073	0.08751
1362.91496	0.08664
1361.62919	0.08585
1360.34342	0.08517
1359.05765	0.08459
1357.77188	0.08412
1356.48611	0.08375
1355.20034	0.08349
1353.91457	0.08335
1352.62881	0.08334
1351.34304	0.08342
1350.05727	0.08355
1348.77150	0.08374
1347.48573	0.08402
1346.19996	0.08436
1344.91419	0.08475
1343.62842	0.08516
1342.34266	0.08558
1341.05689	0.08597
1339.77112	0.08630
1338.48535	0.08652
1337.19958	0.08662
1335.91381	0.08662
1334.62804	0.08649
1333.34227	0.08623
1332.05650	0.08586
1330.77074	0.08541
1329.48497	0.08495
1328.19920	0.08449
1326.91343	0.08404
1325.62766	0.08361
1324.34189	0.08324
1323.05612	0.08295
1321.77035	0.08276
1320.48459	0.08265
1319.19882	0.08257
1317.91305	0.08248
1316.62728	0.08237
1315.34151	0.08225
1314.05574	0.08211
1312.76997	0.08193
1311.48420	0.08172
1310.19843	0.08146
1308.91267	0.08117
1307.62690	0.08087
1306.34113	0.08062
1305.05536	0.08045
1303.76959	0.08036
1302.48382	0.08030
1301.19805	0.08022
1299.91228	0.08010
1298.62652	0.07996
1297.34075	0.07982
1296.05498	0.07975
1294.76921	0.07977
1293.48344	0.07989
1292.19767	0.08008
1290.91190	0.08031
1289.62613	0.08060
1288.34036	0.08095
1287.05460	0.08135
1285.76883	0.08179
1284.48306	0.08222
1283.19729	0.08264
1281.91152	0.08301
1280.62575	0.08329
1279.33998	0.08348
1278.05421	0.08361
1276.76845	0.08376
1275.48268	0.08394
1274.19691	0.08414
1272.91114	0.08434
1271.62537	0.08453
1270.33960	0.08475
1269.05383	0.08499
1267.76806	0.08528
1266.48229	0.08562
1265.19653	0.08602
1263.91076	0.08645
1262.62499	0.08692
1261.33922	0.08743
1260.05345	0.08799
1258.76768	0.08857
1257.48191	0.08916
1256.19614	0.08977
1254.91037	0.09041
1253.62461	0.09108
1252.33884	0.09178
1251.05307	0.09251
1249.76730	0.09329
1248.48153	0.09413
1247.19576	0.09503
1245.90999	0.09598
1244.62422	0.09695
1243.33846	0.09789
1242.05269	0.09874
1240.76692	0.09947
1239.48115	0.10011
1238.19538	0.10067
1236.90961	0.10117
1235.62384	0.10158
1234.33807	0.10188
1233.05230	0.10206
1231.76654	0.10211
1230.48077	0.10202
1229.19500	0.10179
1227.90923	0.10139
1226.62346	0.10086
1225.33769	0.10023
1224.05192	0.09955
1222.76615	0.09885
1221.48039	0.09815
1220.19462	0.09744
1218.90885	0.09670
1217.62308	0.09592
1216.33731	0.09514
1215.05154	0.09445
1213.76577	0.09392
1212.48000	0.09357
1211.19423	0.09334
1209.90847	0.09316
1208.62270	0.09301
1207.33693	0.09291
1206.05116	0.09287
1204.76539	0.09284
1203.47962	0.09277
1202.19385	0.09261
1200.90808	0.09237
1199.62232	0.09204
1198.33655	0.09155
1197.05078	0.09096
1195.76501	0.09032
1194.47924	0.08969
1193.19347	0.08911
1191.90770	0.08858
1190.62193	0.08806
1189.33616	0.08754
1188.05040	0.08706
1186.76463	0.08665
1185.47886	0.08632
1184.19309	0.08606
1182.90732	0.08585
1181.62155	0.08571
1180.33578	0.08566
1179.05001	0.08571
1177.76425	0.08582
1176.47848	0.08593
1175.19271	0.08602
1173.90694	0.08612
1172.62117	0.08624
1171.33540	0.08638
1170.04963	0.08655
1168.76386	0.08674
1167.47809	0.08694
1166.19233	0.08714
1164.90656	0.08734
1163.62079	0.08749
1162.33502	0.08758
1161.04925	0.08761
1159.76348	0.08760
1158.47771	0.08751
1157.19194	0.08730
1155.90618	0.08691
1154.62041	0.08640
1153.33464	0.08585
1152.04887	0.08532
1150.76310	0.08481
1149.47733	0.08426
1148.19156	0.08364
1146.90579	0.08301
1145.62002	0.08244
1144.33426	0.08200
1143.04849	0.08164
1141.76272	0.08128
1140.47695	0.08086
1139.19118	0.08038
1137.90541	0.07991
1136.61964	0.07951
1135.33387	0.07922
1134.04811	0.07900
1132.76234	0.07887
1131.47657	0.07877
1130.19080	0.07868
1128.90503	0.07857
1127.61926	0.07844
1126.33349	0.07830
1125.04772	0.07816
1123.76195	0.07804
1122.47619	0.07798
1121.19042	0.07797
1119.90465	0.07800
1118.61888	0.07804
1117.33311	0.07811
1116.04734	0.07824
1114.76157	0.07842
1113.47580	0.07864
1112.19004	0.07885
1110.90427	0.07904
1109.61850	0.07923
1108.33273	0.07944
1107.04696	0.07970
1105.76119	0.08001
1104.47542	0.08037
1103.18965	0.08075
1101.90388	0.08116
1100.61812	0.08161
1099.33235	0.08211
1098.04658	0.08263
1096.76081	0.08313
1095.47504	0.08363
1094.18927	0.08413
1092.90350	0.08465
1091.61773	0.08519
1090.33197	0.08575
1089.04620	0.08637
1087.76043	0.08711
1086.47466	0.08797
1085.18889	0.08885
1083.90312	0.08963
1082.61735	0.09023
1081.33158	0.09069
1080.04581	0.09104
1078.76005	0.09128
1077.47428	0.09140
1076.18851	0.09142
1074.90274	0.09141
1073.61697	0.09138
1072.33120	0.09134
1071.04543	0.09128
1069.75966	0.09125
1068.47390	0.09128
1067.18813	0.09138
1065.90236	0.09155
1064.61659	0.09178
1063.33082	0.09202
1062.04505	0.09221
1060.75928	0.09234
1059.47351	0.09245
1058.18774	0.09256
1056.90198	0.09270
1055.61621	0.09283
1054.33044	0.09297
1053.04467	0.09310
1051.75890	0.09320
1050.47313	0.09323
1049.18736	0.09319
1047.90159	0.09317
1046.61583	0.09324
1045.33006	0.09336
1044.04429	0.09349
1042.75852	0.09358
1041.47275	0.09368
1040.18698	0.09383
1038.90121	0.09406
1037.61544	0.09431
1036.32967	0.09451
1035.04391	0.09458
1033.75814	0.09454
1032.47237	0.09445
1031.18660	0.09435
1029.90083	0.09418
1028.61506	0.09382
1027.32929	0.09325
1026.04352	0.09255
1024.75775	0.09181
1023.47199	0.09110
1022.18622	0.09040
1020.90045	0.08972
1019.61468	0.08908
1018.32891	0.08852
1017.04314	0.08808
1015.75737	0.08777
1014.47160	0.08752
1013.18584	0.08723
1011.90007	0.08684
1010.61430	0.08636
1009.32853	0.08585
1008.04276	0.08536
1006.75699	0.08489
1005.47122	0.08439
1004.18545	0.08385
1002.89968	0.08327
1001.61392	0.08273
1000.32815	0.08227
999.04238	0.08188
997.75661	0.08153
996.47084	0.08118
995.18507	0.08078
993.89930	0.08030
992.61353	0.07975
991.32777	0.07919
990.04200	0.07862
988.75623	0.07809
987.47046	0.07759
986.18469	0.07714
984.89892	0.07670
983.61315	0.07624
982.32738	0.07579
981.04161	0.07543
979.75585	0.07524
978.47008	0.07518
977.18431	0.07517
975.89854	0.07508
974.61277	0.07486
973.32700	0.07455
972.04123	0.07418
970.75546	0.07381
969.46970	0.07346
968.18393	0.07307
966.89816	0.07260
965.61239	0.07206
964.32662	0.07148
963.04085	0.07096
961.75508	0.07054
960.46931	0.07019
959.18354	0.06984
957.89778	0.06946
956.61201	0.06909
955.32624	0.06874
954.04047	0.06838
952.75470	0.06798
951.46893	0.06754
950.18316	0.06713
948.89739	0.06675
947.61163	0.06641
946.32586	0.06611
945.04009	0.06585
943.75432	0.06561
942.46855	0.06536
941.18278	0.06506
939.89701	0.06469
938.61124	0.06430
937.32547	0.06396
936.03971	0.06369
934.75394	0.06347
933.46817	0.06324
932.18240	0.06297
930.89663	0.06265
929.61086	0.06230
928.32509	0.06197
927.03932	0.06167
925.75356	0.06139
924.46779	0.06112
923.18202	0.06086
921.89625	0.06060
920.61048	0.06036
919.32471	0.06009
918.03894	0.05977
916.75317	0.05941
915.46740	0.05903
914.18164	0.05868
912.89587	0.05833
911.61010	0.05797
910.32433	0.05759
909.03856	0.05721
907.75279	0.05683
906.46702	0.05646
905.18125	0.05612
903.89549	0.05584
902.60972	0.05560
901.32395	0.05535
900.03818	0.05510
898.75241	0.05486
897.46664	0.05462
896.18087	0.05434
894.89510	0.05398
893.60933	0.05357
892.32357	0.05317
891.03780	0.05289
889.75203	0.05272
888.46626	0.05257
887.18049	0.05236
885.89472	0.05209
884.60895	0.05186
883.32318	0.05169
882.03742	0.05146
880.75165	0.05112
879.46588	0.05074
878.18011	0.05047
876.89434	0.05038
875.60857	0.05037
874.32280	0.05031
873.03703	0.05012
871.75126	0.04983
870.46550	0.04954
869.17973	0.04931
867.89396	0.04912
866.60819	0.04891
865.32242	0.04867
864.03665	0.04844
862.75088	0.04826
861.46511	0.04810
860.17935	0.04793
858.89358	0.04774
857.60781	0.04758
856.32204	0.04747
855.03627	0.04744
853.75050	0.04744
852.46473	0.04741
851.17896	0.04732
849.89319	0.04721
848.60743	0.04715
847.32166	0.04712
846.03589	0.04707
844.75012	0.04697
843.46435	0.04686
842.17858	0.04676
840.89281	0.04666
839.60704	0.04654
838.32128	0.04641
837.03551	0.04632
835.74974	0.04629
834.46397	0.04629
833.17820	0.04628
831.89243	0.04626
830.60666	0.04624
829.32089	0.04627
828.03512	0.04635
826.74936	0.04643
825.46359	0.04649
824.17782	0.04649
822.89205	0.04648
821.60628	0.04650
820.32051	0.04657
819.03474	0.04666
817.74897	0.04676
816.46321	0.04686
815.17744	0.04693
813.89167	0.04695
812.60590	0.04701
811.32013	0.04719
810.03436	0.04750
808.74859	0.04789
807.46282	0.04830
806.17705	0.04871
804.89129	0.04914
803.60552	0.04955
802.31975	0.04992
801.03398	0.05023
799.74821	0.05049
798.46244	0.05072
797.17667	0.05095
795.89090	0.05118
794.60513	0.05140
793.31937	0.05161
792.03360	0.05184
790.74783	0.05213
789.46206	0.05246
788.17629	0.05274
786.89052	0.05291
785.60475	0.05298
784.31898	0.05300
783.03322	0.05304
781.74745	0.05312
780.46168	0.05327
779.17591	0.05347
777.89014	0.05364
776.60437	0.05374
775.31860	0.05375
774.03283	0.05374
772.74706	0.05377
771.46130	0.05384
770.17553	0.05396
768.88976	0.05412
767.60399	0.05437
766.31822	0.05468
765.03245	0.05500
763.74668	0.05528
762.46091	0.05552
761.17515	0.05572
759.88938	0.05587
758.60361	0.05596
757.31784	0.05603
756.03207	0.05607
754.74630	0.05610
753.46053	0.05613
752.17476	0.05621
750.88899	0.05639
749.60323	0.05667
748.31746	0.05703
747.03169	0.05741
745.74592	0.05773
744.46015	0.05795
743.17438	0.05810
741.88861	0.05820
740.60284	0.05821
739.31708	0.05811
738.03131	0.05798
736.74554	0.05791
735.45977	0.05793
734.17400	0.05801
732.88823	0.05814
731.60246	0.05834
730.31669	0.05867
729.03092	0.05907
727.74516	0.05949
726.45939	0.05990
725.17362	0.06031
723.88785	0.06066
722.60208	0.06103
721.31631	0.06134
720.03054	0.06154
718.74477	0.06165
717.45901	0.06172
716.17324	0.06172
714.88747	0.06168
713.60170	0.06162
712.31593	0.06160
711.03016	0.06167
709.74439	0.06184
708.45862	0.06207
707.17285	0.06235
705.88709	0.06263
704.60132	0.06289
703.31555	0.06312
702.02978	0.06334
700.74401	0.06356
699.45824	0.06383
698.17247	0.06412
696.88670	0.06439
695.60094	0.06457
694.31517	0.06459
693.02940	0.06446
691.74363	0.06427
690.45786	0.06412
689.17209	0.06408
687.88632	0.06416
686.60055	0.06429
685.31478	0.06441
684.02902	0.06450
682.74325	0.06457
681.45748	0.06462
680.17171	0.06468
678.88594	0.06476
677.60017	0.06488
676.31440	0.06504
675.02863	0.06521
673.74287	0.06537
672.45710	0.06550
671.17133	0.06560
669.88556	0.06571
668.59979	0.06585
667.31402	0.06603
666.02825	0.06622
664.74248	0.06641
663.45671	0.06658
662.17095	0.06676
660.88518	0.06700
659.59941	0.06732
658.31364	0.06768
657.02787	0.06803
655.74210	0.06836
654.45633	0.06868
653.17056	0.06904
651.88480	0.06942
650.59903	0.06979
649.31326	0.07008
648.02749	0.07025
646.74172	0.07030
645.45595	0.07027
644.17018	0.07021
642.88441	0.07010
641.59864	0.06994
640.31288	0.06972
639.02711	0.06951
637.74134	0.06935
636.45557	0.06929
635.16980	0.06928
633.88403	0.06929
632.59826	0.06927
631.31249	0.06918
630.02673	0.06882
628.74096	0.06827
627.45519	0.06825
626.16942	0.06744
624.88365	0.06601
623.59788	0.06452
622.31211	0.06329
621.02634	0.06261
619.74057	0.06288
618.45481	0.06439
617.16904	0.06679
615.88327	0.06909
614.59750	0.07031
613.31173	0.07003
612.02596	0.06861
610.74019	0.06706
609.45442	0.06659
608.16866	0.06756
606.88289	0.06919
605.59712	0.07041
604.31135	0.07088
603.02558	0.07090
601.73981	0.07088
600.45404	0.07100
599.16827	0.07133
597.88250	0.07185
596.59674	0.07249
595.31097	0.07310
594.02520	0.07355
592.73943	0.07379
591.45366	0.07383
590.16789	0.07378
588.88212	0.07375
587.59635	0.07385
586.31059	0.07405
585.02482	0.07422
583.73905	0.07428
582.45328	0.07425
581.16751	0.07421
579.88174	0.07412
578.59597	0.07390
577.31020	0.07360
576.02443	0.07337
574.73867	0.07336
573.45290	0.07352
572.16713	0.07365
570.88136	0.07360
569.59559	0.07344
568.30982	0.07332
567.02405	0.07336
565.73828	0.07356
564.45251	0.07381
563.16675	0.07391
561.88098	0.07374
560.59521	0.07336
559.30944	0.07295
558.02367	0.07266
556.73790	0.07256
555.45213	0.07261
554.16636	0.07275
552.88060	0.07291
551.59483	0.07302
550.30906	0.07307
549.02329	0.07309
547.73752	0.07311
546.45175	0.07314
545.16598	0.07316
543.88021	0.07313
542.59444	0.07305
541.30868	0.07296
540.02291	0.07296
538.73714	0.07312
537.45137	0.07345
536.16560	0.07383
534.87983	0.07415
533.59406	0.07435
532.30829	0.07443
531.02253	0.07443
529.73676	0.07438
528.45099	0.07430
527.16522	0.07419
525.87945	0.07403
524.59368	0.07381
523.30791	0.07355
522.02214	0.07329
520.73637	0.07305
519.45061	0.07280
518.16484	0.07252
516.87907	0.07222
515.59330	0.07190
514.30753	0.07153
513.02176	0.07116
511.73599	0.07090
510.45022	0.07090
509.16446	0.07113
507.87869	0.07133
506.59292	0.07127
505.30715	0.07093
504.02138	0.07047
502.73561	0.07006
501.44984	0.06970
500.16407	0.06938
498.87830	0.06912
497.59254	0.06897
496.30677	0.06889
495.02100	0.06878
493.73523	0.06855
492.44946	0.06821
491.16369	0.06784
489.87792	0.06750
488.59215	0.06724
487.30639	0.06703
486.02062	0.06688
484.73485	0.06678
483.44908	0.06678
482.16331	0.06689
480.87754	0.06711
479.59177	0.06741
478.30600	0.06771
477.02023	0.06796
475.73447	0.06811
474.44870	0.06815
473.16293	0.06810
471.87716	0.06793
470.59139	0.06767
469.30562	0.06739
468.01985	0.06724
466.73408	0.06729
465.44832	0.06751
464.16255	0.06773
462.87678	0.06779
461.59101	0.06764
460.30524	0.06731
459.01947	0.06688
457.73370	0.06641
456.44793	0.06598
455.16216	0.06564
453.87640	0.06539
452.59063	0.06519
451.30486	0.06500
450.01909	0.06474
448.73332	0.06439
447.44755	0.06398
446.16178	0.06358
444.87601	0.06328
443.59025	0.06310
442.30448	0.06299
441.01871	0.06284
439.73294	0.06263
438.44717	0.06237
437.16140	0.06214
435.87563	0.06201
434.58986	0.06197
433.30409	0.06200
432.01833	0.06205
430.73256	0.06212
429.44679	0.06217
428.16102	0.06216
426.87525	0.06208
425.58948	0.06194
424.30371	0.06179
423.01794	0.06162
421.73218	0.06144
420.44641	0.06121
419.16064	0.06097
417.87487	0.06073
416.58910	0.06049
415.30333	0.06024
414.01756	0.05995
412.73179	0.05960
411.44602	0.05916
410.16026	0.05866
408.87449	0.05816
407.58872	0.05771
406.30295	0.05736
405.01718	0.05711
403.73141	0.05700
402.44564	0.05708
401.15987	0.05731
399.87411	0.05762
