3997.45528	0.05493
3996.16951	0.05418
3994.88374	0.05339
3993.59798	0.05276
3992.31221	0.05245
3991.02644	0.05244
3989.74067	0.05257
3988.45490	0.05264
3987.16913	0.05268
3985.88336	0.05293
3984.59759	0.05352
3983.31183	0.05422
3982.02606	0.05462
3980.74029	0.05460
3979.45452	0.05445
3978.16875	0.05448
3976.88298	0.05464
3975.59721	0.05462
3974.31144	0.05417
3973.02567	0.05330
3971.73991	0.05223
3970.45414	0.05123
3969.16837	0.05055
3967.88260	0.05033
3966.59683	0.05048
3965.31106	0.05073
3964.02529	0.05077
3962.73952	0.05054
3961.45376	0.05032
3960.16799	0.05046
3958.88222	0.05097
3957.59645	0.05154
3956.31068	0.05183
3955.02491	0.05178
3953.73914	0.05155
3952.45337	0.05135
3951.16760	0.05124
3949.88184	0.05119
3948.59607	0.05109
3947.31030	0.05089
3946.02453	0.05063
3944.73876	0.05047
3943.45299	0.05062
3942.16722	0.05105
3940.88145	0.05148
3939.59569	0.05159
3938.30992	0.05137
3937.02415	0.05109
3935.73838	0.05094
3934.45261	0.05081
3933.16684	0.05055
3931.88107	0.05025
3930.59530	0.05022
3929.30953	0.05058
3928.02377	0.05106
3926.73800	0.05127
3925.45223	0.05107
3924.16646	0.05067
3922.88069	0.05038
3921.59492	0.05042
3920.30915	0.05075
3919.02338	0.05113
3917.73762	0.05127
3916.45185	0.05102
3915.16608	0.05050
3913.88031	0.05002
3912.59454	0.04988
3911.30877	0.05021
3910.02300	0.05080
3908.73723	0.05121
3907.45146	0.05113
3906.16570	0.05065
3904.87993	0.05025
3903.59416	0.05024
3902.30839	0.05057
3901.02262	0.05090
3899.73685	0.05101
3898.45108	0.05091
3897.16531	0.05073
3895.87955	0.05069
3894.59378	0.05082
3893.30801	0.05095
3892.02224	0.05088
3890.73647	0.05080
3889.45070	0.05099
3888.16493	0.05144
3886.87916	0.05185
3885.59339	0.05200
3884.30763	0.05193
3883.02186	0.05179
3881.73609	0.05168
3880.45032	0.05154
3879.16455	0.05129
3877.87878	0.05102
3876.59301	0.05098
3875.30724	0.05137
3874.02148	0.05210
3872.73571	0.05277
3871.44994	0.05292
3870.16417	0.05247
3868.87840	0.05173
3867.59263	0.05101
3866.30686	0.05060
3865.02109	0.05065
3863.73532	0.05100
3862.44956	0.05113
3861.16379	0.05070
3859.87802	0.04987
3858.59225	0.04915
3857.30648	0.04897
3856.02071	0.04929
3854.73494	0.04985
3853.44917	0.05046
3852.16341	0.05097
3850.87764	0.05123
3849.59187	0.05122
3848.30610	0.05104
3847.02033	0.05070
3845.73456	0.05018
3844.44879	0.04962
3843.16302	0.04926
3841.87725	0.04923
3840.59149	0.04937
3839.30572	0.04945
3838.01995	0.04942
3836.73418	0.04940
3835.44841	0.04948
3834.16264	0.04963
3832.87687	0.04984
3831.59110	0.04995
3830.30534	0.04980
3829.01957	0.04944
3827.73380	0.04906
3826.44803	0.04874
3825.16226	0.04816
3823.87649	0.04703
3822.59072	0.04563
3821.30495	0.04481
3820.01918	0.04509
3818.73342	0.04614
3817.44765	0.04723
3816.16188	0.04793
3814.87611	0.04818
3813.59034	0.04803
3812.30457	0.04771
3811.01880	0.04755
3809.73303	0.04764
3808.44726	0.04779
3807.16150	0.04791
3805.87573	0.04801
3804.58996	0.04796
3803.30419	0.04769
3802.01842	0.04741
3800.73265	0.04737
3799.44688	0.04744
3798.16111	0.04731
3796.87535	0.04691
3795.58958	0.04641
3794.30381	0.04598
3793.01804	0.04572
3791.73227	0.04569
3790.44650	0.04592
3789.16073	0.04633
3787.87496	0.04671
3786.58919	0.04686
3785.30343	0.04675
3784.01766	0.04660
3782.73189	0.04675
3781.44612	0.04728
3780.16035	0.04792
3778.87458	0.04820
3777.58881	0.04781
3776.30304	0.04691
3775.01728	0.04605
3773.73151	0.04570
3772.44574	0.04585
3771.15997	0.04624
3769.87420	0.04662
3768.58843	0.04687
3767.30266	0.04695
3766.01689	0.04697
3764.73112	0.04703
3763.44536	0.04712
3762.15959	0.04721
3760.87382	0.04730
3759.58805	0.04743
3758.30228	0.04757
3757.01651	0.04774
3755.73074	0.04800
3754.44497	0.04814
3753.15921	0.04792
3751.87344	0.04729
3750.58767	0.04646
3749.30190	0.04569
3748.01613	0.04512
3746.73036	0.04460
3745.44459	0.04417
3744.15882	0.04409
3742.87305	0.04423
3741.58729	0.04413
3740.30152	0.04381
3739.01575	0.04369
3737.72998	0.04394
3736.44421	0.04433
3735.15844	0.04450
3733.87267	0.04426
3732.58690	0.04382
3731.30114	0.04363
3730.01537	0.04396
3728.72960	0.04463
3727.44383	0.04530
3726.15806	0.04569
3724.87229	0.04574
3723.58652	0.04554
3722.30075	0.04524
3721.01498	0.04492
3719.72922	0.04455
3718.44345	0.04418
3717.15768	0.04386
3715.87191	0.04369
3714.58614	0.04379
3713.30037	0.04416
3712.01460	0.04465
3710.72883	0.04493
3709.44307	0.04479
3708.15730	0.04442
3706.87153	0.04415
3705.58576	0.04409
3704.29999	0.04414
3703.01422	0.04417
3701.72845	0.04424
3700.44268	0.04432
3699.15691	0.04417
3697.87115	0.04366
3696.58538	0.04294
3695.29961	0.04230
3694.01384	0.04195
3692.72807	0.04198
3691.44230	0.04209
3690.15653	0.04184
3688.87076	0.04125
3687.58500	0.04075
3686.29923	0.04055
3685.01346	0.04061
3683.72769	0.04076
3682.44192	0.04087
3681.15615	0.04101
3679.87038	0.04124
3678.58461	0.04149
3677.29884	0.04172
3676.01308	0.04216
3674.72731	0.04314
3673.44154	0.04446
3672.15577	0.04544
3670.87000	0.04567
3669.58423	0.04524
3668.29846	0.04448
3667.01269	0.04373
3665.72693	0.04328
3664.44116	0.04317
3663.15539	0.04334
3661.86962	0.04377
3660.58385	0.04443
3659.29808	0.04508
3658.01231	0.04538
3656.72654	0.04526
3655.44077	0.04494
3654.15501	0.04457
3652.86924	0.04411
3651.58347	0.04365
3650.29770	0.04345
3649.01193	0.04362
3647.72616	0.04395
3646.44039	0.04416
3645.15462	0.04424
3643.86886	0.04441
3642.58309	0.04482
3641.29732	0.04546
3640.01155	0.04616
3638.72578	0.04676
3637.44001	0.04714
3636.15424	0.04720
3634.86847	0.04698
3633.58270	0.04679
3632.29694	0.04693
3631.01117	0.04746
3629.72540	0.04826
3628.43963	0.04908
3627.15386	0.04956
3625.86809	0.04945
3624.58232	0.04888
3623.29655	0.04814
3622.01079	0.04743
3620.72502	0.04685
3619.43925	0.04668
3618.15348	0.04709
3616.86771	0.04791
3615.58194	0.04874
3614.29617	0.04932
3613.01040	0.04969
3611.72463	0.04992
3610.43887	0.04996
3609.15310	0.04992
3607.86733	0.05020
3606.58156	0.05106
3605.29579	0.05227
3604.01002	0.05318
3602.72425	0.05335
3601.43848	0.05293
3600.15272	0.05240
3598.86695	0.05203
3597.58118	0.05174
3596.29541	0.05143
3595.00964	0.05118
3593.72387	0.05113
3592.43810	0.05145
3591.15233	0.05208
3589.86656	0.05271
3588.58080	0.05314
3587.29503	0.05342
3586.00926	0.05363
3584.72349	0.05370
3583.43772	0.05358
3582.15195	0.05341
3580.86618	0.05348
3579.58041	0.05398
3578.29464	0.05474
3577.00888	0.05538
3575.72311	0.05577
3574.43734	0.05603
3573.15157	0.05638
3571.86580	0.05692
3570.58003	0.05756
3569.29426	0.05813
3568.00849	0.05850
3566.72273	0.05867
3565.43696	0.05868
3564.15119	0.05857
3562.86542	0.05833
3561.57965	0.05797
3560.29388	0.05763
3559.00811	0.05749
3557.72234	0.05765
3556.43657	0.05806
3555.15081	0.05856
3553.86504	0.05899
3552.57927	0.05929
3551.29350	0.05951
3550.00773	0.05980
3548.72196	0.06023
3547.43619	0.06077
3546.15042	0.06126
3544.86466	0.06168
3543.57889	0.06210
3542.29312	0.06263
3541.00735	0.06320
3539.72158	0.06361
3538.43581	0.06378
3537.15004	0.06382
3535.86427	0.06392
3534.57850	0.06420
3533.29274	0.06462
3532.00697	0.06510
3530.72120	0.06554
3529.43543	0.06588
3528.14966	0.06613
3526.86389	0.06636
3525.57812	0.06663
3524.29235	0.06687
3523.00659	0.06694
3521.72082	0.06685
3520.43505	0.06672
3519.14928	0.06662
3517.86351	0.06653
3516.57774	0.06643
3515.29197	0.06635
3514.00620	0.06631
3512.72043	0.06629
3511.43467	0.06637
3510.14890	0.06673
3508.86313	0.06741
3507.57736	0.06815
3506.29159	0.06863
3505.00582	0.06888
3503.72005	0.06916
3502.43428	0.06964
3501.14852	0.07014
3499.86275	0.07038
3498.57698	0.07033
3497.29121	0.07025
3496.00544	0.07040
3494.71967	0.07075
3493.43390	0.07102
3492.14813	0.07101
3490.86236	0.07086
3489.57660	0.07093
3488.29083	0.07139
3487.00506	0.07198
3485.71929	0.07229
3484.43352	0.07226
3483.14775	0.07227
3481.86198	0.07269
3480.57621	0.07344
3479.29045	0.07414
3478.00468	0.07452
3476.71891	0.07467
3475.43314	0.07480
3474.14737	0.07499
3472.86160	0.07509
3471.57583	0.07507
3470.29006	0.07506
3469.00429	0.07530
3467.71853	0.07592
3466.43276	0.07684
3465.14699	0.07779
3463.86122	0.07844
3462.57545	0.07855
3461.28968	0.07820
3460.00391	0.07777
3458.71814	0.07755
3457.43238	0.07754
3456.14661	0.07756
3454.86084	0.07756
3453.57507	0.07773
3452.28930	0.07829
3451.00353	0.07916
3449.71776	0.07995
3448.43199	0.08030
3447.14622	0.08014
3445.86046	0.07978
3444.57469	0.07961
3443.28892	0.07981
3442.00315	0.08032
3440.71738	0.08093
3439.43161	0.08136
3438.14584	0.08140
3436.86007	0.08111
3435.57431	0.08081
3434.28854	0.08088
3433.00277	0.08135
3431.71700	0.08191
3430.43123	0.08223
3429.14546	0.08228
3427.85969	0.08233
3426.57392	0.08264
3425.28815	0.08319
3424.00239	0.08375
3422.71662	0.08420
3421.43085	0.08462
3420.14508	0.08511
3418.85931	0.08558
3417.57354	0.08572
3416.28777	0.08540
3415.00200	0.08483
3413.71624	0.08442
3412.43047	0.08444
3411.14470	0.08487
3409.85893	0.08556
3408.57316	0.08630
3407.28739	0.08690
3406.00162	0.08724
3404.71585	0.08738
3403.43008	0.08750
3402.14432	0.08767
3400.85855	0.08779
3399.57278	0.08769
3398.28701	0.08741
3397.00124	0.08717
3395.71547	0.08727
3394.42970	0.08784
3393.14393	0.08870
3391.85817	0.08949
3390.57240	0.08993
3389.28663	0.09002
3388.00086	0.09000
3386.71509	0.09011
3385.42932	0.09038
3384.14355	0.09068
3382.85778	0.09087
3381.57201	0.09093
3380.28625	0.09088
3379.00048	0.09080
3377.71471	0.09077
3376.42894	0.09086
3375.14317	0.09109
3373.85740	0.09141
3372.57163	0.09179
3371.28586	0.09228
3370.00010	0.09289
3368.71433	0.09361
3367.42856	0.09436
3366.14279	0.09504
3364.85702	0.09556
3363.57125	0.09586
3362.28548	0.09592
3360.99971	0.09581
3359.71394	0.09568
3358.42818	0.09574
3357.14241	0.09615
3355.85664	0.09687
3354.57087	0.09763
3353.28510	0.09814
3351.99933	0.09838
3350.71356	0.09859
3349.42779	0.09893
3348.14202	0.09936
3346.85626	0.09981
3345.57049	0.10031
3344.28472	0.10078
3342.99895	0.10103
3341.71318	0.10095
3340.42741	0.10072
3339.14164	0.10068
3337.85587	0.10101
3336.57011	0.10162
3335.28434	0.10228
3333.99857	0.10282
3332.71280	0.10319
3331.42703	0.10351
3330.14126	0.10390
3328.85549	0.10441
3327.56972	0.10501
3326.28395	0.10553
3324.99819	0.10585
3323.71242	0.10595
3322.42665	0.10600
3321.14088	0.10621
3319.85511	0.10665
3318.56934	0.10720
3317.28357	0.10771
3315.99780	0.10803
3314.71204	0.10815
3313.42627	0.10816
3312.14050	0.10824
3310.85473	0.10849
3309.56896	0.10886
3308.28319	0.10923
3306.99742	0.10953
3305.71165	0.10975
3304.42588	0.10999
3303.14012	0.11032
3301.85435	0.11072
3300.56858	0.11103
3299.28281	0.11114
3297.99704	0.11115
3296.71127	0.11128
3295.42550	0.11163
3294.13973	0.11206
3292.85397	0.11229
3291.56820	0.11223
3290.28243	0.11204
3288.99666	0.11197
3287.71089	0.11211
3286.42512	0.11241
3285.13935	0.11276
3283.85358	0.11299
3282.56781	0.11305
3281.28205	0.11300
3279.99628	0.11291
3278.71051	0.11278
3277.42474	0.11255
3276.13897	0.11227
3274.85320	0.11207
3273.56743	0.11204
3272.28166	0.11217
3270.99590	0.11228
3269.71013	0.11221
3268.42436	0.11192
3267.13859	0.11150
3265.85282	0.11104
3264.56705	0.11058
3263.28128	0.11017
3261.99551	0.10988
3260.70974	0.10977
3259.42398	0.10984
3258.13821	0.10997
3256.85244	0.10997
3255.56667	0.10968
3254.28090	0.10914
3252.99513	0.10856
3251.70936	0.10806
3250.42359	0.10758
3249.13783	0.10703
3247.85206	0.10652
3246.56629	0.10618
3245.28052	0.10596
3243.99475	0.10572
3242.70898	0.10539
3241.42321	0.10512
3240.13744	0.10502
3238.85167	0.10508
3237.56591	0.10523
3236.28014	0.10536
3234.99437	0.10547
3233.70860	0.10551
3232.42283	0.10539
3231.13706	0.10501
3229.85129	0.10438
3228.56552	0.10369
3227.27976	0.10319
3225.99399	0.10288
3224.70822	0.10262
3223.42245	0.10225
3222.13668	0.10181
3220.85091	0.10141
3219.56514	0.10110
3218.27937	0.10084
3216.99360	0.10059
3215.70784	0.10039
3214.42207	0.10029
3213.13630	0.10026
3211.85053	0.10022
3210.56476	0.10018
3209.27899	0.10021
3207.99322	0.10033
3206.70745	0.10043
3205.42169	0.10036
3204.13592	0.10003
3202.85015	0.09951
3201.56438	0.09902
3200.27861	0.09879
3198.99284	0.09883
3197.70707	0.09892
3196.42130	0.09881
3195.13553	0.09844
3193.84977	0.09793
3192.56400	0.09739
3191.27823	0.09685
3189.99246	0.09635
3188.70669	0.09605
3187.42092	0.09604
3186.13515	0.09616
3184.84938	0.09611
3183.56362	0.09572
3182.27785	0.09512
3180.99208	0.09463
3179.70631	0.09437
3178.42054	0.09423
3177.13477	0.09404
3175.84900	0.09376
3174.56323	0.09344
3173.27746	0.09315
3171.99170	0.09289
3170.70593	0.09257
3169.42016	0.09215
3168.13439	0.09166
3166.84862	0.09121
3165.56285	0.09091
3164.27708	0.09080
3162.99131	0.09089
3161.70555	0.09109
3160.41978	0.09126
3159.13401	0.09122
3157.84824	0.09089
3156.56247	0.09037
3155.27670	0.08983
3153.99093	0.08940
3152.70516	0.08904
3151.41939	0.08869
3150.13363	0.08835
3148.84786	0.08809
3147.56209	0.08796
3146.27632	0.08785
3144.99055	0.08765
3143.70478	0.08737
3142.41901	0.08706
3141.13324	0.08679
3139.84748	0.08652
3138.56171	0.08617
3137.27594	0.08574
3135.99017	0.08527
3134.70440	0.08478
3133.41863	0.08429
3132.13286	0.08385
3130.84709	0.08353
3129.56132	0.08337
3128.27556	0.08328
3126.98979	0.08311
3125.70402	0.08285
3124.41825	0.08262
3123.13248	0.08256
3121.84671	0.08269
3120.56094	0.08292
3119.27517	0.08320
3117.98940	0.08344
3116.70364	0.08352
3115.41787	0.08332
3114.13210	0.08287
3112.84633	0.08239
3111.56056	0.08213
3110.27479	0.08213
3108.98902	0.08226
3107.70325	0.08230
3106.41749	0.08213
3105.13172	0.08185
3103.84595	0.08163
3102.56018	0.08162
3101.27441	0.08180
3099.98864	0.08202
3098.70287	0.08211
3097.41710	0.08199
3096.13133	0.08180
3094.84557	0.08173
3093.55980	0.08188
3092.27403	0.08220
3090.98826	0.08255
3089.70249	0.08281
3088.41672	0.08296
3087.13095	0.08308
3085.84518	0.08324
3084.55942	0.08340
3083.27365	0.08346
3081.98788	0.08333
3080.70211	0.08301
3079.41634	0.08261
3078.13057	0.08232
3076.84480	0.08223
3075.55903	0.08234
3074.27326	0.08254
3072.98750	0.08270
3071.70173	0.08275
3070.41596	0.08272
3069.13019	0.08272
3067.84442	0.08285
3066.55865	0.08309
3065.27288	0.08338
3063.98711	0.08362
3062.70135	0.08368
3061.41558	0.08341
3060.12981	0.08289
3058.84404	0.08241
3057.55827	0.08222
3056.27250	0.08225
3054.98673	0.08220
3053.70096	0.08192
3052.41519	0.08154
3051.12943	0.08125
3049.84366	0.08111
3048.55789	0.08103
3047.27212	0.08086
3045.98635	0.08057
3044.70058	0.08015
3043.41481	0.07963
3042.12904	0.07906
3040.84328	0.07853
3039.55751	0.07813
3038.27174	0.07795
3036.98597	0.07797
3035.70020	0.07806
3034.41443	0.07810
3033.12866	0.07809
3031.84289	0.07803
3030.55712	0.07788
3029.27136	0.07757
3027.98559	0.07714
3026.69982	0.07668
3025.41405	0.07627
3024.12828	0.07590
3022.84251	0.07559
3021.55674	0.07536
3020.27097	0.07525
3018.98521	0.07522
3017.69944	0.07524
3016.41367	0.07526
3015.12790	0.07522
3013.84213	0.07510
3012.55636	0.07489
3011.27059	0.07460
3009.98482	0.07424
3008.69905	0.07385
3007.41329	0.07352
3006.12752	0.07333
3004.84175	0.07321
3003.55598	0.07307
3002.27021	0.07286
3000.98444	0.07268
2999.69867	0.07262
2998.41290	0.07269
2997.12714	0.07281
2995.84137	0.07292
2994.55560	0.07304
2993.26983	0.07318
2991.98406	0.07333
2990.69829	0.07347
2989.41252	0.07361
2988.12675	0.07372
2986.84098	0.07384
2985.55522	0.07406
2984.26945	0.07446
2982.98368	0.07507
2981.69791	0.07578
2980.41214	0.07648
2979.12637	0.07710
2977.84060	0.07761
2976.55483	0.07796
2975.26907	0.07817
2973.98330	0.07835
2972.69753	0.07860
2971.41176	0.07895
2970.12599	0.07939
2968.84022	0.07989
2967.55445	0.08042
2966.26868	0.08094
2964.98291	0.08143
2963.69715	0.08184
2962.41138	0.08217
2961.12561	0.08242
2959.83984	0.08263
2958.55407	0.08282
2957.26830	0.08298
2955.98253	0.08309
2954.69676	0.08312
2953.41100	0.08311
2952.12523	0.08315
2950.83946	0.08324
2949.55369	0.08329
2948.26792	0.08321
2946.98215	0.08309
2945.69638	0.08314
2944.41061	0.08341
2943.12484	0.08377
2941.83908	0.08412
2940.55331	0.08456
2939.26754	0.08517
2937.98177	0.08591
2936.69600	0.08657
2935.41023	0.08702
2934.12446	0.08725
2932.83869	0.08735
2931.55293	0.08741
2930.26716	0.08751
2928.98139	0.08770
2927.69562	0.08799
2926.40985	0.08834
2925.12408	0.08867
2923.83831	0.08887
2922.55254	0.08884
2921.26677	0.08858
2919.98101	0.08822
2918.69524	0.08788
2917.40947	0.08758
2916.12370	0.08715
2914.83793	0.08643
2913.55216	0.08547
2912.26639	0.08447
2910.98062	0.08359
2909.69486	0.08281
2908.40909	0.08209
2907.12332	0.08150
2905.83755	0.08107
2904.55178	0.08071
2903.26601	0.08022
2901.98024	0.07952
2900.69447	0.07883
2899.40870	0.07838
2898.12294	0.07827
2896.83717	0.07833
2895.55140	0.07831
2894.26563	0.07806
2892.97986	0.07764
2891.69409	0.07728
2890.40832	0.07716
2889.12255	0.07727
2887.83678	0.07737
2886.55102	0.07722
2885.26525	0.07677
2883.97948	0.07625
2882.69371	0.07593
2881.40794	0.07588
2880.12217	0.07601
2878.83640	0.07614
2877.55063	0.07624
2876.26487	0.07635
2874.97910	0.07647
2873.69333	0.07658
2872.40756	0.07665
2871.12179	0.07673
2869.83602	0.07684
2868.55025	0.07691
2867.26448	0.07686
2865.97871	0.07667
2864.69295	0.07637
2863.40718	0.07595
2862.12141	0.07548
2860.83564	0.07510
2859.54987	0.07497
2858.26410	0.07512
2856.97833	0.07534
2855.69256	0.07538
2854.40680	0.07519
2853.12103	0.07489
2851.83526	0.07464
2850.54949	0.07446
2849.26372	0.07425
2847.97795	0.07386
2846.69218	0.07331
2845.40641	0.07266
2844.12064	0.07202
2842.83488	0.07139
2841.54911	0.07080
2840.26334	0.07024
2838.97757	0.06968
2837.69180	0.06909
2836.40603	0.06850
2835.12026	0.06803
2833.83449	0.06773
2832.54873	0.06757
2831.26296	0.06745
2829.97719	0.06732
2828.69142	0.06711
2827.40565	0.06687
2826.11988	0.06666
2824.83411	0.06655
2823.54834	0.06649
2822.26257	0.06634
2820.97681	0.06604
2819.69104	0.06568
2818.40527	0.06542
2817.11950	0.06534
2815.83373	0.06537
2814.54796	0.06540
2813.26219	0.06531
2811.97642	0.06508
2810.69066	0.06479
2809.40489	0.06455
2808.11912	0.06439
2806.83335	0.06430
2805.54758	0.06419
2804.26181	0.06402
2802.97604	0.06379
2801.69027	0.06350
2800.40450	0.06322
2799.11874	0.06299
2797.83297	0.06287
2796.54720	0.06287
2795.26143	0.06291
2793.97566	0.06288
2792.68989	0.06276
2791.40412	0.06254
2790.11835	0.06230
2788.83259	0.06209
2787.54682	0.06199
2786.26105	0.06208
2784.97528	0.06232
2783.68951	0.06252
2782.40374	0.06247
2781.11797	0.06210
2779.83220	0.06158
2778.54643	0.06115
2777.26067	0.06097
2775.97490	0.06096
2774.68913	0.06097
2773.40336	0.06092
2772.11759	0.06077
2770.83182	0.06054
2769.54605	0.06027
2768.26028	0.06007
2766.97452	0.06007
2765.68875	0.06026
2764.40298	0.06046
2763.11721	0.06048
2761.83144	0.06024
2760.54567	0.05982
2759.25990	0.05938
2757.97413	0.05904
2756.68836	0.05886
2755.40260	0.05880
2754.11683	0.05883
2752.83106	0.05890
2751.54529	0.05898
2750.25952	0.05905
2748.97375	0.05915
2747.68798	0.05925
2746.40221	0.05928
2745.11645	0.05916
2743.83068	0.05888
2742.54491	0.05851
2741.25914	0.05816
2739.97337	0.05790
2738.68760	0.05773
2737.40183	0.05762
2736.11606	0.05754
2734.83029	0.05746
2733.54453	0.05735
2732.25876	0.05722
2730.97299	0.05707
2729.68722	0.05690
2728.40145	0.05672
2727.11568	0.05662
2725.82991	0.05674
2724.54414	0.05709
2723.25838	0.05745
2721.97261	0.05754
2720.68684	0.05732
2719.40107	0.05695
2718.11530	0.05663
2716.82953	0.05645
2715.54376	0.05634
2714.25799	0.05618
2712.97222	0.05597
2711.68646	0.05575
2710.40069	0.05559
2709.11492	0.05548
2707.82915	0.05541
2706.54338	0.05536
2705.25761	0.05530
2703.97184	0.05521
2702.68607	0.05510
2701.40031	0.05502
2700.11454	0.05503
2698.82877	0.05506
2697.54300	0.05503
2696.25723	0.05491
2694.97146	0.05476
2693.68569	0.05463
2692.39992	0.05449
2691.11415	0.05432
2689.82839	0.05416
2688.54262	0.05406
2687.25685	0.05400
2685.97108	0.05392
2684.68531	0.05376
2683.39954	0.05355
2682.11377	0.05331
2680.82800	0.05307
2679.54224	0.05289
2678.25647	0.05287
2676.97070	0.05306
2675.68493	0.05337
2674.39916	0.05362
2673.11339	0.05372
2671.82762	0.05367
2670.54185	0.05352
2669.25608	0.05332
2667.97032	0.05312
2666.68455	0.05299
2665.39878	0.05291
2664.11301	0.05280
2662.82724	0.05266
2661.54147	0.05254
2660.25570	0.05253
2658.96993	0.05262
2657.68417	0.05273
2656.39840	0.05275
2655.11263	0.05263
2653.82686	0.05245
2652.54109	0.05228
2651.25532	0.05212
2649.96955	0.05192
2648.68378	0.05168
2647.39801	0.05147
2646.11225	0.05131
2644.82648	0.05115
2643.54071	0.05097
2642.25494	0.05083
2640.96917	0.05080
2639.68340	0.05084
2638.39763	0.05077
2637.11186	0.05050
2635.82609	0.05010
2634.54033	0.04976
2633.25456	0.04961
2631.96879	0.04957
2630.68302	0.04952
2629.39725	0.04946
2628.11148	0.04945
2626.82571	0.04952
2625.53994	0.04954
2624.25418	0.04939
2622.96841	0.04908
2621.68264	0.04879
2620.39687	0.04865
2619.11110	0.04868
2617.82533	0.04879
2616.53956	0.04889
2615.25379	0.04890
2613.96802	0.04876
2612.68226	0.04842
2611.39649	0.04793
2610.11072	0.04744
2608.82495	0.04706
2607.53918	0.04680
2606.25341	0.04663
2604.96764	0.04652
2603.68187	0.04649
2602.39611	0.04649
2601.11034	0.04649
2599.82457	0.04643
2598.53880	0.04628
2597.25303	0.04605
2595.96726	0.04581
2594.68149	0.04560
2593.39572	0.04532
2592.10995	0.04483
2590.82419	0.04422
2589.53842	0.04385
2588.25265	0.04394
2586.96688	0.04434
2585.68111	0.04469
2584.39534	0.04472
2583.10957	0.04442
2581.82380	0.04400
2580.53804	0.04370
2579.25227	0.04363
2577.96650	0.04374
2576.68073	0.04388
2575.39496	0.04391
2574.10919	0.04382
2572.82342	0.04361
2571.53765	0.04330
2570.25188	0.04295
2568.96612	0.04262
2567.68035	0.04240
2566.39458	0.04236
2565.10881	0.04252
2563.82304	0.04272
2562.53727	0.04279
2561.25150	0.04260
2559.96573	0.04227
2558.67997	0.04198
2557.39420	0.04189
2556.10843	0.04199
2554.82266	0.04212
2553.53689	0.04209
2552.25112	0.04184
2550.96535	0.04148
2549.67958	0.04124
2548.39381	0.04131
2547.10805	0.04159
2545.82228	0.04179
2544.53651	0.04179
2543.25074	0.04171
2541.96497	0.04172
2540.67920	0.04181
2539.39343	0.04185
2538.10766	0.04182
2536.82190	0.04181
2535.53613	0.04180
2534.25036	0.04168
2532.96459	0.04141
2531.67882	0.04107
2530.39305	0.04080
2529.10728	0.04066
2527.82151	0.04061
2526.53574	0.04067
2525.24998	0.04085
2523.96421	0.04110
2522.67844	0.04127
2521.39267	0.04126
2520.10690	0.04107
2518.82113	0.04075
2517.53536	0.04037
2516.24959	0.04004
2514.96383	0.03976
2513.67806	0.03951
2512.39229	0.03928
2511.10652	0.03918
2509.82075	0.03931
2508.53498	0.03967
2507.24921	0.04013
2505.96344	0.04048
2504.67767	0.04052
2503.39191	0.04020
2502.10614	0.03975
2500.82037	0.03952
2499.53460	0.03967
2498.24883	0.04004
2496.96306	0.04030
2495.67729	0.04025
2494.39152	0.03998
2493.10576	0.03978
2491.81999	0.03985
2490.53422	0.04011
2489.24845	0.04027
2487.96268	0.04012
2486.67691	0.03970
2485.39114	0.03916
2484.10537	0.03866
2482.81960	0.03831
2481.53384	0.03823
2480.24807	0.03846
2478.96230	0.03892
2477.67653	0.03941
2476.39076	0.03970
2475.10499	0.03978
2473.81922	0.03975
2472.53345	0.03971
2471.24769	0.03957
2469.96192	0.03922
2468.67615	0.03872
2467.39038	0.03835
2466.10461	0.03832
2464.81884	0.03856
2463.53307	0.03883
2462.24730	0.03893
2460.96153	0.03883
2459.67577	0.03869
2458.39000	0.03865
2457.10423	0.03871
2455.81846	0.03873
2454.53269	0.03863
2453.24692	0.03845
2451.96115	0.03835
2450.67538	0.03836
2449.38962	0.03839
2448.10385	0.03827
2446.81808	0.03796
2445.53231	0.03757
2444.24654	0.03726
2442.96077	0.03715
2441.67500	0.03717
2440.38923	0.03722
2439.10346	0.03730
2437.81770	0.03749
2436.53193	0.03777
2435.24616	0.03796
2433.96039	0.03795
2432.67462	0.03783
2431.38885	0.03776
2430.10308	0.03775
2428.81731	0.03768
2427.53155	0.03751
2426.24578	0.03741
2424.96001	0.03749
2423.67424	0.03763
2422.38847	0.03761
2421.10270	0.03745
2419.81693	0.03739
2418.53116	0.03760
2417.24539	0.03793
2415.95963	0.03810
2414.67386	0.03808
2413.38809	0.03803
2412.10232	0.03808
2410.81655	0.03806
2409.53078	0.03776
2408.24501	0.03723
2406.95924	0.03673
2405.67347	0.03653
2404.38771	0.03665
2403.10194	0.03684
2401.81617	0.03688
2400.53040	0.03671
2399.24463	0.03634
2397.95886	0.03628
2396.67309	0.03653
2395.38732	0.03689
2394.10156	0.03714
2392.81579	0.03719
2391.53002	0.03712
2390.24425	0.03711
2388.95848	0.03723
2387.67271	0.03739
2386.38694	0.03743
2385.10117	0.03730
2383.81540	0.03719
2382.52964	0.03731
2381.24387	0.03771
2379.95810	0.03818
2378.67233	0.03844
2377.38656	0.03842
2376.10079	0.03821
2374.81502	0.03797
2373.52925	0.03786
2372.24349	0.03786
2370.95772	0.03796
2369.67195	0.03789
2368.38618	0.03774
2367.10041	0.03780
2365.81464	0.03814
2364.52887	0.03822
2363.24310	0.03806
2361.95733	0.03800
2360.67157	0.03830
2359.38580	0.03847
2358.10003	0.03847
2356.81426	0.03838
2355.52849	0.03832
2354.24272	0.03838
2352.95695	0.03847
2351.67118	0.03877
2350.38542	0.03916
2349.09965	0.03905
2347.81388	0.03835
2346.52811	0.03810
2345.24234	0.03847
2343.95657	0.03867
2342.67080	0.03825
2341.38503	0.03825
2340.09926	0.03884
2338.81350	0.03855
2337.52773	0.03748
2336.24196	0.03739
2334.95619	0.03803
2333.67042	0.03757
2332.38465	0.03628
2331.09888	0.03646
2329.81311	0.03680
2328.52735	0.03570
2327.24158	0.03601
2325.95581	0.03735
2324.67004	0.03757
2323.38427	0.03810
2322.09850	0.03903
2320.81273	0.03848
2319.52696	0.03819
2318.24119	0.03831
2316.95543	0.03782
2315.66966	0.03773
2314.38389	0.03774
2313.09812	0.03730
2311.81235	0.03710
2310.52658	0.03674
2309.24081	0.03637
2307.95504	0.03621
2306.66928	0.03591
2305.38351	0.03575
2304.09774	0.03558
2302.81197	0.03530
2301.52620	0.03511
2300.24043	0.03490
2298.95466	0.03472
2297.66889	0.03441
2296.38312	0.03398
2295.09736	0.03367
2293.81159	0.03357
2292.52582	0.03364
2291.24005	0.03360
2289.95428	0.03337
2288.66851	0.03311
2287.38274	0.03314
2286.09697	0.03361
2284.81121	0.03428
2283.52544	0.03471
2282.23967	0.03463
2280.95390	0.03409
2279.66813	0.03337
2278.38236	0.03268
2277.09659	0.03204
2275.81082	0.03141
2274.52505	0.03073
2273.23929	0.03017
2271.95352	0.03003
2270.66775	0.03042
2269.38198	0.03100
2268.09621	0.03128
2266.81044	0.03102
2265.52467	0.03034
2264.23890	0.02950
2262.95314	0.02876
2261.66737	0.02828
2260.38160	0.02810
2259.09583	0.02816
2257.81006	0.02831
2256.52429	0.02840
2255.23852	0.02825
2253.95275	0.02783
2252.66698	0.02718
2251.38122	0.02648
2250.09545	0.02611
2248.80968	0.02628
2247.52391	0.02622
2246.23814	0.02636
2244.95237	0.02651
2243.66660	0.02645
2242.38083	0.02631
2241.09507	0.02640
2239.80930	0.02682
2238.52353	0.02733
2237.23776	0.02757
2235.95199	0.02745
2234.66622	0.02711
2233.38045	0.02655
2232.09468	0.02565
2230.80891	0.02451
2229.52315	0.02349
2228.23738	0.02288
2226.95161	0.02266
2225.66584	0.02267
2224.38007	0.02295
2223.09430	0.02359
2221.80853	0.02446
2220.52276	0.02520
2219.23700	0.02555
2217.95123	0.02555
2216.66546	0.02545
2215.37969	0.02546
2214.09392	0.02566
2212.80815	0.02597
2211.52238	0.02616
2210.23661	0.02585
2208.95084	0.02497
2207.66508	0.02401
2206.37931	0.02352
2205.09354	0.02340
2203.80777	0.02321
2202.52200	0.02290
2201.23623	0.02278
2199.95046	0.02273
2198.66469	0.02231
2197.37893	0.02146
2196.09316	0.02077
2194.80739	0.02082
2193.52162	0.02166
2192.23585	0.02286
2190.95008	0.02366
2189.66431	0.02332
2188.37854	0.02182
2187.09277	0.02016
2185.80701	0.01944
2184.52124	0.01961
2183.23547	0.01970
2181.94970	0.01907
2180.66393	0.01811
2179.37816	0.01748
2178.09239	0.01710
2176.80662	0.01648
2175.52085	0.01548
2174.23509	0.01463
2172.94932	0.01455
2171.66355	0.01532
2170.37778	0.01642
2169.09201	0.01721
2167.80624	0.01756
2166.52047	0.01778
2165.23470	0.01812
2163.94894	0.01830
2162.66317	0.01777
2161.37740	0.01634
2160.09163	0.01447
2158.80586	0.01306
2157.52009	0.01271
2156.23432	0.01343
2154.94855	0.01486
2153.66278	0.01653
2152.37702	0.01817
2151.09125	0.01979
2149.80548	0.02141
2148.51971	0.02266
2147.23394	0.02282
2145.94817	0.02156
2144.66240	0.01958
2143.37663	0.01819
2142.09087	0.01815
2140.80510	0.01910
2139.51933	0.02021
2138.23356	0.02099
2136.94779	0.02151
2135.66202	0.02189
2134.37625	0.02211
2133.09048	0.02211
2131.80471	0.02186
2130.51895	0.02146
2129.23318	0.02116
2127.94741	0.02130
2126.66164	0.02196
2125.37587	0.02269
2124.09010	0.02297
2122.80433	0.02282
2121.51856	0.02272
2120.23280	0.02293
2118.94703	0.02318
2117.66126	0.02321
2116.37549	0.02315
2115.08972	0.02333
2113.80395	0.02373
2112.51818	0.02406
2111.23241	0.02416
2109.94664	0.02407
2108.66088	0.02394
2107.37511	0.02387
2106.08934	0.02378
2104.80357	0.02346
2103.51780	0.02284
2102.23203	0.02221
2100.94626	0.02199
2099.66049	0.02280
2098.37473	0.02336
2097.08896	0.02350
2095.80319	0.02345
2094.51742	0.02329
2093.23165	0.02298
2091.94588	0.02249
2090.66011	0.02186
2089.37434	0.02125
2088.08857	0.02089
2086.80281	0.02095
2085.51704	0.02140
2084.23127	0.02192
2082.94550	0.02218
2081.65973	0.02211
2080.37396	0.02197
2079.08819	0.02209
2077.80242	0.02250
2076.51666	0.02284
2075.23089	0.02275
2073.94512	0.02223
2072.65935	0.02165
2071.37358	0.02136
2070.08781	0.02141
2068.80204	0.02167
2067.51627	0.02200
2066.23050	0.02222
2064.94474	0.02217
2063.65897	0.02177
2062.37320	0.02113
2061.08743	0.02049
2059.80166	0.02002
2058.51589	0.01968
2057.23012	0.01935
2055.94435	0.01902
2054.65859	0.01896
2053.37282	0.01938
2052.08705	0.02016
2050.80128	0.02077
2049.51551	0.02068
2048.22974	0.01973
2046.94397	0.01831
2045.65820	0.01703
2044.37243	0.01638
2043.08667	0.01635
2041.80090	0.01663
2040.51513	0.01688
2039.22936	0.01705
2037.94359	0.01713
2036.65782	0.01698
2035.37205	0.01650
2034.08628	0.01584
2032.80052	0.01533
2031.51475	0.01500
2030.22898	0.01453
2028.94321	0.01375
2027.65744	0.01288
2026.37167	0.01232
2025.08590	0.01229
2023.80013	0.01280
2022.51436	0.01371
2021.22860	0.01462
2019.94283	0.01498
2018.65706	0.01459
2017.37129	0.01391
2016.08552	0.01364
2014.79975	0.01404
2013.51398	0.01478
2012.22821	0.01542
2010.94245	0.01581
2009.65668	0.01600
2008.37091	0.01604
2007.08514	0.01586
2005.79937	0.01552
2004.51360	0.01521
2003.22783	0.01516
2001.94206	0.01543
2000.65629	0.01584
1999.37053	0.01614
1998.08476	0.01628
1996.79899	0.01646
1995.51322	0.01680
1994.22745	0.01723
1992.94168	0.01758
1991.65591	0.01781
1990.37014	0.01794
1989.08438	0.01791
1987.79861	0.01766
1986.51284	0.01721
1985.22707	0.01673
1983.94130	0.01641
1982.65553	0.01630
1981.36976	0.01633
1980.08399	0.01640
1978.79822	0.01655
1977.51246	0.01682
1976.22669	0.01699
1974.94092	0.01671
1973.65515	0.01594
1972.36938	0.01509
1971.08361	0.01468
1969.79784	0.01495
1968.51207	0.01566
1967.22631	0.01633
1965.94054	0.01656
1964.65477	0.01629
1963.36900	0.01586
1962.08323	0.01576
1960.79746	0.01624
1959.51169	0.01714
1958.22592	0.01797
1956.94015	0.01832
1955.65439	0.01822
1954.36862	0.01796
1953.08285	0.01779
1951.79708	0.01773
1950.51131	0.01769
1949.22554	0.01760
1947.93977	0.01746
1946.65400	0.01738
1945.36823	0.01749
1944.08247	0.01790
1942.79670	0.01852
1941.51093	0.01913
1940.22516	0.01948
1938.93939	0.01950
1937.65362	0.01938
1936.36785	0.01930
1935.08208	0.01928
1933.79632	0.01921
1932.51055	0.01903
1931.22478	0.01879
1929.93901	0.01863
1928.65324	0.01865
1927.36747	0.01883
1926.08170	0.01898
1924.79593	0.01894
1923.51016	0.01877
1922.22440	0.01871
1920.93863	0.01892
1919.65286	0.01932
1918.36709	0.01968
1917.08132	0.01985
1915.79555	0.01987
1914.50978	0.01988
1913.22401	0.02003
1911.93825	0.02027
1910.65248	0.02046
1909.36671	0.02051
1908.08094	0.02049
1906.79517	0.02048
1905.50940	0.02051
1904.22363	0.02053
1902.93786	0.02055
1901.65209	0.02055
1900.36633	0.02049
1899.08056	0.02029
1897.79479	0.01998
1896.50902	0.01968
1895.22325	0.01950
1893.93748	0.01947
1892.65171	0.01963
1891.36594	0.01996
1890.08018	0.02038
1888.79441	0.02070
1887.50864	0.02077
1886.22287	0.02063
1884.93710	0.02045
1883.65133	0.02037
1882.36556	0.02038
1881.07979	0.02036
1879.79402	0.02025
1878.50826	0.02011
1877.22249	0.02005
1875.93672	0.02010
1874.65095	0.02019
1873.36518	0.02025
1872.07941	0.02023
1870.79364	0.02016
1869.50787	0.02006
1868.22211	0.01998
1866.93634	0.01990
1865.65057	0.01983
1864.36480	0.01978
1863.07903	0.01980
1861.79326	0.01989
1860.50749	0.02000
1859.22172	0.02007
1857.93595	0.02004
1856.65019	0.01996
1855.36442	0.01992
1854.07865	0.01998
1852.79288	0.02014
1851.50711	0.02032
1850.22134	0.02048
1848.93557	0.02054
1847.64980	0.02045
1846.36404	0.02018
1845.07827	0.01982
1843.79250	0.01951
1842.50673	0.01939
1841.22096	0.01941
1839.93519	0.01952
1838.64942	0.01969
1837.36365	0.01986
1836.07788	0.01997
1834.79212	0.01997
1833.50635	0.01992
1832.22058	0.01992
1830.93481	0.01998
1829.64904	0.02004
1828.36327	0.02004
1827.07750	0.01993
1825.79173	0.01978
1824.50597	0.01972
1823.22020	0.01980
1821.93443	0.01999
1820.64866	0.02020
1819.36289	0.02027
1818.07712	0.02015
1816.79135	0.01988
1815.50558	0.01964
1814.21981	0.01953
1812.93405	0.01953
1811.64828	0.01955
1810.36251	0.01954
1809.07674	0.01952
1807.79097	0.01956
1806.50520	0.01967
1805.21943	0.01981
1803.93366	0.01991
1802.64790	0.01993
1801.36213	0.01991
1800.07636	0.01987
1798.79059	0.01984
1797.50482	0.01985
1796.21905	0.01992
1794.93328	0.02003
1793.64751	0.02011
1792.36174	0.02012
1791.07598	0.02005
1789.79021	0.01993
1788.50444	0.01982
1787.21867	0.01977
1785.93290	0.01978
1784.64713	0.01983
1783.36136	0.01986
1782.07559	0.01985
1780.78983	0.01981
1779.50406	0.01976
1778.21829	0.01973
1776.93252	0.01971
1775.64675	0.01969
1774.36098	0.01962
1773.07521	0.01953
1771.78944	0.01949
1770.50367	0.01948
1769.21791	0.01946
1767.93214	0.01946
1766.64637	0.01953
1765.36060	0.01964
1764.07483	0.01973
1762.78906	0.01980
1761.50329	0.01990
1760.21752	0.02001
1758.93176	0.02009
1757.64599	0.02012
1756.36022	0.02018
1755.07445	0.02030
1753.78868	0.02042
1752.50291	0.02048
1751.21714	0.02055
1749.93137	0.02070
1748.64560	0.02092
1747.35984	0.02119
1746.07407	0.02150
1744.78830	0.02185
1743.50253	0.02220
1742.21676	0.02253
1740.93099	0.02284
1739.64522	0.02316
1738.35945	0.02354
1737.07369	0.02388
1735.78792	0.02410
1734.50215	0.02422
1733.21638	0.02436
1731.93061	0.02454
1730.64484	0.02472
1729.35907	0.02492
1728.07330	0.02519
1726.78753	0.02554
1725.50177	0.02591
1724.21600	0.02624
1722.93023	0.02652
1721.64446	0.02677
1720.35869	0.02701
1719.07292	0.02725
1717.78715	0.02752
1716.50138	0.02784
1715.21561	0.02817
1713.92985	0.02847
1712.64408	0.02877
1711.35831	0.02912
1710.07254	0.02960
1708.78677	0.03025
1707.50100	0.03108
1706.21523	0.03205
1704.92946	0.03314
1703.64370	0.03430
1702.35793	0.03550
1701.07216	0.03679
1699.78639	0.03830
1698.50062	0.03996
1697.21485	0.04158
1695.92908	0.04312
1694.64331	0.04468
1693.35754	0.04624
1692.07178	0.04775
1690.78601	0.04933
1689.50024	0.05107
1688.21447	0.05294
1686.92870	0.05481
1685.64293	0.05662
1684.35716	0.05844
1683.07139	0.06032
1681.78563	0.06217
1680.49986	0.06397
1679.21409	0.06586
1677.92832	0.06784
1676.64255	0.06987
1675.35678	0.07191
1674.07101	0.07399
1672.78524	0.07606
1671.49947	0.07810
1670.21371	0.08015
1668.92794	0.08224
1667.64217	0.08435
1666.35640	0.08644
1665.07063	0.08851
1663.78486	0.09062
1662.49909	0.09278
1661.21332	0.09489
1659.92756	0.09686
1658.64179	0.09867
1657.35602	0.10042
1656.07025	0.10215
1654.78448	0.10378
1653.49871	0.10532
1652.21294	0.10679
1650.92717	0.10810
1649.64140	0.10913
1648.35564	0.10993
1647.06987	0.11065
1645.78410	0.11136
1644.49833	0.11198
1643.21256	0.11247
1641.92679	0.11290
1640.64102	0.11336
1639.35525	0.11386
1638.06949	0.11427
1636.78372	0.11450
1635.49795	0.11461
1634.21218	0.11467
1632.92641	0.11465
1631.64064	0.11447
1630.35487	0.11410
1629.06910	0.11349
1627.78333	0.11264
1626.49757	0.11153
1625.21180	0.11016
1623.92603	0.10862
1622.64026	0.10699
1621.35449	0.10529
1620.06872	0.10348
1618.78295	0.10149
1617.49718	0.09931
1616.21142	0.09704
1614.92565	0.09473
1613.63988	0.09243
1612.35411	0.09018
1611.06834	0.08801
1609.78257	0.08591
1608.49680	0.08384
1607.21103	0.08186
1605.92526	0.07998
1604.63950	0.07822
1603.35373	0.07653
1602.06796	0.07489
1600.78219	0.07332
1599.49642	0.07184
1598.21065	0.07049
1596.92488	0.06925
1595.63911	0.06812
1594.35335	0.06707
1593.06758	0.06611
1591.78181	0.06524
1590.49604	0.06450
1589.21027	0.06390
1587.92450	0.06347
1586.63873	0.06316
1585.35296	0.06292
1584.06719	0.06273
1582.78143	0.06258
1581.49566	0.06251
1580.20989	0.06259
1578.92412	0.06279
1577.63835	0.06307
1576.35258	0.06345
1575.06681	0.06400
1573.78104	0.06466
1572.49528	0.06534
1571.20951	0.06603
1569.92374	0.06682
1568.63797	0.06774
1567.35220	0.06876
1566.06643	0.06984
1564.78066	0.07099
1563.49489	0.07221
1562.20912	0.07344
1560.92336	0.07465
1559.63759	0.07589
1558.35182	0.07723
1557.06605	0.07857
1555.78028	0.07980
1554.49451	0.08096
1553.20874	0.08217
1551.92297	0.08342
1550.63721	0.08462
1549.35144	0.08574
1548.06567	0.08677
1546.77990	0.08775
1545.49413	0.08871
1544.20836	0.08967
1542.92259	0.09056
1541.63682	0.09131
1540.35105	0.09190
1539.06529	0.09240
1537.77952	0.09282
1536.49375	0.09312
1535.20798	0.09330
1533.92221	0.09344
1532.63644	0.09359
1531.35067	0.09367
1530.06490	0.09361
1528.77914	0.09348
1527.49337	0.09335
1526.20760	0.09327
1524.92183	0.09323
1523.63606	0.09318
1522.35029	0.09307
1521.06452	0.09294
1519.77875	0.09277
1518.49298	0.09249
1517.20722	0.09205
1515.92145	0.09152
1514.63568	0.09091
1513.34991	0.09017
1512.06414	0.08929
1510.77837	0.08828
1509.49260	0.08715
1508.20683	0.08591
1506.92107	0.08459
1505.63530	0.08324
1504.34953	0.08180
1503.06376	0.08023
1501.77799	0.07859
1500.49222	0.07701
1499.20645	0.07552
1497.92068	0.07406
1496.63491	0.07258
1495.34915	0.07107
1494.06338	0.06951
1492.77761	0.06788
1491.49184	0.06624
1490.20607	0.06468
1488.92030	0.06325
1487.63453	0.06194
1486.34876	0.06071
1485.06299	0.05959
1483.77723	0.05858
1482.49146	0.05773
1481.20569	0.05709
1479.91992	0.05668
1478.63415	0.05646
1477.34838	0.05640
1476.06261	0.05646
1474.77684	0.05661
1473.49108	0.05687
1472.20531	0.05731
1470.91954	0.05791
1469.63377	0.05856
1468.34800	0.05914
1467.06223	0.05958
1465.77646	0.05994
1464.49069	0.06028
1463.20492	0.06068
1461.91916	0.06115
1460.63339	0.06168
1459.34762	0.06222
1458.06185	0.06275
1456.77608	0.06333
1455.49031	0.06393
1454.20454	0.06441
1452.91877	0.06464
1451.63301	0.06468
1450.34724	0.06463
1449.06147	0.06453
1447.77570	0.06443
1446.48993	0.06430
1445.20416	0.06413
1443.91839	0.06390
1442.63262	0.06367
1441.34685	0.06345
1440.06109	0.06321
1438.77532	0.06289
1437.48955	0.06247
1436.20378	0.06199
1434.91801	0.06147
1433.63224	0.06088
1432.34647	0.06025
1431.06070	0.05963
1429.77494	0.05910
1428.48917	0.05866
1427.20340	0.05833
1425.91763	0.05811
1424.63186	0.05801
1423.34609	0.05802
1422.06032	0.05808
1420.77455	0.05811
1419.48878	0.05813
1418.20302	0.05817
1416.91725	0.05820
1415.63148	0.05821
1414.34571	0.05823
1413.05994	0.05829
1411.77417	0.05838
1410.48840	0.05848
1409.20263	0.05856
1407.91687	0.05862
1406.63110	0.05866
1405.34533	0.05867
1404.05956	0.05869
1402.77379	0.05871
1401.48802	0.05872
1400.20225	0.05872
1398.91648	0.05873
1397.63071	0.05872
1396.34495	0.05867
1395.05918	0.05858
1393.77341	0.05849
1392.48764	0.05842
1391.20187	0.05836
1389.91610	0.05829
1388.63033	0.05819
1387.34456	0.05807
1386.05880	0.05793
1384.77303	0.05780
1383.48726	0.05769
1382.20149	0.05762
1380.91572	0.05753
1379.62995	0.05738
1378.34418	0.05712
1377.05841	0.05676
1375.77264	0.05636
1374.48688	0.05596
1373.20111	0.05560
1371.91534	0.05528
1370.62957	0.05496
1369.34380	0.05461
1368.05803	0.05423
1366.77226	0.05381
1365.48649	0.05335
1364.20073	0.05285
1362.91496	0.05234
1361.62919	0.05186
1360.34342	0.05149
1359.05765	0.05122
1357.77188	0.05103
1356.48611	0.05087
1355.20034	0.05070
1353.91457	0.05055
1352.62881	0.05046
1351.34304	0.05046
1350.05727	0.05052
1348.77150	0.05061
1347.48573	0.05072
1346.19996	0.05087
1344.91419	0.05106
1343.62842	0.05127
1342.34266	0.05144
1341.05689	0.05157
1339.77112	0.05164
1338.48535	0.05171
1337.19958	0.05177
1335.91381	0.05178
1334.62804	0.05169
1333.34227	0.05151
1332.05650	0.05127
1330.77074	0.05103
1329.48497	0.05081
1328.19920	0.05061
1326.91343	0.05046
1325.62766	0.05036
1324.34189	0.05030
1323.05612	0.05026
1321.77035	0.05022
1320.48459	0.05018
1319.19882	0.05016
1317.91305	0.05018
1316.62728	0.05021
1315.34151	0.05020
1314.05574	0.05014
1312.76997	0.05005
1311.48420	0.04993
1310.19843	0.04978
1308.91267	0.04965
1307.62690	0.04957
1306.34113	0.04954
1305.05536	0.04951
1303.76959	0.04947
1302.48382	0.04944
1301.19805	0.04942
1299.91228	0.04941
1298.62652	0.04939
1297.34075	0.04936
1296.05498	0.04934
1294.76921	0.04931
1293.48344	0.04929
1292.19767	0.04929
1290.91190	0.04937
1289.62613	0.04955
1288.34036	0.04980
1287.05460	0.05007
1285.76883	0.05029
1284.48306	0.05046
1283.19729	0.05061
1281.91152	0.05078
1280.62575	0.05095
1279.33998	0.05112
1278.05421	0.05126
1276.76845	0.05139
1275.48268	0.05151
1274.19691	0.05165
1272.91114	0.05181
1271.62537	0.05199
1270.33960	0.05217
1269.05383	0.05237
1267.76806	0.05257
1266.48229	0.05279
1265.19653	0.05304
1263.91076	0.05332
1262.62499	0.05362
1261.33922	0.05392
1260.05345	0.05422
1258.76768	0.05453
1257.48191	0.05488
1256.19614	0.05531
1254.91037	0.05578
1253.62461	0.05627
1252.33884	0.05674
1251.05307	0.05718
1249.76730	0.05761
1248.48153	0.05804
1247.19576	0.05851
1245.90999	0.05903
1244.62422	0.05956
1243.33846	0.06005
1242.05269	0.06046
1240.76692	0.06079
1239.48115	0.06110
1238.19538	0.06142
1236.90961	0.06177
1235.62384	0.06209
1234.33807	0.06231
1233.05230	0.06237
1231.76654	0.06231
1230.48077	0.06218
1229.19500	0.06204
1227.90923	0.06189
1226.62346	0.06168
1225.33769	0.06141
1224.05192	0.06110
1222.76615	0.06075
1221.48039	0.06039
1220.19462	0.06005
1218.90885	0.05973
1217.62308	0.05947
1216.33731	0.05927
1215.05154	0.05908
1213.76577	0.05887
1212.48000	0.05865
1211.19423	0.05844
1209.90847	0.05832
1208.62270	0.05831
1207.33693	0.05840
1206.05116	0.05850
1204.76539	0.05856
1203.47962	0.05855
1202.19385	0.05850
1200.90808	0.05836
1199.62232	0.05811
1198.33655	0.05789
1197.05078	0.05762
1195.76501	0.05734
1194.47924	0.05709
1193.19347	0.05690
1191.90770	0.05678
1190.62193	0.05671
1189.33616	0.05666
1188.05040	0.05660
1186.76463	0.05653
1185.47886	0.05650
1184.19309	0.05655
1182.90732	0.05670
1181.62155	0.05690
1180.33578	0.05713
1179.05001	0.05739
1177.76425	0.05765
1176.47848	0.05789
1175.19271	0.05811
1173.90694	0.05837
1172.62117	0.05871
1171.33540	0.05914
1170.04963	0.05960
1168.76386	0.06003
1167.47809	0.06040
1166.19233	0.06071
1164.90656	0.06099
1163.62079	0.06124
1162.33502	0.06144
1161.04925	0.06162
1159.76348	0.06180
1158.47771	0.06198
1157.19194	0.06212
1155.90618	0.06219
1154.62041	0.06220
1153.33464	0.06217
1152.04887	0.06211
1150.76310	0.06199
1149.47733	0.06185
1148.19156	0.06169
1146.90579	0.06155
1145.62002	0.06144
1144.33426	0.06135
1143.04849	0.06129
1141.76272	0.06125
1140.47695	0.06121
1139.19118	0.06118
1137.90541	0.06116
1136.61964	0.06120
1135.33387	0.06131
1134.04811	0.06153
1132.76234	0.06185
1131.47657	0.06220
1130.19080	0.06251
1128.90503	0.06272
1127.61926	0.06286
1126.33349	0.06301
1125.04772	0.06325
1123.76195	0.06358
1122.47619	0.06394
1121.19042	0.06428
1119.90465	0.06461
1118.61888	0.06496
1117.33311	0.06536
1116.04734	0.06582
1114.76157	0.06633
1113.47580	0.06686
1112.19004	0.06735
1110.90427	0.06778
1109.61850	0.06816
1108.33273	0.06854
1107.04696	0.06900
1105.76119	0.06954
1104.47542	0.07012
1103.18965	0.07067
1101.90388	0.07114
1100.61812	0.07155
1099.33235	0.07191
1098.04658	0.07226
1096.76081	0.07260
1095.47504	0.07296
1094.18927	0.07336
1092.90350	0.07378
1091.61773	0.07413
1090.33197	0.07437
1089.04620	0.07450
1087.76043	0.07460
1086.47466	0.07477
1085.18889	0.07508
1083.90312	0.07550
1082.61735	0.07593
1081.33158	0.07627
1080.04581	0.07649
1078.76005	0.07663
1077.47428	0.07673
1076.18851	0.07681
1074.90274	0.07689
1073.61697	0.07698
1072.33120	0.07710
1071.04543	0.07726
1069.75966	0.07746
1068.47390	0.07772
1067.18813	0.07802
1065.90236	0.07832
1064.61659	0.07862
1063.33082	0.07894
1062.04505	0.07931
1060.75928	0.07970
1059.47351	0.08007
1058.18774	0.08038
1056.90198	0.08070
1055.61621	0.08108
1054.33044	0.08154
1053.04467	0.08201
1051.75890	0.08245
1050.47313	0.08283
1049.18736	0.08317
1047.90159	0.08350
1046.61583	0.08385
1045.33006	0.08423
1044.04429	0.08463
1042.75852	0.08505
1041.47275	0.08551
1040.18698	0.08599
1038.90121	0.08647
1037.61544	0.08689
1036.32967	0.08724
1035.04391	0.08749
1033.75814	0.08765
1032.47237	0.08770
1031.18660	0.08765
1029.90083	0.08752
1028.61506	0.08731
1027.32929	0.08704
1026.04352	0.08669
1024.75775	0.08631
1023.47199	0.08593
1022.18622	0.08550
1020.90045	0.08501
1019.61468	0.08448
1018.32891	0.08398
1017.04314	0.08353
1015.75737	0.08313
1014.47160	0.08271
1013.18584	0.08224
1011.90007	0.08168
1010.61430	0.08107
1009.32853	0.08048
1008.04276	0.08000
1006.75699	0.07964
1005.47122	0.07931
1004.18545	0.07891
1002.89968	0.07842
1001.61392	0.07787
1000.32815	0.07736
999.04238	0.07691
997.75661	0.07650
996.47084	0.07609
995.18507	0.07568
993.89930	0.07529
992.61353	0.07493
991.32777	0.07457
990.04200	0.07416
988.75623	0.07372
987.47046	0.07329
986.18469	0.07290
984.89892	0.07259
983.61315	0.07232
982.32738	0.07204
981.04161	0.07169
979.75585	0.07130
978.47008	0.07094
977.18431	0.07066
975.89854	0.07044
974.61277	0.07023
973.32700	0.06994
972.04123	0.06958
970.75546	0.06922
969.46970	0.06897
968.18393	0.06888
966.89816	0.06890
965.61239	0.06886
964.32662	0.06864
963.04085	0.06825
961.75508	0.06778
960.46931	0.06738
959.18354	0.06706
957.89778	0.06675
956.61201	0.06633
955.32624	0.06578
954.04047	0.06513
952.75470	0.06444
951.46893	0.06375
950.18316	0.06307
948.89739	0.06243
947.61163	0.06187
946.32586	0.06141
945.04009	0.06098
943.75432	0.06050
942.46855	0.05997
941.18278	0.05941
939.89701	0.05885
938.61124	0.05828
937.32547	0.05769
936.03971	0.05712
934.75394	0.05662
933.46817	0.05615
932.18240	0.05568
930.89663	0.05518
929.61086	0.05468
928.32509	0.05420
927.03932	0.05374
925.75356	0.05327
924.46779	0.05278
923.18202	0.05233
921.89625	0.05197
920.61048	0.05171
919.32471	0.05145
918.03894	0.05107
916.75317	0.05056
915.46740	0.05004
914.18164	0.04964
912.89587	0.04934
911.61010	0.04901
910.32433	0.04855
909.03856	0.04802
907.75279	0.04751
906.46702	0.04708
905.18125	0.04671
903.89549	0.04636
902.60972	0.04602
901.32395	0.04570
900.03818	0.04548
898.75241	0.04540
897.46664	0.04537
896.18087	0.04530
894.89510	0.04517
893.60933	0.04496
892.32357	0.04469
891.03780	0.04436
889.75203	0.04403
888.46626	0.04374
887.18049	0.04352
885.89472	0.04338
884.60895	0.04330
883.32318	0.04322
882.03742	0.04308
880.75165	0.04290
879.46588	0.04273
878.18011	0.04258
876.89434	0.04242
875.60857	0.04223
874.32280	0.04201
873.03703	0.04177
871.75126	0.04150
870.46550	0.04122
869.17973	0.04093
867.89396	0.04066
866.60819	0.04044
865.32242	0.04027
864.03665	0.04014
862.75088	0.04004
861.46511	0.03994
860.17935	0.03979
858.89358	0.03957
857.60781	0.03930
856.32204	0.03905
855.03627	0.03884
853.75050	0.03868
852.46473	0.03856
851.17896	0.03842
849.89319	0.03825
848.60743	0.03803
847.32166	0.03778
846.03589	0.03751
844.75012	0.03727
843.46435	0.03710
842.17858	0.03700
840.89281	0.03694
839.60704	0.03685
838.32128	0.03669
837.03551	0.03648
835.74974	0.03625
834.46397	0.03604
833.17820	0.03586
831.89243	0.03573
830.60666	0.03567
829.32089	0.03565
828.03512	0.03563
826.74936	0.03560
825.46359	0.03557
824.17782	0.03552
822.89205	0.03539
821.60628	0.03521
820.32051	0.03505
819.03474	0.03499
817.74897	0.03500
816.46321	0.03500
815.17744	0.03498
813.89167	0.03497
812.60590	0.03502
811.32013	0.03510
810.03436	0.03519
808.74859	0.03526
807.46282	0.03535
806.17705	0.03551
804.89129	0.03577
803.60552	0.03611
802.31975	0.03648
801.03398	0.03680
799.74821	0.03701
798.46244	0.03710
797.17667	0.03710
795.89090	0.03710
794.60513	0.03719
793.31937	0.03737
792.03360	0.03761
790.74783	0.03784
789.46206	0.03802
788.17629	0.03818
786.89052	0.03837
785.60475	0.03856
784.31898	0.03867
783.03322	0.03868
781.74745	0.03864
780.46168	0.03864
779.17591	0.03866
777.89014	0.03862
776.60437	0.03850
775.31860	0.03834
774.03283	0.03824
772.74706	0.03820
771.46130	0.03822
770.17553	0.03827
768.88976	0.03839
767.60399	0.03862
766.31822	0.03895
765.03245	0.03934
763.74668	0.03972
762.46091	0.04006
761.17515	0.04032
759.88938	0.04043
758.60361	0.04041
757.31784	0.04032
756.03207	0.04024
754.74630	0.04021
753.46053	0.04017
752.17476	0.04012
750.88899	0.04012
749.60323	0.04022
748.31746	0.04045
747.03169	0.04077
745.74592	0.04104
744.46015	0.04112
743.17438	0.04103
741.88861	0.04088
740.60284	0.04077
739.31708	0.04069
738.03131	0.04058
736.74554	0.04048
735.45977	0.04037
734.17400	0.04023
732.88823	0.04007
731.60246	0.04002
730.31669	0.04021
729.03092	0.04060
727.74516	0.04104
726.45939	0.04139
725.17362	0.04165
723.88785	0.04178
722.60208	0.04223
721.31631	0.04275
720.03054	0.04306
718.74477	0.04312
717.45901	0.04296
716.17324	0.04268
714.88747	0.04238
713.60170	0.04213
712.31593	0.04194
711.03016	0.04185
709.74439	0.04185
708.45862	0.04193
707.17285	0.04203
705.88709	0.04214
704.60132	0.04224
703.31555	0.04236
702.02978	0.04249
700.74401	0.04264
699.45824	0.04280
698.17247	0.04299
696.88670	0.04319
695.60094	0.04339
694.31517	0.04352
693.02940	0.04353
691.74363	0.04341
690.45786	0.04323
689.17209	0.04307
687.88632	0.04298
686.60055	0.04293
685.31478	0.04291
684.02902	0.04289
682.74325	0.04286
681.45748	0.04278
680.17171	0.04268
678.88594	0.04262
677.60017	0.04267
676.31440	0.04283
675.02863	0.04300
673.74287	0.04313
672.45710	0.04326
671.17133	0.04348
669.88556	0.04358
668.59979	0.04320
667.31402	0.04326
666.02825	0.04395
664.74248	0.04402
663.45671	0.04388
662.17095	0.04393
660.88518	0.04411
659.59941	0.04437
658.31364	0.04469
657.02787	0.04503
655.74210	0.04540
654.45633	0.04581
653.17056	0.04623
651.88480	0.04662
650.59903	0.04690
649.31326	0.04702
648.02749	0.04702
646.74172	0.04695
645.45595	0.04688
644.17018	0.04684
642.88441	0.04681
641.59864	0.04674
640.31288	0.04660
639.02711	0.04638
637.74134	0.04611
636.45557	0.04586
635.16980	0.04570
633.88403	0.04560
632.59826	0.04552
631.31249	0.04552
630.02673	0.04594
628.74096	0.04658
627.45519	0.04594
626.16942	0.04648
624.88365	0.04769
623.59788	0.04841
622.31211	0.04822
621.02634	0.04753
619.74057	0.04729
618.45481	0.04795
617.16904	0.04896
615.88327	0.04956
614.59750	0.04977
613.31173	0.05029
612.02596	0.05180
610.74019	0.05423
609.45442	0.05672
608.16866	0.05819
606.88289	0.05824
605.59712	0.05736
604.31135	0.05635
603.02558	0.05573
601.73981	0.05551
600.45404	0.05536
599.16827	0.05498
597.88250	0.05438
596.59674	0.05378
595.31097	0.05343
594.02520	0.05345
592.73943	0.05376
591.45366	0.05420
590.16789	0.05456
588.88212	0.05471
587.59635	0.05472
586.31059	0.05470
585.02482	0.05474
583.73905	0.05488
582.45328	0.05512
581.16751	0.05548
579.88174	0.05587
578.59597	0.05617
577.31020	0.05629
576.02443	0.05629
574.73867	0.05628
573.45290	0.05638
572.16713	0.05662
570.88136	0.05695
569.59559	0.05729
568.30982	0.05758
567.02405	0.05777
565.73828	0.05782
564.45251	0.05769
563.16675	0.05743
561.88098	0.05714
560.59521	0.05690
559.30944	0.05666
558.02367	0.05637
556.73790	0.05599
555.45213	0.05559
554.16636	0.05526
552.88060	0.05506
551.59483	0.05499
550.30906	0.05502
549.02329	0.05507
547.73752	0.05508
546.45175	0.05507
545.16598	0.05502
543.88021	0.05495
542.59444	0.05488
541.30868	0.05485
540.02291	0.05496
538.73714	0.05522
537.45137	0.05553
536.16560	0.05578
534.87983	0.05595
533.59406	0.05609
532.30829	0.05622
531.02253	0.05631
529.73676	0.05634
528.45099	0.05631
527.16522	0.05624
525.87945	0.05612
524.59368	0.05593
523.30791	0.05565
522.02214	0.05531
520.73637	0.05493
519.45061	0.05459
518.16484	0.05432
516.87907	0.05411
515.59330	0.05397
514.30753	0.05393
513.02176	0.05402
511.73599	0.05421
510.45022	0.05436
509.16446	0.05438
507.87869	0.05418
506.59292	0.05377
505.30715	0.05319
504.02138	0.05258
502.73561	0.05207
501.44984	0.05171
500.16407	0.05144
498.87830	0.05120
497.59254	0.05098
496.30677	0.05085
495.02100	0.05077
493.73523	0.05065
492.44946	0.05037
491.16369	0.04992
489.87792	0.04942
488.59215	0.04905
487.30639	0.04891
486.02062	0.04899
484.73485	0.04917
483.44908	0.04931
482.16331	0.04934
480.87754	0.04930
479.59177	0.04930
478.30600	0.04941
477.02023	0.04963
475.73447	0.04984
474.44870	0.04995
473.16293	0.04997
471.87716	0.04993
470.59139	0.04987
469.30562	0.04986
468.01985	0.04994
466.73408	0.05010
465.44832	0.05025
464.16255	0.05028
462.87678	0.05015
461.59101	0.04988
460.30524	0.04955
459.01947	0.04920
457.73370	0.04889
456.44793	0.04861
455.16216	0.04836
453.87640	0.04809
452.59063	0.04774
451.30486	0.04732
450.01909	0.04687
448.73332	0.04648
447.44755	0.04622
446.16178	0.04609
444.87601	0.04607
443.59025	0.04614
442.30448	0.04623
441.01871	0.04630
439.73294	0.04629
438.44717	0.04621
437.16140	0.04614
435.87563	0.04614
434.58986	0.04622
433.30409	0.04633
432.01833	0.04640
430.73256	0.04642
429.44679	0.04642
428.16102	0.04640
426.87525	0.04634
425.58948	0.04625
424.30371	0.04615
423.01794	0.04607
421.73218	0.04600
420.44641	0.04595
419.16064	0.04588
417.87487	0.04575
416.58910	0.04552
415.30333	0.04519
414.01756	0.04480
412.73179	0.04443
411.44602	0.04409
410.16026	0.04379
408.87449	0.04353
407.58872	0.04333
406.30295	0.04318
405.01718	0.04311
403.73141	0.04315
402.44564	0.04331
401.15987	0.04360
399.87411	0.04393
