3997.45528	0.02755
3996.16951	0.02767
3994.88374	0.02765
3993.59798	0.02742
3992.31221	0.02717
3991.02644	0.02716
3989.74067	0.02738
3988.45490	0.02751
3987.16913	0.02739
3985.88336	0.02714
3984.59759	0.02694
3983.31183	0.02682
3982.02606	0.02672
3980.74029	0.02669
3979.45452	0.02681
3978.16875	0.02705
3976.88298	0.02727
3975.59721	0.02735
3974.31144	0.02721
3973.02567	0.02681
3971.73991	0.02621
3970.45414	0.02562
3969.16837	0.02524
3967.88260	0.02505
3966.59683	0.02493
3965.31106	0.02483
3964.02529	0.02478
3962.73952	0.02480
3961.45376	0.02479
3960.16799	0.02461
3958.88222	0.02421
3957.59645	0.02377
3956.31068	0.02363
3955.02491	0.02408
3953.73914	0.02509
3952.45337	0.02627
3951.16760	0.02702
3949.88184	0.02699
3948.59607	0.02642
3947.31030	0.02595
3946.02453	0.02604
3944.73876	0.02648
3943.45299	0.02667
3942.16722	0.02635
3940.88145	0.02569
3939.59569	0.02509
3938.30992	0.02475
3937.02415	0.02465
3935.73838	0.02471
3934.45261	0.02484
3933.16684	0.02496
3931.88107	0.02504
3930.59530	0.02517
3929.30953	0.02542
3928.02377	0.02566
3926.73800	0.02558
3925.45223	0.02507
3924.16646	0.02441
3922.88069	0.02396
3921.59492	0.02377
3920.30915	0.02365
3919.02338	0.02351
3917.73762	0.02349
3916.45185	0.02380
3915.16608	0.02440
3913.88031	0.02498
3912.59454	0.02532
3911.30877	0.02544
3910.02300	0.02550
3908.73723	0.02571
3907.45146	0.02614
3906.16570	0.02666
3904.87993	0.02704
3903.59416	0.02706
3902.30839	0.02667
3901.02262	0.02605
3899.73685	0.02553
3898.45108	0.02538
3897.16531	0.02562
3895.87955	0.02604
3894.59378	0.02637
3893.30801	0.02644
3892.02224	0.02637
3890.73647	0.02633
3889.45070	0.02629
3888.16493	0.02597
3886.87916	0.02532
3885.59339	0.02471
3884.30763	0.02449
3883.02186	0.02469
3881.73609	0.02501
3880.45032	0.02517
3879.16455	0.02501
3877.87878	0.02461
3876.59301	0.02428
3875.30724	0.02421
3874.02148	0.02434
3872.73571	0.02442
3871.44994	0.02433
3870.16417	0.02425
3868.87840	0.02442
3867.59263	0.02482
3866.30686	0.02535
3865.02109	0.02604
3863.73532	0.02671
3862.44956	0.02694
3861.16379	0.02653
3859.87802	0.02574
3858.59225	0.02510
3857.30648	0.02495
3856.02071	0.02531
3854.73494	0.02607
3853.44917	0.02695
3852.16341	0.02746
3850.87764	0.02723
3849.59187	0.02653
3848.30610	0.02592
3847.02033	0.02563
3845.73456	0.02547
3844.44879	0.02528
3843.16302	0.02517
3841.87725	0.02524
3840.59149	0.02526
3839.30572	0.02492
3838.01995	0.02426
3836.73418	0.02357
3835.44841	0.02301
3834.16264	0.02264
3832.87687	0.02262
3831.59110	0.02299
3830.30534	0.02347
3829.01957	0.02367
3827.73380	0.02352
3826.44803	0.02340
3825.16226	0.02361
3823.87649	0.02391
3822.59072	0.02393
3821.30495	0.02373
3820.01918	0.02365
3818.73342	0.02372
3817.44765	0.02367
3816.16188	0.02348
3814.87611	0.02335
3813.59034	0.02339
3812.30457	0.02355
3811.01880	0.02376
3809.73303	0.02392
3808.44726	0.02414
3807.16150	0.02466
3805.87573	0.02544
3804.58996	0.02589
3803.30419	0.02556
3802.01842	0.02464
3800.73265	0.02377
3799.44688	0.02323
3798.16111	0.02295
3796.87535	0.02285
3795.58958	0.02293
3794.30381	0.02303
3793.01804	0.02296
3791.73227	0.02278
3790.44650	0.02269
3789.16073	0.02295
3787.87496	0.02358
3786.58919	0.02437
3785.30343	0.02497
3784.01766	0.02512
3782.73189	0.02485
3781.44612	0.02442
3780.16035	0.02422
3778.87458	0.02439
3777.58881	0.02480
3776.30304	0.02524
3775.01728	0.02554
3773.73151	0.02547
3772.44574	0.02480
3771.15997	0.02360
3769.87420	0.02242
3768.58843	0.02185
3767.30266	0.02201
3766.01689	0.02255
3764.73112	0.02301
3763.44536	0.02320
3762.15959	0.02319
3760.87382	0.02322
3759.58805	0.02337
3758.30228	0.02354
3757.01651	0.02368
3755.73074	0.02379
3754.44497	0.02383
3753.15921	0.02374
3751.87344	0.02350
3750.58767	0.02318
3749.30190	0.02300
3748.01613	0.02315
3746.73036	0.02343
3745.44459	0.02362
3744.15882	0.02375
3742.87305	0.02375
3741.58729	0.02344
3740.30152	0.02299
3739.01575	0.02267
3737.72998	0.02242
3736.44421	0.02210
3735.15844	0.02184
3733.87267	0.02180
3732.58690	0.02202
3731.30114	0.02246
3730.01537	0.02294
3728.72960	0.02325
3727.44383	0.02341
3726.15806	0.02365
3724.87229	0.02400
3723.58652	0.02422
3722.30075	0.02408
3721.01498	0.02360
3719.72922	0.02299
3718.44345	0.02248
3717.15768	0.02221
3715.87191	0.02218
3714.58614	0.02232
3713.30037	0.02248
3712.01460	0.02254
3710.72883	0.02245
3709.44307	0.02224
3708.15730	0.02206
3706.87153	0.02203
3705.58576	0.02213
3704.29999	0.02221
3703.01422	0.02219
3701.72845	0.02221
3700.44268	0.02245
3699.15691	0.02283
3697.87115	0.02300
3696.58538	0.02275
3695.29961	0.02229
3694.01384	0.02205
3692.72807	0.02228
3691.44230	0.02280
3690.15653	0.02317
3688.87076	0.02312
3687.58500	0.02275
3686.29923	0.02220
3685.01346	0.02154
3683.72769	0.02097
3682.44192	0.02075
3681.15615	0.02100
3679.87038	0.02167
3678.58461	0.02252
3677.29884	0.02326
3676.01308	0.02378
3674.72731	0.02412
3673.44154	0.02420
3672.15577	0.02398
3670.87000	0.02376
3669.58423	0.02383
3668.29846	0.02405
3667.01269	0.02404
3665.72693	0.02376
3664.44116	0.02342
3663.15539	0.02319
3661.86962	0.02314
3660.58385	0.02323
3659.29808	0.02334
3658.01231	0.02336
3656.72654	0.02344
3655.44077	0.02377
3654.15501	0.02425
3652.86924	0.02445
3651.58347	0.02418
3650.29770	0.02383
3649.01193	0.02403
3647.72616	0.02502
3646.44039	0.02646
3645.15462	0.02764
3643.86886	0.02805
3642.58309	0.02772
3641.29732	0.02708
3640.01155	0.02653
3638.72578	0.02625
3637.44001	0.02619
3636.15424	0.02616
3634.86847	0.02605
3633.58270	0.02592
3632.29694	0.02591
3631.01117	0.02598
3629.72540	0.02610
3628.43963	0.02637
3627.15386	0.02693
3625.86809	0.02779
3624.58232	0.02880
3623.29655	0.02961
3622.01079	0.02985
3620.72502	0.02958
3619.43925	0.02930
3618.15348	0.02940
3616.86771	0.02970
3615.58194	0.02985
3614.29617	0.02983
3613.01040	0.02989
3611.72463	0.03018
3610.43887	0.03058
3609.15310	0.03094
3607.86733	0.03114
3606.58156	0.03111
3605.29579	0.03087
3604.01002	0.03062
3602.72425	0.03053
3601.43848	0.03060
3600.15272	0.03086
3598.86695	0.03145
3597.58118	0.03236
3596.29541	0.03328
3595.00964	0.03387
3593.72387	0.03413
3592.43810	0.03433
3591.15233	0.03467
3589.86656	0.03504
3588.58080	0.03519
3587.29503	0.03506
3586.00926	0.03476
3584.72349	0.03452
3583.43772	0.03457
3582.15195	0.03495
3580.86618	0.03541
3579.58041	0.03564
3578.29464	0.03559
3577.00888	0.03558
3575.72311	0.03586
3574.43734	0.03628
3573.15157	0.03656
3571.86580	0.03661
3570.58003	0.03661
3569.29426	0.03674
3568.00849	0.03700
3566.72273	0.03729
3565.43696	0.03757
3564.15119	0.03789
3562.86542	0.03831
3561.57965	0.03879
3560.29388	0.03919
3559.00811	0.03946
3557.72234	0.03970
3556.43657	0.04005
3555.15081	0.04053
3553.86504	0.04097
3552.57927	0.04120
3551.29350	0.04122
3550.00773	0.04117
3548.72196	0.04120
3547.43619	0.04136
3546.15042	0.04167
3544.86466	0.04204
3543.57889	0.04241
3542.29312	0.04274
3541.00735	0.04308
3539.72158	0.04348
3538.43581	0.04398
3537.15004	0.04454
3535.86427	0.04509
3534.57850	0.04553
3533.29274	0.04571
3532.00697	0.04557
3530.72120	0.04528
3529.43543	0.04514
3528.14966	0.04539
3526.86389	0.04605
3525.57812	0.04697
3524.29235	0.04790
3523.00659	0.04861
3521.72082	0.04903
3520.43505	0.04933
3519.14928	0.04972
3517.86351	0.05029
3516.57774	0.05081
3515.29197	0.05096
3514.00620	0.05075
3512.72043	0.05049
3511.43467	0.05049
3510.14890	0.05074
3508.86313	0.05100
3507.57736	0.05110
3506.29159	0.05108
3505.00582	0.05109
3503.72005	0.05122
3502.43428	0.05144
3501.14852	0.05169
3499.86275	0.05192
3498.57698	0.05217
3497.29121	0.05249
3496.00544	0.05281
3494.71967	0.05302
3493.43390	0.05310
3492.14813	0.05320
3490.86236	0.05353
3489.57660	0.05411
3488.29083	0.05483
3487.00506	0.05545
3485.71929	0.05576
3484.43352	0.05569
3483.14775	0.05537
3481.86198	0.05512
3480.57621	0.05514
3479.29045	0.05538
3478.00468	0.05566
3476.71891	0.05583
3475.43314	0.05591
3474.14737	0.05596
3472.86160	0.05603
3471.57583	0.05612
3470.29006	0.05623
3469.00429	0.05643
3467.71853	0.05673
3466.43276	0.05707
3465.14699	0.05722
3463.86122	0.05705
3462.57545	0.05670
3461.28968	0.05653
3460.00391	0.05687
3458.71814	0.05771
3457.43238	0.05865
3456.14661	0.05920
3454.86084	0.05915
3453.57507	0.05867
3452.28930	0.05813
3451.00353	0.05780
3449.71776	0.05773
3448.43199	0.05790
3447.14622	0.05832
3445.86046	0.05899
3444.57469	0.05975
3443.28892	0.06041
3442.00315	0.06089
3440.71738	0.06120
3439.43161	0.06132
3438.14584	0.06120
3436.86007	0.06086
3435.57431	0.06043
3434.28854	0.06012
3433.00277	0.06008
3431.71700	0.06042
3430.43123	0.06119
3429.14546	0.06227
3427.85969	0.06334
3426.57392	0.06410
3425.28815	0.06447
3424.00239	0.06459
3422.71662	0.06465
3421.43085	0.06470
3420.14508	0.06473
3418.85931	0.06476
3417.57354	0.06485
3416.28777	0.06504
3415.00200	0.06525
3413.71624	0.06541
3412.43047	0.06548
3411.14470	0.06549
3409.85893	0.06557
3408.57316	0.06583
3407.28739	0.06628
3406.00162	0.06677
3404.71585	0.06701
3403.43008	0.06686
3402.14432	0.06652
3400.85855	0.06640
3399.57278	0.06686
3398.28701	0.06779
3397.00124	0.06885
3395.71547	0.06966
3394.42970	0.07002
3393.14393	0.06998
3391.85817	0.06971
3390.57240	0.06933
3389.28663	0.06898
3388.00086	0.06879
3386.71509	0.06882
3385.42932	0.06901
3384.14355	0.06927
3382.85778	0.06958
3381.57201	0.06996
3380.28625	0.07046
3379.00048	0.07104
3377.71471	0.07157
3376.42894	0.07190
3375.14317	0.07200
3373.85740	0.07209
3372.57163	0.07244
3371.28586	0.07305
3370.00010	0.07366
3368.71433	0.07400
3367.42856	0.07402
3366.14279	0.07380
3364.85702	0.07355
3363.57125	0.07353
3362.28548	0.07395
3360.99971	0.07474
3359.71394	0.07557
3358.42818	0.07611
3357.14241	0.07628
3355.85664	0.07621
3354.57087	0.07607
3353.28510	0.07597
3351.99933	0.07597
3350.71356	0.07614
3349.42779	0.07655
3348.14202	0.07723
3346.85626	0.07807
3345.57049	0.07889
3344.28472	0.07956
3342.99895	0.08008
3341.71318	0.08052
3340.42741	0.08087
3339.14164	0.08112
3337.85587	0.08124
3336.57011	0.08127
3335.28434	0.08127
3333.99857	0.08138
3332.71280	0.08174
3331.42703	0.08230
3330.14126	0.08285
3328.85549	0.08312
3327.56972	0.08306
3326.28395	0.08286
3324.99819	0.08285
3323.71242	0.08317
3322.42665	0.08371
3321.14088	0.08419
3319.85511	0.08446
3318.56934	0.08459
3317.28357	0.08474
3315.99780	0.08500
3314.71204	0.08532
3313.42627	0.08562
3312.14050	0.08582
3310.85473	0.08587
3309.56896	0.08578
3308.28319	0.08574
3306.99742	0.08599
3305.71165	0.08664
3304.42588	0.08741
3303.14012	0.08785
3301.85435	0.08777
3300.56858	0.08746
3299.28281	0.08741
3297.99704	0.08783
3296.71127	0.08851
3295.42550	0.08903
3294.13973	0.08914
3292.85397	0.08891
3291.56820	0.08860
3290.28243	0.08832
3288.99666	0.08801
3287.71089	0.08762
3286.42512	0.08734
3285.13935	0.08738
3283.85358	0.08771
3282.56781	0.08797
3281.28205	0.08787
3279.99628	0.08752
3278.71051	0.08734
3277.42474	0.08757
3276.13897	0.08799
3274.85320	0.08816
3273.56743	0.08791
3272.28166	0.08746
3270.99590	0.08709
3269.71013	0.08687
3268.42436	0.08661
3267.13859	0.08628
3265.85282	0.08607
3264.56705	0.08621
3263.28128	0.08662
3261.99551	0.08703
3260.70974	0.08723
3259.42398	0.08720
3258.13821	0.08703
3256.85244	0.08672
3255.56667	0.08629
3254.28090	0.08580
3252.99513	0.08536
3251.70936	0.08501
3250.42359	0.08464
3249.13783	0.08414
3247.85206	0.08348
3246.56629	0.08285
3245.28052	0.08248
3243.99475	0.08247
3242.70898	0.08273
3241.42321	0.08307
3240.13744	0.08332
3238.85167	0.08345
3237.56591	0.08344
3236.28014	0.08332
3234.99437	0.08311
3233.70860	0.08286
3232.42283	0.08259
3231.13706	0.08232
3229.85129	0.08204
3228.56552	0.08173
3227.27976	0.08144
3225.99399	0.08119
3224.70822	0.08094
3223.42245	0.08061
3222.13668	0.08020
3220.85091	0.07979
3219.56514	0.07947
3218.27937	0.07925
3216.99360	0.07906
3215.70784	0.07887
3214.42207	0.07868
3213.13630	0.07851
3211.85053	0.07834
3210.56476	0.07814
3209.27899	0.07797
3207.99322	0.07793
3206.70745	0.07806
3205.42169	0.07826
3204.13592	0.07839
3202.85015	0.07842
3201.56438	0.07846
3200.27861	0.07855
3198.99284	0.07855
3197.70707	0.07830
3196.42130	0.07781
3195.13553	0.07729
3193.84977	0.07693
3192.56400	0.07677
3191.27823	0.07668
3189.99246	0.07655
3188.70669	0.07640
3187.42092	0.07631
3186.13515	0.07623
3184.84938	0.07596
3183.56362	0.07538
3182.27785	0.07463
3180.99208	0.07396
3179.70631	0.07355
3178.42054	0.07334
3177.13477	0.07309
3175.84900	0.07264
3174.56323	0.07211
3173.27746	0.07170
3171.99170	0.07150
3170.70593	0.07138
3169.42016	0.07117
3168.13439	0.07092
3166.84862	0.07082
3165.56285	0.07100
3164.27708	0.07134
3162.99131	0.07150
3161.70555	0.07121
3160.41978	0.07056
3159.13401	0.06992
3157.84824	0.06958
3156.56247	0.06957
3155.27670	0.06965
3153.99093	0.06960
3152.70516	0.06929
3151.41939	0.06869
3150.13363	0.06787
3148.84786	0.06701
3147.56209	0.06635
3146.27632	0.06598
3144.99055	0.06583
3143.70478	0.06574
3142.41901	0.06564
3141.13324	0.06548
3139.84748	0.06522
3138.56171	0.06486
3137.27594	0.06463
3135.99017	0.06471
3134.70440	0.06508
3133.41863	0.06550
3132.13286	0.06578
3130.84709	0.06596
3129.56132	0.06609
3128.27556	0.06613
3126.98979	0.06592
3125.70402	0.06538
3124.41825	0.06462
3123.13248	0.06386
3121.84671	0.06335
3120.56094	0.06318
3119.27517	0.06318
3117.98940	0.06314
3116.70364	0.06300
3115.41787	0.06291
3114.13210	0.06302
3112.84633	0.06322
3111.56056	0.06335
3110.27479	0.06340
3108.98902	0.06352
3107.70325	0.06377
3106.41749	0.06401
3105.13172	0.06399
3103.84595	0.06365
3102.56018	0.06312
3101.27441	0.06270
3099.98864	0.06260
3098.70287	0.06281
3097.41710	0.06320
3096.13133	0.06361
3094.84557	0.06400
3093.55980	0.06433
3092.27403	0.06449
3090.98826	0.06442
3089.70249	0.06424
3088.41672	0.06414
3087.13095	0.06420
3085.84518	0.06425
3084.55942	0.06413
3083.27365	0.06391
3081.98788	0.06385
3080.70211	0.06410
3079.41634	0.06452
3078.13057	0.06482
3076.84480	0.06481
3075.55903	0.06454
3074.27326	0.06424
3072.98750	0.06410
3071.70173	0.06413
3070.41596	0.06420
3069.13019	0.06417
3067.84442	0.06404
3066.55865	0.06386
3065.27288	0.06366
3063.98711	0.06348
3062.70135	0.06341
3061.41558	0.06354
3060.12981	0.06387
3058.84404	0.06426
3057.55827	0.06446
3056.27250	0.06428
3054.98673	0.06378
3053.70096	0.06317
3052.41519	0.06269
3051.12943	0.06242
3049.84366	0.06225
3048.55789	0.06209
3047.27212	0.06193
3045.98635	0.06183
3044.70058	0.06179
3043.41481	0.06166
3042.12904	0.06130
3040.84328	0.06072
3039.55751	0.06008
3038.27174	0.05950
3036.98597	0.05900
3035.70020	0.05862
3034.41443	0.05844
3033.12866	0.05858
3031.84289	0.05893
3030.55712	0.05916
3029.27136	0.05891
3027.98559	0.05814
3026.69982	0.05721
3025.41405	0.05656
3024.12828	0.05640
3022.84251	0.05659
3021.55674	0.05687
3020.27097	0.05706
3018.98521	0.05713
3017.69944	0.05710
3016.41367	0.05697
3015.12790	0.05672
3013.84213	0.05635
3012.55636	0.05600
3011.27059	0.05580
3009.98482	0.05582
3008.69905	0.05597
3007.41329	0.05610
3006.12752	0.05609
3004.84175	0.05595
3003.55598	0.05568
3002.27021	0.05533
3000.98444	0.05497
2999.69867	0.05476
2998.41290	0.05487
2997.12714	0.05522
2995.84137	0.05555
2994.55560	0.05571
2993.26983	0.05572
2991.98406	0.05573
2990.69829	0.05591
2989.41252	0.05627
2988.12675	0.05668
2986.84098	0.05700
2985.55522	0.05723
2984.26945	0.05748
2982.98368	0.05779
2981.69791	0.05803
2980.41214	0.05808
2979.12637	0.05800
2977.84060	0.05794
2976.55483	0.05802
2975.26907	0.05823
2973.98330	0.05855
2972.69753	0.05896
2971.41176	0.05943
2970.12599	0.05985
2968.84022	0.06017
2967.55445	0.06040
2966.26868	0.06054
2964.98291	0.06062
2963.69715	0.06074
2962.41138	0.06098
2961.12561	0.06131
2959.83984	0.06155
2958.55407	0.06157
2957.26830	0.06145
2955.98253	0.06132
2954.69676	0.06122
2953.41100	0.06114
2952.12523	0.06112
2950.83946	0.06123
2949.55369	0.06141
2948.26792	0.06150
2946.98215	0.06141
2945.69638	0.06121
2944.41061	0.06107
2943.12484	0.06109
2941.83908	0.06126
2940.55331	0.06151
2939.26754	0.06181
2937.98177	0.06215
2936.69600	0.06252
2935.41023	0.06291
2934.12446	0.06332
2932.83869	0.06376
2931.55293	0.06418
2930.26716	0.06448
2928.98139	0.06457
2927.69562	0.06445
2926.40985	0.06418
2925.12408	0.06388
2923.83831	0.06356
2922.55254	0.06322
2921.26677	0.06287
2919.98101	0.06256
2918.69524	0.06228
2917.40947	0.06197
2916.12370	0.06154
2914.83793	0.06093
2913.55216	0.06018
2912.26639	0.05941
2910.98062	0.05876
2909.69486	0.05829
2908.40909	0.05793
2907.12332	0.05758
2905.83755	0.05718
2904.55178	0.05669
2903.26601	0.05617
2901.98024	0.05571
2900.69447	0.05535
2899.40870	0.05505
2898.12294	0.05479
2896.83717	0.05470
2895.55140	0.05480
2894.26563	0.05497
2892.97986	0.05506
2891.69409	0.05496
2890.40832	0.05471
2889.12255	0.05439
2887.83678	0.05410
2886.55102	0.05396
2885.26525	0.05395
2883.97948	0.05398
2882.69371	0.05398
2881.40794	0.05392
2880.12217	0.05386
2878.83640	0.05386
2877.55063	0.05393
2876.26487	0.05397
2874.97910	0.05387
2873.69333	0.05364
2872.40756	0.05342
2871.12179	0.05333
2869.83602	0.05337
2868.55025	0.05345
2867.26448	0.05350
2865.97871	0.05347
2864.69295	0.05335
2863.40718	0.05313
2862.12141	0.05283
2860.83564	0.05256
2859.54987	0.05241
2858.26410	0.05235
2856.97833	0.05223
2855.69256	0.05199
2854.40680	0.05174
2853.12103	0.05161
2851.83526	0.05162
2850.54949	0.05161
2849.26372	0.05142
2847.97795	0.05103
2846.69218	0.05057
2845.40641	0.05010
2844.12064	0.04960
2842.83488	0.04896
2841.54911	0.04823
2840.26334	0.04755
2838.97757	0.04707
2837.69180	0.04683
2836.40603	0.04672
2835.12026	0.04661
2833.83449	0.04642
2832.54873	0.04620
2831.26296	0.04605
2829.97719	0.04598
2828.69142	0.04602
2827.40565	0.04615
2826.11988	0.04636
2824.83411	0.04648
2823.54834	0.04639
2822.26257	0.04606
2820.97681	0.04561
2819.69104	0.04523
2818.40527	0.04505
2817.11950	0.04512
2815.83373	0.04532
2814.54796	0.04548
2813.26219	0.04545
2811.97642	0.04520
2810.69066	0.04477
2809.40489	0.04433
2808.11912	0.04406
2806.83335	0.04411
2805.54758	0.04441
2804.26181	0.04470
2802.97604	0.04472
2801.69027	0.04440
2800.40450	0.04389
2799.11874	0.04339
2797.83297	0.04303
2796.54720	0.04281
2795.26143	0.04268
2793.97566	0.04263
2792.68989	0.04262
2791.40412	0.04264
2790.11835	0.04265
2788.83259	0.04256
2787.54682	0.04235
2786.26105	0.04214
2784.97528	0.04205
2783.68951	0.04211
2782.40374	0.04222
2781.11797	0.04225
2779.83220	0.04211
2778.54643	0.04180
2777.26067	0.04145
2775.97490	0.04121
2774.68913	0.04109
2773.40336	0.04097
2772.11759	0.04078
2770.83182	0.04056
2769.54605	0.04042
2768.26028	0.04040
2766.97452	0.04044
2765.68875	0.04048
2764.40298	0.04044
2763.11721	0.04031
2761.83144	0.04011
2760.54567	0.03993
2759.25990	0.03983
2757.97413	0.03979
2756.68836	0.03975
2755.40260	0.03965
2754.11683	0.03949
2752.83106	0.03934
2751.54529	0.03928
2750.25952	0.03936
2748.97375	0.03957
2747.68798	0.03984
2746.40221	0.04002
2745.11645	0.03998
2743.83068	0.03975
2742.54491	0.03948
2741.25914	0.03926
2739.97337	0.03905
2738.68760	0.03880
2737.40183	0.03853
2736.11606	0.03835
2734.83029	0.03831
2733.54453	0.03842
2732.25876	0.03857
2730.97299	0.03865
2729.68722	0.03857
2728.40145	0.03832
2727.11568	0.03801
2725.82991	0.03777
2724.54414	0.03767
2723.25838	0.03767
2721.97261	0.03767
2720.68684	0.03760
2719.40107	0.03746
2718.11530	0.03729
2716.82953	0.03716
2715.54376	0.03710
2714.25799	0.03711
2712.97222	0.03714
2711.68646	0.03714
2710.40069	0.03708
2709.11492	0.03700
2707.82915	0.03692
2706.54338	0.03688
2705.25761	0.03684
2703.97184	0.03673
2702.68607	0.03654
2701.40031	0.03633
2700.11454	0.03623
2698.82877	0.03627
2697.54300	0.03634
2696.25723	0.03633
2694.97146	0.03622
2693.68569	0.03604
2692.39992	0.03588
2691.11415	0.03577
2689.82839	0.03574
2688.54262	0.03574
2687.25685	0.03570
2685.97108	0.03559
2684.68531	0.03545
2683.39954	0.03535
2682.11377	0.03535
2680.82800	0.03543
2679.54224	0.03549
2678.25647	0.03544
2676.97070	0.03528
2675.68493	0.03506
2674.39916	0.03483
2673.11339	0.03468
2671.82762	0.03461
2670.54185	0.03462
2669.25608	0.03472
2667.97032	0.03492
2666.68455	0.03520
2665.39878	0.03549
2664.11301	0.03573
2662.82724	0.03591
2661.54147	0.03602
2660.25570	0.03602
2658.96993	0.03587
2657.68417	0.03566
2656.39840	0.03546
2655.11263	0.03529
2653.82686	0.03516
2652.54109	0.03511
2651.25532	0.03515
2649.96955	0.03518
2648.68378	0.03511
2647.39801	0.03491
2646.11225	0.03466
2644.82648	0.03438
2643.54071	0.03412
2642.25494	0.03394
2640.96917	0.03387
2639.68340	0.03389
2638.39763	0.03387
2637.11186	0.03374
2635.82609	0.03353
2634.54033	0.03330
2633.25456	0.03316
2631.96879	0.03318
2630.68302	0.03334
2629.39725	0.03355
2628.11148	0.03365
2626.82571	0.03355
2625.53994	0.03328
2624.25418	0.03297
2622.96841	0.03269
2621.68264	0.03248
2620.39687	0.03239
2619.11110	0.03244
2617.82533	0.03254
2616.53956	0.03256
2615.25379	0.03243
2613.96802	0.03221
2612.68226	0.03192
2611.39649	0.03150
2610.11072	0.03093
2608.82495	0.03038
2607.53918	0.03016
2606.25341	0.03035
2604.96764	0.03070
2603.68187	0.03091
2602.39611	0.03088
2601.11034	0.03076
2599.82457	0.03066
2598.53880	0.03059
2597.25303	0.03046
2595.96726	0.03026
2594.68149	0.03004
2593.39572	0.02979
2592.10995	0.02948
2590.82419	0.02914
2589.53842	0.02886
2588.25265	0.02869
2586.96688	0.02859
2585.68111	0.02848
2584.39534	0.02839
2583.10957	0.02841
2581.82380	0.02848
2580.53804	0.02847
2579.25227	0.02837
2577.96650	0.02833
2576.68073	0.02842
2575.39496	0.02851
2574.10919	0.02845
2572.82342	0.02832
2571.53765	0.02830
2570.25188	0.02840
2568.96612	0.02847
2567.68035	0.02838
2566.39458	0.02808
2565.10881	0.02763
2563.82304	0.02717
2562.53727	0.02692
2561.25150	0.02698
2559.96573	0.02718
2558.67997	0.02727
2557.39420	0.02721
2556.10843	0.02713
2554.82266	0.02713
2553.53689	0.02712
2552.25112	0.02705
2550.96535	0.02704
2549.67958	0.02718
2548.39381	0.02737
2547.10805	0.02747
2545.82228	0.02747
2544.53651	0.02748
2543.25074	0.02748
2541.96497	0.02734
2540.67920	0.02705
2539.39343	0.02674
2538.10766	0.02657
2536.82190	0.02647
2535.53613	0.02637
2534.25036	0.02627
2532.96459	0.02622
2531.67882	0.02619
2530.39305	0.02614
2529.10728	0.02610
2527.82151	0.02605
2526.53574	0.02586
2525.24998	0.02542
2523.96421	0.02489
2522.67844	0.02458
2521.39267	0.02471
2520.10690	0.02519
2518.82113	0.02576
2517.53536	0.02617
2516.24959	0.02631
2514.96383	0.02626
2513.67806	0.02613
2512.39229	0.02600
2511.10652	0.02586
2509.82075	0.02566
2508.53498	0.02537
2507.24921	0.02501
2505.96344	0.02469
2504.67767	0.02451
2503.39191	0.02451
2502.10614	0.02454
2500.82037	0.02448
2499.53460	0.02432
2498.24883	0.02425
2496.96306	0.02447
2495.67729	0.02499
2494.39152	0.02563
2493.10576	0.02613
2491.81999	0.02633
2490.53422	0.02624
2489.24845	0.02592
2487.96268	0.02543
2486.67691	0.02487
2485.39114	0.02438
2484.10537	0.02406
2482.81960	0.02384
2481.53384	0.02364
2480.24807	0.02351
2478.96230	0.02366
2477.67653	0.02419
2476.39076	0.02490
2475.10499	0.02542
2473.81922	0.02548
2472.53345	0.02510
2471.24769	0.02450
2469.96192	0.02400
2468.67615	0.02385
2467.39038	0.02401
2466.10461	0.02426
2464.81884	0.02440
2463.53307	0.02440
2462.24730	0.02440
2460.96153	0.02451
2459.67577	0.02468
2458.39000	0.02469
2457.10423	0.02436
2455.81846	0.02383
2454.53269	0.02347
2453.24692	0.02353
2451.96115	0.02392
2450.67538	0.02430
2449.38962	0.02447
2448.10385	0.02448
2446.81808	0.02440
2445.53231	0.02424
2444.24654	0.02396
2442.96077	0.02359
2441.67500	0.02332
2440.38923	0.02333
2439.10346	0.02366
2437.81770	0.02410
2436.53193	0.02437
2435.24616	0.02439
2433.96039	0.02429
2432.67462	0.02426
2431.38885	0.02433
2430.10308	0.02440
2428.81731	0.02440
2427.53155	0.02431
2426.24578	0.02410
2424.96001	0.02378
2423.67424	0.02346
2422.38847	0.02330
2421.10270	0.02327
2419.81693	0.02325
2418.53116	0.02324
2417.24539	0.02332
2415.95963	0.02341
2414.67386	0.02339
2413.38809	0.02321
2412.10232	0.02301
2410.81655	0.02291
2409.53078	0.02287
2408.24501	0.02281
2406.95924	0.02275
2405.67347	0.02277
2404.38771	0.02287
2403.10194	0.02293
2401.81617	0.02289
2400.53040	0.02283
2399.24463	0.02277
2397.95886	0.02274
2396.67309	0.02268
2395.38732	0.02263
2394.10156	0.02265
2392.81579	0.02278
2391.53002	0.02297
2390.24425	0.02322
2388.95848	0.02349
2387.67271	0.02370
2386.38694	0.02377
2385.10117	0.02374
2383.81540	0.02371
2382.52964	0.02371
2381.24387	0.02361
2379.95810	0.02335
2378.67233	0.02291
2377.38656	0.02254
2376.10079	0.02251
2374.81502	0.02274
2373.52925	0.02279
2372.24349	0.02269
2370.95772	0.02271
2369.67195	0.02285
2368.38618	0.02304
2367.10041	0.02325
2365.81464	0.02352
2364.52887	0.02383
2363.24310	0.02402
2361.95733	0.02403
2360.67157	0.02393
2359.38580	0.02385
2358.10003	0.02376
2356.81426	0.02369
2355.52849	0.02375
2354.24272	0.02399
2352.95695	0.02422
2351.67118	0.02411
2350.38542	0.02388
2349.09965	0.02388
2347.81388	0.02399
2346.52811	0.02406
2345.24234	0.02422
2343.95657	0.02446
2342.67080	0.02483
2341.38503	0.02459
2340.09926	0.02403
2338.81350	0.02385
2337.52773	0.02398
2336.24196	0.02381
2334.95619	0.02368
2333.67042	0.02379
2332.38465	0.02410
2331.09888	0.02389
2329.81311	0.02412
2328.52735	0.02466
2327.24158	0.02511
2325.95581	0.02564
2324.67004	0.02601
2323.38427	0.02622
2322.09850	0.02589
2320.81273	0.02537
2319.52696	0.02485
2318.24119	0.02437
2316.95543	0.02393
2315.66966	0.02366
2314.38389	0.02366
2313.09812	0.02372
2311.81235	0.02374
2310.52658	0.02372
2309.24081	0.02358
2307.95504	0.02319
2306.66928	0.02260
2305.38351	0.02206
2304.09774	0.02180
2302.81197	0.02183
2301.52620	0.02195
2300.24043	0.02204
2298.95466	0.02206
2297.66889	0.02207
2296.38312	0.02213
2295.09736	0.02225
2293.81159	0.02241
2292.52582	0.02250
2291.24005	0.02248
2289.95428	0.02237
2288.66851	0.02223
2287.38274	0.02211
2286.09697	0.02205
2284.81121	0.02203
2283.52544	0.02201
2282.23967	0.02196
2280.95390	0.02184
2279.66813	0.02168
2278.38236	0.02156
2277.09659	0.02156
2275.81082	0.02165
2274.52505	0.02174
2273.23929	0.02173
2271.95352	0.02161
2270.66775	0.02137
2269.38198	0.02106
2268.09621	0.02071
2266.81044	0.02041
2265.52467	0.02019
2264.23890	0.01998
2262.95314	0.01961
2261.66737	0.01909
2260.38160	0.01867
2259.09583	0.01867
2257.81006	0.01903
2256.52429	0.01917
2255.23852	0.01856
2253.95275	0.01731
2252.66698	0.01618
2251.38122	0.01588
2250.09545	0.01651
2248.80968	0.01762
2247.52391	0.01835
2246.23814	0.01859
2244.95237	0.01854
2243.66660	0.01860
2242.38083	0.01889
2241.09507	0.01906
2239.80930	0.01867
2238.52353	0.01782
2237.23776	0.01715
2235.95199	0.01713
2234.66622	0.01754
2233.38045	0.01785
2232.09468	0.01791
2230.80891	0.01794
2229.52315	0.01811
2228.23738	0.01827
2226.95161	0.01816
2225.66584	0.01767
2224.38007	0.01695
2223.09430	0.01627
2221.80853	0.01573
2220.52276	0.01516
2219.23700	0.01444
2217.95123	0.01372
2216.66546	0.01334
2215.37969	0.01351
2214.09392	0.01413
2212.80815	0.01489
2211.52238	0.01553
2210.23661	0.01590
2208.95084	0.01603
2207.66508	0.01598
2206.37931	0.01589
2205.09354	0.01581
2203.80777	0.01573
2202.52200	0.01552
2201.23623	0.01517
2199.95046	0.01485
2198.66469	0.01482
2197.37893	0.01530
2196.09316	0.01629
2194.80739	0.01738
2193.52162	0.01792
2192.23585	0.01761
2190.95008	0.01675
2189.66431	0.01590
2188.37854	0.01535
2187.09277	0.01509
2185.80701	0.01505
2184.52124	0.01501
2183.23547	0.01463
2181.94970	0.01383
2180.66393	0.01316
2179.37816	0.01317
2178.09239	0.01362
2176.80662	0.01379
2175.52085	0.01340
2174.23509	0.01294
2172.94932	0.01276
2171.66355	0.01250
2170.37778	0.01178
2169.09201	0.01099
2167.80624	0.01095
2166.52047	0.01179
2165.23470	0.01267
2163.94894	0.01272
2162.66317	0.01186
2161.37740	0.01070
2160.09163	0.00994
2158.80586	0.00989
2157.52009	0.01034
2156.23432	0.01078
2154.94855	0.01079
2153.66278	0.01040
2152.37702	0.01008
2151.09125	0.01019
2149.80548	0.01054
2148.51971	0.01059
2147.23394	0.01024
2145.94817	0.01002
2144.66240	0.01031
2143.37663	0.01090
2142.09087	0.01140
2140.80510	0.01185
2139.51933	0.01260
2138.23356	0.01367
2136.94779	0.01452
2135.66202	0.01460
2134.37625	0.01393
2133.09048	0.01310
2131.80471	0.01266
2130.51895	0.01272
2129.23318	0.01302
2127.94741	0.01330
2126.66164	0.01349
2125.37587	0.01365
2124.09010	0.01383
2122.80433	0.01413
2121.51856	0.01462
2120.23280	0.01528
2118.94703	0.01592
2117.66126	0.01629
2116.37549	0.01633
2115.08972	0.01609
2113.80395	0.01577
2112.51818	0.01563
2111.23241	0.01578
2109.94664	0.01608
2108.66088	0.01621
2107.37511	0.01604
2106.08934	0.01566
2104.80357	0.01520
2103.51780	0.01465
2102.23203	0.01400
2100.94626	0.01348
2099.66049	0.01467
2098.37473	0.01531
2097.08896	0.01526
2095.80319	0.01502
2094.51742	0.01472
2093.23165	0.01439
2091.94588	0.01403
2090.66011	0.01367
2089.37434	0.01337
2088.08857	0.01318
2086.80281	0.01315
2085.51704	0.01326
2084.23127	0.01341
2082.94550	0.01345
2081.65973	0.01338
2080.37396	0.01336
2079.08819	0.01355
2077.80242	0.01394
2076.51666	0.01437
2075.23089	0.01477
2073.94512	0.01518
2072.65935	0.01565
2071.37358	0.01609
2070.08781	0.01629
2068.80204	0.01604
2067.51627	0.01533
2066.23050	0.01439
2064.94474	0.01351
2063.65897	0.01284
2062.37320	0.01233
2061.08743	0.01194
2059.80166	0.01176
2058.51589	0.01184
2057.23012	0.01206
2055.94435	0.01228
2054.65859	0.01259
2053.37282	0.01319
2052.08705	0.01405
2050.80128	0.01472
2049.51551	0.01464
2048.22974	0.01366
2046.94397	0.01224
2045.65820	0.01122
2044.37243	0.01117
2043.08667	0.01189
2041.80090	0.01264
2040.51513	0.01281
2039.22936	0.01246
2037.94359	0.01211
2036.65782	0.01207
2035.37205	0.01223
2034.08628	0.01224
2032.80052	0.01199
2031.51475	0.01164
2030.22898	0.01137
2028.94321	0.01114
2027.65744	0.01096
2026.37167	0.01106
2025.08590	0.01144
2023.80013	0.01160
2022.51436	0.01099
2021.22860	0.00978
2019.94283	0.00886
2018.65706	0.00892
2017.37129	0.00975
2016.08552	0.01066
2014.79975	0.01127
2013.51398	0.01178
2012.22821	0.01257
2010.94245	0.01371
2009.65668	0.01470
2008.37091	0.01503
2007.08514	0.01464
2005.79937	0.01399
2004.51360	0.01358
2003.22783	0.01340
2001.94206	0.01310
2000.65629	0.01244
1999.37053	0.01161
1998.08476	0.01100
1996.79899	0.01077
1995.51322	0.01063
1994.22745	0.01024
1992.94168	0.00958
1991.65591	0.00896
1990.37014	0.00863
1989.08438	0.00866
1987.79861	0.00902
1986.51284	0.00958
1985.22707	0.01014
1983.94130	0.01054
1982.65553	0.01089
1981.36976	0.01146
1980.08399	0.01229
1978.79822	0.01301
1977.51246	0.01330
1976.22669	0.01324
1974.94092	0.01316
1973.65515	0.01312
1972.36938	0.01283
1971.08361	0.01198
1969.79784	0.01075
1968.51207	0.00974
1967.22631	0.00956
1965.94054	0.01027
1964.65477	0.01128
1963.36900	0.01188
1962.08323	0.01185
1960.79746	0.01153
1959.51169	0.01133
1958.22592	0.01133
1956.94015	0.01126
1955.65439	0.01098
1954.36862	0.01072
1953.08285	0.01087
1951.79708	0.01151
1950.51131	0.01230
1949.22554	0.01272
1947.93977	0.01255
1946.65400	0.01197
1945.36823	0.01144
1944.08247	0.01142
1942.79670	0.01210
1941.51093	0.01314
1940.22516	0.01389
1938.93939	0.01398
1937.65362	0.01355
1936.36785	0.01312
1935.08208	0.01303
1933.79632	0.01325
1932.51055	0.01351
1931.22478	0.01355
1929.93901	0.01329
1928.65324	0.01288
1927.36747	0.01253
1926.08170	0.01241
1924.79593	0.01252
1923.51016	0.01283
1922.22440	0.01324
1920.93863	0.01364
1919.65286	0.01397
1918.36709	0.01415
1917.08132	0.01410
1915.79555	0.01378
1914.50978	0.01331
1913.22401	0.01302
1911.93825	0.01317
1910.65248	0.01372
1909.36671	0.01436
1908.08094	0.01472
1906.79517	0.01465
1905.50940	0.01426
1904.22363	0.01378
1902.93786	0.01337
1901.65209	0.01308
1900.36633	0.01289
1899.08056	0.01281
1897.79479	0.01287
1896.50902	0.01303
1895.22325	0.01319
1893.93748	0.01324
1892.65171	0.01320
1891.36594	0.01319
1890.08018	0.01329
1888.79441	0.01347
1887.50864	0.01354
1886.22287	0.01340
1884.93710	0.01311
1883.65133	0.01285
1882.36556	0.01278
1881.07979	0.01290
1879.79402	0.01312
1878.50826	0.01335
1877.22249	0.01353
1875.93672	0.01364
1874.65095	0.01370
1873.36518	0.01380
1872.07941	0.01394
1870.79364	0.01407
1869.50787	0.01414
1868.22211	0.01411
1866.93634	0.01400
1865.65057	0.01381
1864.36480	0.01359
1863.07903	0.01334
1861.79326	0.01306
1860.50749	0.01284
1859.22172	0.01280
1857.93595	0.01297
1856.65019	0.01320
1855.36442	0.01330
1854.07865	0.01323
1852.79288	0.01309
1851.50711	0.01303
1850.22134	0.01309
1848.93557	0.01321
1847.64980	0.01331
1846.36404	0.01333
1845.07827	0.01320
1843.79250	0.01297
1842.50673	0.01274
1841.22096	0.01262
1839.93519	0.01267
1838.64942	0.01283
1837.36365	0.01298
1836.07788	0.01303
1834.79212	0.01298
1833.50635	0.01292
1832.22058	0.01287
1830.93481	0.01288
1829.64904	0.01299
1828.36327	0.01318
1827.07750	0.01338
1825.79173	0.01354
1824.50597	0.01370
1823.22020	0.01388
1821.93443	0.01405
1820.64866	0.01411
1819.36289	0.01399
1818.07712	0.01369
1816.79135	0.01331
1815.50558	0.01300
1814.21981	0.01285
1812.93405	0.01282
1811.64828	0.01283
1810.36251	0.01280
1809.07674	0.01273
1807.79097	0.01262
1806.50520	0.01253
1805.21943	0.01244
1803.93366	0.01236
1802.64790	0.01233
1801.36213	0.01236
1800.07636	0.01246
1798.79059	0.01259
1797.50482	0.01274
1796.21905	0.01291
1794.93328	0.01309
1793.64751	0.01321
1792.36174	0.01327
1791.07598	0.01329
1789.79021	0.01331
1788.50444	0.01332
1787.21867	0.01331
1785.93290	0.01326
1784.64713	0.01320
1783.36136	0.01318
1782.07559	0.01322
1780.78983	0.01332
1779.50406	0.01340
1778.21829	0.01337
1776.93252	0.01322
1775.64675	0.01303
1774.36098	0.01290
1773.07521	0.01288
1771.78944	0.01293
1770.50367	0.01296
1769.21791	0.01288
1767.93214	0.01275
1766.64637	0.01270
1765.36060	0.01273
1764.07483	0.01275
1762.78906	0.01277
1761.50329	0.01280
1760.21752	0.01285
1758.93176	0.01288
1757.64599	0.01289
1756.36022	0.01296
1755.07445	0.01310
1753.78868	0.01323
1752.50291	0.01332
1751.21714	0.01340
1749.93137	0.01350
1748.64560	0.01358
1747.35984	0.01362
1746.07407	0.01365
1744.78830	0.01371
1743.50253	0.01380
1742.21676	0.01392
1740.93099	0.01403
1739.64522	0.01417
1738.35945	0.01440
1737.07369	0.01471
1735.78792	0.01501
1734.50215	0.01528
1733.21638	0.01555
1731.93061	0.01577
1730.64484	0.01588
1729.35907	0.01594
1728.07330	0.01602
1726.78753	0.01613
1725.50177	0.01624
1724.21600	0.01637
1722.93023	0.01658
1721.64446	0.01687
1720.35869	0.01721
1719.07292	0.01755
1717.78715	0.01788
1716.50138	0.01822
1715.21561	0.01853
1713.92985	0.01884
1712.64408	0.01919
1711.35831	0.01965
1710.07254	0.02023
1708.78677	0.02097
1707.50100	0.02187
1706.21523	0.02291
1704.92946	0.02408
1703.64370	0.02532
1702.35793	0.02654
1701.07216	0.02778
1699.78639	0.02916
1698.50062	0.03062
1697.21485	0.03198
1695.92908	0.03322
1694.64331	0.03448
1693.35754	0.03571
1692.07178	0.03689
1690.78601	0.03811
1689.50024	0.03950
1688.21447	0.04103
1686.92870	0.04259
1685.64293	0.04410
1684.35716	0.04565
1683.07139	0.04724
1681.78563	0.04877
1680.49986	0.05025
1679.21409	0.05181
1677.92832	0.05351
1676.64255	0.05530
1675.35678	0.05712
1674.07101	0.05897
1672.78524	0.06078
1671.49947	0.06253
1670.21371	0.06428
1668.92794	0.06607
1667.64217	0.06789
1666.35640	0.06964
1665.07063	0.07132
1663.78486	0.07296
1662.49909	0.07461
1661.21332	0.07624
1659.92756	0.07779
1658.64179	0.07929
1657.35602	0.08079
1656.07025	0.08223
1654.78448	0.08352
1653.49871	0.08466
1652.21294	0.08575
1650.92717	0.08673
1649.64140	0.08746
1648.35564	0.08802
1647.06987	0.08857
1645.78410	0.08919
1644.49833	0.08981
1643.21256	0.09034
1641.92679	0.09078
1640.64102	0.09123
1639.35525	0.09173
1638.06949	0.09221
1636.78372	0.09261
1635.49795	0.09293
1634.21218	0.09319
1632.92641	0.09332
1631.64064	0.09328
1630.35487	0.09309
1629.06910	0.09276
1627.78333	0.09227
1626.49757	0.09156
1625.21180	0.09063
1623.92603	0.08955
1622.64026	0.08843
1621.35449	0.08729
1620.06872	0.08603
1618.78295	0.08458
1617.49718	0.08297
1616.21142	0.08131
1614.92565	0.07965
1613.63988	0.07794
1612.35411	0.07619
1611.06834	0.07448
1609.78257	0.07280
1608.49680	0.07112
1607.21103	0.06941
1605.92526	0.06773
1604.63950	0.06613
1603.35373	0.06464
1602.06796	0.06328
1600.78219	0.06203
1599.49642	0.06090
1598.21065	0.05986
1596.92488	0.05892
1595.63911	0.05804
1594.35335	0.05724
1593.06758	0.05653
1591.78181	0.05590
1590.49604	0.05539
1589.21027	0.05501
1587.92450	0.05472
1586.63873	0.05448
1585.35296	0.05426
1584.06719	0.05408
1582.78143	0.05400
1581.49566	0.05409
1580.20989	0.05439
1578.92412	0.05479
1577.63835	0.05521
1576.35258	0.05565
1575.06681	0.05617
1573.78104	0.05675
1572.49528	0.05736
1571.20951	0.05805
1569.92374	0.05890
1568.63797	0.05987
1567.35220	0.06086
1566.06643	0.06182
1564.78066	0.06281
1563.49489	0.06394
1562.20912	0.06513
1560.92336	0.06630
1559.63759	0.06742
1558.35182	0.06854
1557.06605	0.06960
1555.78028	0.07049
1554.49451	0.07128
1553.20874	0.07209
1551.92297	0.07293
1550.63721	0.07374
1549.35144	0.07450
1548.06567	0.07524
1546.77990	0.07594
1545.49413	0.07662
1544.20836	0.07727
1542.92259	0.07787
1541.63682	0.07835
1540.35105	0.07867
1539.06529	0.07887
1537.77952	0.07901
1536.49375	0.07906
1535.20798	0.07904
1533.92221	0.07904
1532.63644	0.07909
1531.35067	0.07912
1530.06490	0.07908
1528.77914	0.07902
1527.49337	0.07898
1526.20760	0.07895
1524.92183	0.07888
1523.63606	0.07874
1522.35029	0.07852
1521.06452	0.07831
1519.77875	0.07811
1518.49298	0.07781
1517.20722	0.07736
1515.92145	0.07681
1514.63568	0.07621
1513.34991	0.07553
1512.06414	0.07480
1510.77837	0.07404
1509.49260	0.07322
1508.20683	0.07228
1506.92107	0.07124
1505.63530	0.07015
1504.34953	0.06901
1503.06376	0.06778
1501.77799	0.06650
1500.49222	0.06523
1499.20645	0.06399
1497.92068	0.06273
1496.63491	0.06144
1495.34915	0.06019
1494.06338	0.05900
1492.77761	0.05782
1491.49184	0.05661
1490.20607	0.05541
1488.92030	0.05423
1487.63453	0.05310
1486.34876	0.05206
1485.06299	0.05115
1483.77723	0.05037
1482.49146	0.04973
1481.20569	0.04925
1479.91992	0.04893
1478.63415	0.04876
1477.34838	0.04872
1476.06261	0.04880
1474.77684	0.04900
1473.49108	0.04930
1472.20531	0.04973
1470.91954	0.05022
1469.63377	0.05068
1468.34800	0.05109
1467.06223	0.05146
1465.77646	0.05187
1464.49069	0.05236
1463.20492	0.05292
1461.91916	0.05353
1460.63339	0.05420
1459.34762	0.05491
1458.06185	0.05561
1456.77608	0.05627
1455.49031	0.05685
1454.20454	0.05725
1452.91877	0.05746
1451.63301	0.05757
1450.34724	0.05763
1449.06147	0.05763
1447.77570	0.05756
1446.48993	0.05745
1445.20416	0.05730
1443.91839	0.05706
1442.63262	0.05675
1441.34685	0.05641
1440.06109	0.05606
1438.77532	0.05569
1437.48955	0.05530
1436.20378	0.05492
1434.91801	0.05454
1433.63224	0.05409
1432.34647	0.05358
1431.06070	0.05308
1429.77494	0.05267
1428.48917	0.05237
1427.20340	0.05215
1425.91763	0.05200
1424.63186	0.05191
1423.34609	0.05189
1422.06032	0.05190
1420.77455	0.05190
1419.48878	0.05187
1418.20302	0.05180
1416.91725	0.05166
1415.63148	0.05148
1414.34571	0.05134
1413.05994	0.05127
1411.77417	0.05126
1410.48840	0.05127
1409.20263	0.05130
1407.91687	0.05134
1406.63110	0.05137
1405.34533	0.05139
1404.05956	0.05144
1402.77379	0.05152
1401.48802	0.05155
1400.20225	0.05152
1398.91648	0.05144
1397.63071	0.05134
1396.34495	0.05121
1395.05918	0.05106
1393.77341	0.05090
1392.48764	0.05077
1391.20187	0.05066
1389.91610	0.05057
1388.63033	0.05048
1387.34456	0.05040
1386.05880	0.05031
1384.77303	0.05016
1383.48726	0.04992
1382.20149	0.04965
1380.91572	0.04935
1379.62995	0.04905
1378.34418	0.04876
1377.05841	0.04846
1375.77264	0.04812
1374.48688	0.04775
1373.20111	0.04737
1371.91534	0.04700
1370.62957	0.04664
1369.34380	0.04626
1368.05803	0.04582
1366.77226	0.04529
1365.48649	0.04469
1364.20073	0.04409
1362.91496	0.04358
1361.62919	0.04318
1360.34342	0.04286
1359.05765	0.04260
1357.77188	0.04237
1356.48611	0.04217
1355.20034	0.04202
1353.91457	0.04195
1352.62881	0.04197
1351.34304	0.04206
1350.05727	0.04218
1348.77150	0.04230
1347.48573	0.04241
1346.19996	0.04252
1344.91419	0.04265
1343.62842	0.04285
1342.34266	0.04309
1341.05689	0.04333
1339.77112	0.04354
1338.48535	0.04370
1337.19958	0.04380
1335.91381	0.04381
1334.62804	0.04371
1333.34227	0.04351
1332.05650	0.04326
1330.77074	0.04300
1329.48497	0.04273
1328.19920	0.04246
1326.91343	0.04219
1325.62766	0.04194
1324.34189	0.04174
1323.05612	0.04161
1321.77035	0.04153
1320.48459	0.04148
1319.19882	0.04143
1317.91305	0.04137
1316.62728	0.04130
1315.34151	0.04122
1314.05574	0.04115
1312.76997	0.04108
1311.48420	0.04101
1310.19843	0.04091
1308.91267	0.04078
1307.62690	0.04060
1306.34113	0.04041
1305.05536	0.04023
1303.76959	0.04006
1302.48382	0.03991
1301.19805	0.03975
1299.91228	0.03961
1298.62652	0.03950
1297.34075	0.03945
1296.05498	0.03943
1294.76921	0.03943
1293.48344	0.03946
1292.19767	0.03955
1290.91190	0.03972
1289.62613	0.03995
1288.34036	0.04020
1287.05460	0.04044
1285.76883	0.04065
1284.48306	0.04083
1283.19729	0.04098
1281.91152	0.04111
1280.62575	0.04124
1279.33998	0.04137
1278.05421	0.04147
1276.76845	0.04152
1275.48268	0.04152
1274.19691	0.04153
1272.91114	0.04158
1271.62537	0.04166
1270.33960	0.04176
1269.05383	0.04189
1267.76806	0.04204
1266.48229	0.04222
1265.19653	0.04242
1263.91076	0.04266
1262.62499	0.04291
1261.33922	0.04317
1260.05345	0.04341
1258.76768	0.04365
1257.48191	0.04390
1256.19614	0.04418
1254.91037	0.04451
1253.62461	0.04488
1252.33884	0.04529
1251.05307	0.04574
1249.76730	0.04622
1248.48153	0.04673
1247.19576	0.04725
1245.90999	0.04776
1244.62422	0.04827
1243.33846	0.04876
1242.05269	0.04919
1240.76692	0.04958
1239.48115	0.04991
1238.19538	0.05020
1236.90961	0.05043
1235.62384	0.05056
1234.33807	0.05060
1233.05230	0.05055
1231.76654	0.05047
1230.48077	0.05036
1229.19500	0.05020
1227.90923	0.04994
1226.62346	0.04957
1225.33769	0.04909
1224.05192	0.04854
1222.76615	0.04798
1221.48039	0.04743
1220.19462	0.04690
1218.90885	0.04640
1217.62308	0.04593
1216.33731	0.04550
1215.05154	0.04512
1213.76577	0.04479
1212.48000	0.04455
1211.19423	0.04438
1209.90847	0.04429
1208.62270	0.04424
1207.33693	0.04418
1206.05116	0.04410
1204.76539	0.04400
1203.47962	0.04390
1202.19385	0.04377
1200.90808	0.04350
1199.62232	0.04306
1198.33655	0.04282
1197.05078	0.04257
1195.76501	0.04227
1194.47924	0.04190
1193.19347	0.04148
1191.90770	0.04105
1190.62193	0.04063
1189.33616	0.04025
1188.05040	0.03992
1186.76463	0.03961
1185.47886	0.03932
1184.19309	0.03903
1182.90732	0.03875
1181.62155	0.03856
1180.33578	0.03851
1179.05001	0.03856
1177.76425	0.03861
1176.47848	0.03856
1175.19271	0.03847
1173.90694	0.03841
1172.62117	0.03842
1171.33540	0.03847
1170.04963	0.03852
1168.76386	0.03857
1167.47809	0.03862
1166.19233	0.03871
1164.90656	0.03883
1163.62079	0.03893
1162.33502	0.03899
1161.04925	0.03899
1159.76348	0.03895
1158.47771	0.03891
1157.19194	0.03889
1155.90618	0.03887
1154.62041	0.03886
1153.33464	0.03882
1152.04887	0.03871
1150.76310	0.03851
1149.47733	0.03827
1148.19156	0.03804
1146.90579	0.03788
1145.62002	0.03779
1144.33426	0.03775
1143.04849	0.03770
1141.76272	0.03764
1140.47695	0.03760
1139.19118	0.03763
1137.90541	0.03773
1136.61964	0.03788
1135.33387	0.03805
1134.04811	0.03823
1132.76234	0.03846
1131.47657	0.03878
1130.19080	0.03924
1128.90503	0.03980
1127.61926	0.04047
1126.33349	0.04126
1125.04772	0.04214
1123.76195	0.04306
1122.47619	0.04397
1121.19042	0.04489
1119.90465	0.04587
1118.61888	0.04692
1117.33311	0.04802
1116.04734	0.04914
1114.76157	0.05026
1113.47580	0.05135
1112.19004	0.05239
1110.90427	0.05340
1109.61850	0.05446
1108.33273	0.05557
1107.04696	0.05672
1105.76119	0.05786
1104.47542	0.05893
1103.18965	0.05990
1101.90388	0.06076
1100.61812	0.06146
1099.33235	0.06201
1098.04658	0.06246
1096.76081	0.06287
1095.47504	0.06326
1094.18927	0.06363
1092.90350	0.06396
1091.61773	0.06418
1090.33197	0.06421
1089.04620	0.06410
1087.76043	0.06397
1086.47466	0.06401
1085.18889	0.06433
1083.90312	0.06489
1082.61735	0.06564
1081.33158	0.06653
1080.04581	0.06752
1078.76005	0.06856
1077.47428	0.06957
1076.18851	0.07051
1074.90274	0.07137
1073.61697	0.07215
1072.33120	0.07287
1071.04543	0.07353
1069.75966	0.07413
1068.47390	0.07469
1067.18813	0.07525
1065.90236	0.07587
1064.61659	0.07659
1063.33082	0.07742
1062.04505	0.07831
1060.75928	0.07918
1059.47351	0.08000
1058.18774	0.08082
1056.90198	0.08163
1055.61621	0.08242
1054.33044	0.08315
1053.04467	0.08379
1051.75890	0.08439
1050.47313	0.08499
1049.18736	0.08565
1047.90159	0.08641
1046.61583	0.08726
1045.33006	0.08817
1044.04429	0.08912
1042.75852	0.09005
1041.47275	0.09095
1040.18698	0.09185
1038.90121	0.09285
1037.61544	0.09405
1036.32967	0.09545
1035.04391	0.09692
1033.75814	0.09824
1032.47237	0.09925
1031.18660	0.09993
1029.90083	0.10033
1028.61506	0.10049
1027.32929	0.10032
1026.04352	0.09977
1024.75775	0.09890
1023.47199	0.09783
1022.18622	0.09667
1020.90045	0.09542
1019.61468	0.09401
1018.32891	0.09240
1017.04314	0.09060
1015.75737	0.08872
1014.47160	0.08686
1013.18584	0.08511
1011.90007	0.08349
1010.61430	0.08196
1009.32853	0.08050
1008.04276	0.07908
1006.75699	0.07769
1005.47122	0.07631
1004.18545	0.07494
1002.89968	0.07359
1001.61392	0.07229
1000.32815	0.07106
999.04238	0.06992
997.75661	0.06885
996.47084	0.06784
995.18507	0.06686
993.89930	0.06590
992.61353	0.06494
991.32777	0.06400
990.04200	0.06312
988.75623	0.06230
987.47046	0.06152
986.18469	0.06073
984.89892	0.05992
983.61315	0.05913
982.32738	0.05840
981.04161	0.05774
979.75585	0.05717
978.47008	0.05670
977.18431	0.05634
975.89854	0.05600
974.61277	0.05561
973.32700	0.05516
972.04123	0.05476
970.75546	0.05452
969.46970	0.05449
968.18393	0.05466
966.89816	0.05489
965.61239	0.05500
964.32662	0.05488
963.04085	0.05448
961.75508	0.05389
960.46931	0.05323
959.18354	0.05262
957.89778	0.05208
956.61201	0.05153
955.32624	0.05093
954.04047	0.05028
952.75470	0.04965
951.46893	0.04909
950.18316	0.04862
948.89739	0.04821
947.61163	0.04787
946.32586	0.04758
945.04009	0.04731
943.75432	0.04701
942.46855	0.04663
941.18278	0.04620
939.89701	0.04581
938.61124	0.04550
937.32547	0.04523
936.03971	0.04493
934.75394	0.04460
933.46817	0.04424
932.18240	0.04390
930.89663	0.04362
929.61086	0.04341
928.32509	0.04325
927.03932	0.04309
925.75356	0.04288
924.46779	0.04264
923.18202	0.04237
921.89625	0.04207
920.61048	0.04172
919.32471	0.04135
918.03894	0.04101
916.75317	0.04074
915.46740	0.04054
914.18164	0.04038
912.89587	0.04020
911.61010	0.03992
910.32433	0.03956
909.03856	0.03917
907.75279	0.03885
906.46702	0.03862
905.18125	0.03846
903.89549	0.03830
902.60972	0.03812
901.32395	0.03791
900.03818	0.03769
898.75241	0.03747
897.46664	0.03725
896.18087	0.03705
894.89510	0.03686
893.60933	0.03668
892.32357	0.03654
891.03780	0.03641
889.75203	0.03627
888.46626	0.03606
887.18049	0.03584
885.89472	0.03565
884.60895	0.03551
883.32318	0.03540
882.03742	0.03536
880.75165	0.03546
879.46588	0.03566
878.18011	0.03583
876.89434	0.03586
875.60857	0.03572
874.32280	0.03550
873.03703	0.03531
871.75126	0.03528
870.46550	0.03545
869.17973	0.03570
867.89396	0.03587
866.60819	0.03584
865.32242	0.03567
864.03665	0.03548
862.75088	0.03534
861.46511	0.03520
860.17935	0.03500
858.89358	0.03477
857.60781	0.03456
856.32204	0.03442
855.03627	0.03431
853.75050	0.03421
852.46473	0.03414
851.17896	0.03408
849.89319	0.03397
848.60743	0.03377
847.32166	0.03349
846.03589	0.03322
844.75012	0.03302
843.46435	0.03287
842.17858	0.03270
840.89281	0.03249
839.60704	0.03226
838.32128	0.03207
837.03551	0.03194
835.74974	0.03186
834.46397	0.03180
833.17820	0.03173
831.89243	0.03161
830.60666	0.03146
829.32089	0.03130
828.03512	0.03115
826.74936	0.03107
825.46359	0.03106
824.17782	0.03106
822.89205	0.03108
821.60628	0.03110
820.32051	0.03117
819.03474	0.03127
817.74897	0.03138
816.46321	0.03144
815.17744	0.03142
813.89167	0.03132
812.60590	0.03117
811.32013	0.03105
810.03436	0.03097
808.74859	0.03093
807.46282	0.03092
806.17705	0.03091
804.89129	0.03089
803.60552	0.03087
802.31975	0.03083
801.03398	0.03078
799.74821	0.03073
798.46244	0.03071
797.17667	0.03071
795.89090	0.03074
794.60513	0.03084
793.31937	0.03100
792.03360	0.03118
790.74783	0.03127
789.46206	0.03127
788.17629	0.03124
786.89052	0.03125
785.60475	0.03130
784.31898	0.03133
783.03322	0.03129
781.74745	0.03118
780.46168	0.03109
779.17591	0.03110
777.89014	0.03124
776.60437	0.03142
775.31860	0.03153
774.03283	0.03146
772.74706	0.03126
771.46130	0.03107
770.17553	0.03101
768.88976	0.03108
767.60399	0.03116
766.31822	0.03115
765.03245	0.03107
763.74668	0.03104
762.46091	0.03116
761.17515	0.03143
759.88938	0.03177
758.60361	0.03208
757.31784	0.03230
756.03207	0.03242
754.74630	0.03243
753.46053	0.03234
752.17476	0.03224
750.88899	0.03220
749.60323	0.03226
748.31746	0.03238
747.03169	0.03253
745.74592	0.03264
744.46015	0.03267
743.17438	0.03266
741.88861	0.03268
740.60284	0.03277
739.31708	0.03286
738.03131	0.03293
736.74554	0.03302
735.45977	0.03318
734.17400	0.03335
732.88823	0.03341
731.60246	0.03340
730.31669	0.03342
729.03092	0.03353
727.74516	0.03368
726.45939	0.03380
725.17362	0.03388
723.88785	0.03388
722.60208	0.03392
721.31631	0.03396
720.03054	0.03402
718.74477	0.03412
717.45901	0.03423
716.17324	0.03431
714.88747	0.03432
713.60170	0.03428
712.31593	0.03426
711.03016	0.03429
709.74439	0.03437
708.45862	0.03448
707.17285	0.03459
705.88709	0.03471
704.60132	0.03484
703.31555	0.03498
702.02978	0.03512
700.74401	0.03522
699.45824	0.03524
698.17247	0.03521
696.88670	0.03519
695.60094	0.03519
694.31517	0.03524
693.02940	0.03528
691.74363	0.03530
690.45786	0.03526
689.17209	0.03518
687.88632	0.03512
686.60055	0.03513
685.31478	0.03522
684.02902	0.03535
682.74325	0.03545
681.45748	0.03548
680.17171	0.03547
678.88594	0.03548
677.60017	0.03551
676.31440	0.03554
675.02863	0.03555
673.74287	0.03559
672.45710	0.03571
671.17133	0.03588
669.88556	0.03601
668.59979	0.03606
667.31402	0.03603
666.02825	0.03595
664.74248	0.03585
663.45671	0.03577
662.17095	0.03572
660.88518	0.03572
659.59941	0.03578
658.31364	0.03590
657.02787	0.03601
655.74210	0.03606
654.45633	0.03602
653.17056	0.03592
651.88480	0.03583
650.59903	0.03577
649.31326	0.03578
648.02749	0.03584
646.74172	0.03589
645.45595	0.03590
644.17018	0.03585
642.88441	0.03574
641.59864	0.03559
640.31288	0.03544
639.02711	0.03533
637.74134	0.03524
636.45557	0.03515
635.16980	0.03503
633.88403	0.03490
632.59826	0.03478
631.31249	0.03491
630.02673	0.03610
628.74096	0.03788
627.45519	0.03683
626.16942	0.03859
624.88365	0.04231
623.59788	0.04597
622.31211	0.04870
621.02634	0.04984
619.74057	0.04910
618.45481	0.04712
617.16904	0.04506
615.88327	0.04388
614.59750	0.04421
613.31173	0.04627
612.02596	0.04942
610.74019	0.05236
609.45442	0.05419
608.16866	0.05520
606.88289	0.05620
605.59712	0.05747
604.31135	0.05868
603.02558	0.05930
601.73981	0.05907
600.45404	0.05805
599.16827	0.05656
597.88250	0.05495
596.59674	0.05349
595.31097	0.05226
594.02520	0.05129
592.73943	0.05055
591.45366	0.05000
590.16789	0.04960
588.88212	0.04926
587.59635	0.04900
586.31059	0.04887
585.02482	0.04896
583.73905	0.04937
582.45328	0.05014
581.16751	0.05127
579.88174	0.05257
578.59597	0.05382
577.31020	0.05483
576.02443	0.05557
574.73867	0.05614
573.45290	0.05665
572.16713	0.05720
570.88136	0.05789
569.59559	0.05875
568.30982	0.05974
567.02405	0.06074
565.73828	0.06158
564.45251	0.06216
563.16675	0.06243
561.88098	0.06237
560.59521	0.06201
559.30944	0.06141
558.02367	0.06067
556.73790	0.05985
555.45213	0.05903
554.16636	0.05827
552.88060	0.05763
551.59483	0.05710
550.30906	0.05657
549.02329	0.05597
547.73752	0.05529
546.45175	0.05458
545.16598	0.05391
543.88021	0.05328
542.59444	0.05271
541.30868	0.05220
540.02291	0.05178
538.73714	0.05144
537.45137	0.05114
536.16560	0.05083
534.87983	0.05047
533.59406	0.05008
532.30829	0.04975
531.02253	0.04950
529.73676	0.04930
528.45099	0.04905
527.16522	0.04866
525.87945	0.04814
524.59368	0.04758
523.30791	0.04709
522.02214	0.04671
520.73637	0.04640
519.45061	0.04609
518.16484	0.04578
516.87907	0.04552
515.59330	0.04534
514.30753	0.04521
513.02176	0.04504
511.73599	0.04483
510.45022	0.04457
509.16446	0.04426
507.87869	0.04389
506.59292	0.04348
505.30715	0.04312
504.02138	0.04286
502.73561	0.04271
501.44984	0.04262
500.16407	0.04250
498.87830	0.04234
497.59254	0.04214
496.30677	0.04193
495.02100	0.04169
493.73523	0.04139
492.44946	0.04105
491.16369	0.04075
489.87792	0.04051
488.59215	0.04034
487.30639	0.04017
486.02062	0.03993
484.73485	0.03962
483.44908	0.03929
482.16331	0.03902
480.87754	0.03883
479.59177	0.03873
478.30600	0.03869
477.02023	0.03870
475.73447	0.03871
474.44870	0.03868
473.16293	0.03860
471.87716	0.03847
470.59139	0.03826
469.30562	0.03798
468.01985	0.03766
466.73408	0.03736
465.44832	0.03708
464.16255	0.03680
462.87678	0.03649
461.59101	0.03617
460.30524	0.03588
459.01947	0.03565
457.73370	0.03547
456.44793	0.03531
455.16216	0.03510
453.87640	0.03484
452.59063	0.03454
451.30486	0.03424
450.01909	0.03394
448.73332	0.03367
447.44755	0.03343
446.16178	0.03326
444.87601	0.03314
443.59025	0.03304
442.30448	0.03293
441.01871	0.03281
439.73294	0.03270
438.44717	0.03259
437.16140	0.03248
435.87563	0.03234
434.58986	0.03217
433.30409	0.03194
432.01833	0.03171
430.73256	0.03151
429.44679	0.03138
428.16102	0.03127
426.87525	0.03113
425.58948	0.03094
424.30371	0.03072
423.01794	0.03050
421.73218	0.03032
420.44641	0.03019
419.16064	0.03010
417.87487	0.03001
416.58910	0.02990
415.30333	0.02973
414.01756	0.02948
412.73179	0.02919
411.44602	0.02891
410.16026	0.02870
408.87449	0.02857
407.58872	0.02848
406.30295	0.02835
405.01718	0.02819
403.73141	0.02803
402.44564	0.02789
401.15987	0.02778
399.87411	0.02768
