3997.45528	0.02810
3996.16951	0.02786
3994.88374	0.02785
3993.59798	0.02812
3992.31221	0.02855
3991.02644	0.02902
3989.74067	0.02943
3988.45490	0.02970
3987.16913	0.02983
3985.88336	0.02992
3984.59759	0.03003
3983.31183	0.03012
3982.02606	0.03013
3980.74029	0.03009
3979.45452	0.03011
3978.16875	0.03020
3976.88298	0.03027
3975.59721	0.03029
3974.31144	0.03036
3973.02567	0.03055
3971.73991	0.03079
3970.45414	0.03089
3969.16837	0.03074
3967.88260	0.03037
3966.59683	0.02988
3965.31106	0.02936
3964.02529	0.02886
3962.73952	0.02849
3961.45376	0.02836
3960.16799	0.02840
3958.88222	0.02837
3957.59645	0.02811
3956.31068	0.02784
3955.02491	0.02789
3953.73914	0.02830
3952.45337	0.02877
3951.16760	0.02899
3949.88184	0.02901
3948.59607	0.02903
3947.31030	0.02915
3946.02453	0.02932
3944.73876	0.02955
3943.45299	0.02993
3942.16722	0.03038
3940.88145	0.03067
3939.59569	0.03062
3938.30992	0.03028
3937.02415	0.02978
3935.73838	0.02921
3934.45261	0.02873
3933.16684	0.02857
3931.88107	0.02878
3930.59530	0.02911
3929.30953	0.02924
3928.02377	0.02911
3926.73800	0.02889
3925.45223	0.02877
3924.16646	0.02882
3922.88069	0.02903
3921.59492	0.02936
3920.30915	0.02962
3919.02338	0.02957
3917.73762	0.02915
3916.45185	0.02857
3915.16608	0.02823
3913.88031	0.02828
3912.59454	0.02854
3911.30877	0.02879
3910.02300	0.02898
3908.73723	0.02920
3907.45146	0.02943
3906.16570	0.02953
3904.87993	0.02939
3903.59416	0.02912
3902.30839	0.02890
3901.02262	0.02878
3899.73685	0.02866
3898.45108	0.02847
3897.16531	0.02819
3895.87955	0.02789
3894.59378	0.02768
3893.30801	0.02773
3892.02224	0.02805
3890.73647	0.02848
3889.45070	0.02881
3888.16493	0.02898
3886.87916	0.02899
3885.59339	0.02885
3884.30763	0.02848
3883.02186	0.02796
3881.73609	0.02746
3880.45032	0.02712
3879.16455	0.02687
3877.87878	0.02660
3876.59301	0.02640
3875.30724	0.02650
3874.02148	0.02703
3872.73571	0.02777
3871.44994	0.02828
3870.16417	0.02832
3868.87840	0.02807
3867.59263	0.02792
3866.30686	0.02806
3865.02109	0.02839
3863.73532	0.02872
3862.44956	0.02902
3861.16379	0.02928
3859.87802	0.02936
3858.59225	0.02912
3857.30648	0.02860
3856.02071	0.02799
3854.73494	0.02744
3853.44917	0.02703
3852.16341	0.02684
3850.87764	0.02689
3849.59187	0.02707
3848.30610	0.02726
3847.02033	0.02751
3845.73456	0.02800
3844.44879	0.02867
3843.16302	0.02917
3841.87725	0.02911
3840.59149	0.02844
3839.30572	0.02753
3838.01995	0.02685
3836.73418	0.02663
3835.44841	0.02687
3834.16264	0.02740
3832.87687	0.02797
3831.59110	0.02829
3830.30534	0.02821
3829.01957	0.02785
3827.73380	0.02750
3826.44803	0.02734
3825.16226	0.02736
3823.87649	0.02747
3822.59072	0.02760
3821.30495	0.02772
3820.01918	0.02785
3818.73342	0.02796
3817.44765	0.02798
3816.16188	0.02794
3814.87611	0.02793
3813.59034	0.02803
3812.30457	0.02813
3811.01880	0.02797
3809.73303	0.02745
3808.44726	0.02684
3807.16150	0.02656
3805.87573	0.02679
3804.58996	0.02733
3803.30419	0.02783
3802.01842	0.02808
3800.73265	0.02807
3799.44688	0.02786
3798.16111	0.02756
3796.87535	0.02737
3795.58958	0.02746
3794.30381	0.02772
3793.01804	0.02786
3791.73227	0.02769
3790.44650	0.02730
3789.16073	0.02695
3787.87496	0.02680
3786.58919	0.02677
3785.30343	0.02670
3784.01766	0.02651
3782.73189	0.02623
3781.44612	0.02597
3780.16035	0.02580
3778.87458	0.02568
3777.58881	0.02557
3776.30304	0.02546
3775.01728	0.02538
3773.73151	0.02533
3772.44574	0.02525
3771.15997	0.02515
3769.87420	0.02509
3768.58843	0.02521
3767.30266	0.02555
3766.01689	0.02602
3764.73112	0.02640
3763.44536	0.02647
3762.15959	0.02619
3760.87382	0.02568
3759.58805	0.02513
3758.30228	0.02476
3757.01651	0.02472
3755.73074	0.02502
3754.44497	0.02548
3753.15921	0.02590
3751.87344	0.02617
3750.58767	0.02623
3749.30190	0.02606
3748.01613	0.02571
3746.73036	0.02531
3745.44459	0.02495
3744.15882	0.02464
3742.87305	0.02435
3741.58729	0.02419
3740.30152	0.02429
3739.01575	0.02474
3737.72998	0.02534
3736.44421	0.02573
3735.15844	0.02568
3733.87267	0.02532
3732.58690	0.02501
3731.30114	0.02500
3730.01537	0.02525
3728.72960	0.02543
3727.44383	0.02531
3726.15806	0.02501
3724.87229	0.02476
3723.58652	0.02472
3722.30075	0.02482
3721.01498	0.02490
3719.72922	0.02492
3718.44345	0.02494
3717.15768	0.02499
3715.87191	0.02503
3714.58614	0.02511
3713.30037	0.02540
3712.01460	0.02610
3710.72883	0.02711
3709.44307	0.02799
3708.15730	0.02828
3706.87153	0.02791
3705.58576	0.02719
3704.29999	0.02655
3703.01422	0.02614
3701.72845	0.02591
3700.44268	0.02576
3699.15691	0.02580
3697.87115	0.02594
3696.58538	0.02598
3695.29961	0.02579
3694.01384	0.02542
3692.72807	0.02509
3691.44230	0.02498
3690.15653	0.02519
3688.87076	0.02565
3687.58500	0.02622
3686.29923	0.02676
3685.01346	0.02710
3683.72769	0.02715
3682.44192	0.02702
3681.15615	0.02696
3679.87038	0.02710
3678.58461	0.02733
3677.29884	0.02743
3676.01308	0.02727
3674.72731	0.02694
3673.44154	0.02665
3672.15577	0.02652
3670.87000	0.02658
3669.58423	0.02675
3668.29846	0.02694
3667.01269	0.02710
3665.72693	0.02719
3664.44116	0.02721
3663.15539	0.02715
3661.86962	0.02699
3660.58385	0.02683
3659.29808	0.02693
3658.01231	0.02751
3656.72654	0.02849
3655.44077	0.02943
3654.15501	0.02982
3652.86924	0.02952
3651.58347	0.02890
3650.29770	0.02845
3649.01193	0.02842
3647.72616	0.02875
3646.44039	0.02929
3645.15462	0.02986
3643.86886	0.03028
3642.58309	0.03050
3641.29732	0.03068
3640.01155	0.03106
3638.72578	0.03171
3637.44001	0.03250
3636.15424	0.03318
3634.86847	0.03358
3633.58270	0.03369
3632.29694	0.03372
3631.01117	0.03391
3629.72540	0.03431
3628.43963	0.03474
3627.15386	0.03505
3625.86809	0.03536
3624.58232	0.03580
3623.29655	0.03637
3622.01079	0.03689
3620.72502	0.03730
3619.43925	0.03772
3618.15348	0.03828
3616.86771	0.03885
3615.58194	0.03920
3614.29617	0.03912
3613.01040	0.03869
3611.72463	0.03818
3610.43887	0.03791
3609.15310	0.03806
3607.86733	0.03855
3606.58156	0.03914
3605.29579	0.03964
3604.01002	0.04008
3602.72425	0.04057
3601.43848	0.04128
3600.15272	0.04228
3598.86695	0.04345
3597.58118	0.04444
3596.29541	0.04495
3595.00964	0.04497
3593.72387	0.04486
3592.43810	0.04488
3591.15233	0.04510
3589.86656	0.04552
3588.58080	0.04609
3587.29503	0.04678
3586.00926	0.04756
3584.72349	0.04836
3583.43772	0.04903
3582.15195	0.04942
3580.86618	0.04948
3579.58041	0.04930
3578.29464	0.04904
3577.00888	0.04894
3575.72311	0.04918
3574.43734	0.04984
3573.15157	0.05081
3571.86580	0.05182
3570.58003	0.05264
3569.29426	0.05327
3568.00849	0.05390
3566.72273	0.05461
3565.43696	0.05524
3564.15119	0.05554
3562.86542	0.05547
3561.57965	0.05526
3560.29388	0.05520
3559.00811	0.05543
3557.72234	0.05590
3556.43657	0.05642
3555.15081	0.05683
3553.86504	0.05704
3552.57927	0.05700
3551.29350	0.05682
3550.00773	0.05679
3548.72196	0.05715
3547.43619	0.05788
3546.15042	0.05874
3544.86466	0.05945
3543.57889	0.05992
3542.29312	0.06021
3541.00735	0.06039
3539.72158	0.06047
3538.43581	0.06055
3537.15004	0.06079
3535.86427	0.06136
3534.57850	0.06227
3533.29274	0.06331
3532.00697	0.06416
3530.72120	0.06453
3529.43543	0.06441
3528.14966	0.06414
3526.86389	0.06420
3525.57812	0.06478
3524.29235	0.06559
3523.00659	0.06618
3521.72082	0.06634
3520.43505	0.06622
3519.14928	0.06612
3517.86351	0.06621
3516.57774	0.06648
3515.29197	0.06687
3514.00620	0.06741
3512.72043	0.06811
3511.43467	0.06892
3510.14890	0.06966
3508.86313	0.07010
3507.57736	0.07013
3506.29159	0.06992
3505.00582	0.06993
3503.72005	0.07043
3502.43428	0.07127
3501.14852	0.07200
3499.86275	0.07235
3498.57698	0.07245
3497.29121	0.07258
3496.00544	0.07286
3494.71967	0.07321
3493.43390	0.07346
3492.14813	0.07353
3490.86236	0.07348
3489.57660	0.07354
3488.29083	0.07395
3487.00506	0.07467
3485.71929	0.07539
3484.43352	0.07575
3483.14775	0.07579
3481.86198	0.07582
3480.57621	0.07612
3479.29045	0.07664
3478.00468	0.07716
3476.71891	0.07753
3475.43314	0.07782
3474.14737	0.07808
3472.86160	0.07832
3471.57583	0.07855
3470.29006	0.07884
3469.00429	0.07929
3467.71853	0.07981
3466.43276	0.08018
3465.14699	0.08031
3463.86122	0.08032
3462.57545	0.08046
3461.28968	0.08081
3460.00391	0.08123
3458.71814	0.08154
3457.43238	0.08169
3456.14661	0.08175
3454.86084	0.08182
3453.57507	0.08184
3452.28930	0.08164
3451.00353	0.08122
3449.71776	0.08094
3448.43199	0.08123
3447.14622	0.08212
3445.86046	0.08319
3444.57469	0.08399
3443.28892	0.08440
3442.00315	0.08459
3440.71738	0.08477
3439.43161	0.08514
3438.14584	0.08579
3436.86007	0.08660
3435.57431	0.08727
3434.28854	0.08762
3433.00277	0.08776
3431.71700	0.08791
3430.43123	0.08813
3429.14546	0.08833
3427.85969	0.08846
3426.57392	0.08863
3425.28815	0.08886
3424.00239	0.08908
3422.71662	0.08916
3421.43085	0.08918
3420.14508	0.08936
3418.85931	0.08980
3417.57354	0.09036
3416.28777	0.09076
3415.00200	0.09085
3413.71624	0.09072
3412.43047	0.09066
3411.14470	0.09086
3409.85893	0.09131
3408.57316	0.09182
3407.28739	0.09230
3406.00162	0.09279
3404.71585	0.09342
3403.43008	0.09416
3402.14432	0.09481
3400.85855	0.09516
3399.57278	0.09523
3398.28701	0.09524
3397.00124	0.09538
3395.71547	0.09568
3394.42970	0.09608
3393.14393	0.09647
3391.85817	0.09678
3390.57240	0.09701
3389.28663	0.09729
3388.00086	0.09775
3386.71509	0.09834
3385.42932	0.09883
3384.14355	0.09907
3382.85778	0.09904
3381.57201	0.09893
3380.28625	0.09896
3379.00048	0.09926
3377.71471	0.09972
3376.42894	0.10016
3375.14317	0.10048
3373.85740	0.10074
3372.57163	0.10102
3371.28586	0.10138
3370.00010	0.10188
3368.71433	0.10254
3367.42856	0.10326
3366.14279	0.10388
3364.85702	0.10438
3363.57125	0.10490
3362.28548	0.10548
3360.99971	0.10599
3359.71394	0.10633
3358.42818	0.10659
3357.14241	0.10689
3355.85664	0.10732
3354.57087	0.10784
3353.28510	0.10841
3351.99933	0.10904
3350.71356	0.10969
3349.42779	0.11029
3348.14202	0.11085
3346.85626	0.11138
3345.57049	0.11194
3344.28472	0.11248
3342.99895	0.11293
3341.71318	0.11328
3340.42741	0.11370
3339.14164	0.11434
3337.85587	0.11518
3336.57011	0.11602
3335.28434	0.11661
3333.99857	0.11684
3332.71280	0.11678
3331.42703	0.11666
3330.14126	0.11669
3328.85549	0.11705
3327.56972	0.11773
3326.28395	0.11854
3324.99819	0.11923
3323.71242	0.11973
3322.42665	0.12012
3321.14088	0.12050
3319.85511	0.12088
3318.56934	0.12120
3317.28357	0.12148
3315.99780	0.12182
3314.71204	0.12225
3313.42627	0.12274
3312.14050	0.12324
3310.85473	0.12384
3309.56896	0.12462
3308.28319	0.12547
3306.99742	0.12615
3305.71165	0.12654
3304.42588	0.12671
3303.14012	0.12687
3301.85435	0.12721
3300.56858	0.12775
3299.28281	0.12834
3297.99704	0.12875
3296.71127	0.12887
3295.42550	0.12880
3294.13973	0.12871
3292.85397	0.12875
3291.56820	0.12893
3290.28243	0.12920
3288.99666	0.12950
3287.71089	0.12984
3286.42512	0.13025
3285.13935	0.13062
3283.85358	0.13082
3282.56781	0.13079
3281.28205	0.13067
3279.99628	0.13061
3278.71051	0.13064
3277.42474	0.13067
3276.13897	0.13062
3274.85320	0.13052
3273.56743	0.13041
3272.28166	0.13032
3270.99590	0.13026
3269.71013	0.13020
3268.42436	0.13010
3267.13859	0.12990
3265.85282	0.12954
3264.56705	0.12905
3263.28128	0.12856
3261.99551	0.12819
3260.70974	0.12794
3259.42398	0.12773
3258.13821	0.12745
3256.85244	0.12714
3255.56667	0.12696
3254.28090	0.12702
3252.99513	0.12726
3251.70936	0.12758
3250.42359	0.12781
3249.13783	0.12778
3247.85206	0.12731
3246.56629	0.12646
3245.28052	0.12564
3243.99475	0.12524
3242.70898	0.12532
3241.42321	0.12561
3240.13744	0.12573
3238.85167	0.12548
3237.56591	0.12493
3236.28014	0.12428
3234.99437	0.12372
3233.70860	0.12329
3232.42283	0.12296
3231.13706	0.12274
3229.85129	0.12269
3228.56552	0.12276
3227.27976	0.12274
3225.99399	0.12247
3224.70822	0.12201
3223.42245	0.12161
3222.13668	0.12149
3220.85091	0.12162
3219.56514	0.12181
3218.27937	0.12182
3216.99360	0.12153
3215.70784	0.12102
3214.42207	0.12054
3213.13630	0.12023
3211.85053	0.12001
3210.56476	0.11976
3209.27899	0.11944
3207.99322	0.11915
3206.70745	0.11891
3205.42169	0.11871
3204.13592	0.11858
3202.85015	0.11864
3201.56438	0.11885
3200.27861	0.11907
3198.99284	0.11912
3197.70707	0.11896
3196.42130	0.11865
3195.13553	0.11824
3193.84977	0.11782
3192.56400	0.11748
3191.27823	0.11723
3189.99246	0.11705
3188.70669	0.11689
3187.42092	0.11671
3186.13515	0.11651
3184.84938	0.11622
3183.56362	0.11573
3182.27785	0.11500
3180.99208	0.11419
3179.70631	0.11360
3178.42054	0.11343
3177.13477	0.11354
3175.84900	0.11362
3174.56323	0.11347
3173.27746	0.11317
3171.99170	0.11294
3170.70593	0.11282
3169.42016	0.11263
3168.13439	0.11225
3166.84862	0.11178
3165.56285	0.11136
3164.27708	0.11101
3162.99131	0.11060
3161.70555	0.11006
3160.41978	0.10952
3159.13401	0.10912
3157.84824	0.10885
3156.56247	0.10859
3155.27670	0.10829
3153.99093	0.10800
3152.70516	0.10779
3151.41939	0.10766
3150.13363	0.10754
3148.84786	0.10735
3147.56209	0.10705
3146.27632	0.10665
3144.99055	0.10623
3143.70478	0.10592
3142.41901	0.10586
3141.13324	0.10600
3139.84748	0.10613
3138.56171	0.10606
3137.27594	0.10568
3135.99017	0.10508
3134.70440	0.10445
3133.41863	0.10400
3132.13286	0.10388
3130.84709	0.10403
3129.56132	0.10422
3128.27556	0.10428
3126.98979	0.10426
3125.70402	0.10427
3124.41825	0.10436
3123.13248	0.10442
3121.84671	0.10434
3120.56094	0.10410
3119.27517	0.10380
3117.98940	0.10361
3116.70364	0.10366
3115.41787	0.10390
3114.13210	0.10412
3112.84633	0.10417
3111.56056	0.10408
3110.27479	0.10398
3108.98902	0.10404
3107.70325	0.10428
3106.41749	0.10463
3105.13172	0.10495
3103.84595	0.10517
3102.56018	0.10531
3101.27441	0.10542
3099.98864	0.10555
3098.70287	0.10567
3097.41710	0.10573
3096.13133	0.10571
3094.84557	0.10565
3093.55980	0.10556
3092.27403	0.10546
3090.98826	0.10540
3089.70249	0.10545
3088.41672	0.10563
3087.13095	0.10583
3085.84518	0.10593
3084.55942	0.10593
3083.27365	0.10595
3081.98788	0.10611
3080.70211	0.10640
3079.41634	0.10669
3078.13057	0.10691
3076.84480	0.10704
3075.55903	0.10719
3074.27326	0.10746
3072.98750	0.10788
3071.70173	0.10832
3070.41596	0.10859
3069.13019	0.10856
3067.84442	0.10823
3066.55865	0.10775
3065.27288	0.10738
3063.98711	0.10733
3062.70135	0.10765
3061.41558	0.10812
3060.12981	0.10846
3058.84404	0.10848
3057.55827	0.10818
3056.27250	0.10772
3054.98673	0.10725
3053.70096	0.10682
3052.41519	0.10642
3051.12943	0.10601
3049.84366	0.10565
3048.55789	0.10543
3047.27212	0.10539
3045.98635	0.10547
3044.70058	0.10559
3043.41481	0.10569
3042.12904	0.10580
3040.84328	0.10591
3039.55751	0.10595
3038.27174	0.10575
3036.98597	0.10529
3035.70020	0.10476
3034.41443	0.10436
3033.12866	0.10419
3031.84289	0.10412
3030.55712	0.10396
3029.27136	0.10362
3027.98559	0.10312
3026.69982	0.10260
3025.41405	0.10219
3024.12828	0.10198
3022.84251	0.10199
3021.55674	0.10222
3020.27097	0.10258
3018.98521	0.10287
3017.69944	0.10294
3016.41367	0.10278
3015.12790	0.10246
3013.84213	0.10207
3012.55636	0.10173
3011.27059	0.10151
3009.98482	0.10141
3008.69905	0.10137
3007.41329	0.10130
3006.12752	0.10120
3004.84175	0.10110
3003.55598	0.10102
3002.27021	0.10090
3000.98444	0.10067
2999.69867	0.10035
2998.41290	0.10023
2997.12714	0.10030
2995.84137	0.10059
2994.55560	0.10110
2993.26983	0.10178
2991.98406	0.10243
2990.69829	0.10282
2989.41252	0.10288
2988.12675	0.10279
2986.84098	0.10282
2985.55522	0.10308
2984.26945	0.10346
2982.98368	0.10382
2981.69791	0.10420
2980.41214	0.10462
2979.12637	0.10500
2977.84060	0.10529
2976.55483	0.10557
2975.26907	0.10603
2973.98330	0.10665
2972.69753	0.10723
2971.41176	0.10767
2970.12599	0.10805
2968.84022	0.10850
2967.55445	0.10905
2966.26868	0.10970
2964.98291	0.11038
2963.69715	0.11093
2962.41138	0.11117
2961.12561	0.11107
2959.83984	0.11088
2958.55407	0.11088
2957.26830	0.11108
2955.98253	0.11129
2954.69676	0.11131
2953.41100	0.11113
2952.12523	0.11093
2950.83946	0.11089
2949.55369	0.11107
2948.26792	0.11135
2946.98215	0.11157
2945.69638	0.11168
2944.41061	0.11177
2943.12484	0.11188
2941.83908	0.11199
2940.55331	0.11210
2939.26754	0.11228
2937.98177	0.11264
2936.69600	0.11313
2935.41023	0.11359
2934.12446	0.11387
2932.83869	0.11402
2931.55293	0.11420
2930.26716	0.11454
2928.98139	0.11500
2927.69562	0.11540
2926.40985	0.11557
2925.12408	0.11546
2923.83831	0.11521
2922.55254	0.11501
2921.26677	0.11491
2919.98101	0.11481
2918.69524	0.11456
2917.40947	0.11412
2916.12370	0.11354
2914.83793	0.11282
2913.55216	0.11194
2912.26639	0.11095
2910.98062	0.10997
2909.69486	0.10911
2908.40909	0.10837
2907.12332	0.10765
2905.83755	0.10694
2904.55178	0.10637
2903.26601	0.10609
2901.98024	0.10604
2900.69447	0.10605
2899.40870	0.10599
2898.12294	0.10587
2896.83717	0.10576
2895.55140	0.10569
2894.26563	0.10557
2892.97986	0.10529
2891.69409	0.10480
2890.40832	0.10428
2889.12255	0.10397
2887.83678	0.10402
2886.55102	0.10433
2885.26525	0.10459
2883.97948	0.10459
2882.69371	0.10433
2881.40794	0.10401
2880.12217	0.10382
2878.83640	0.10378
2877.55063	0.10380
2876.26487	0.10383
2874.97910	0.10386
2873.69333	0.10396
2872.40756	0.10411
2871.12179	0.10426
2869.83602	0.10427
2868.55025	0.10408
2867.26448	0.10371
2865.97871	0.10332
2864.69295	0.10315
2863.40718	0.10325
2862.12141	0.10345
2860.83564	0.10347
2859.54987	0.10317
2858.26410	0.10270
2856.97833	0.10234
2855.69256	0.10228
2854.40680	0.10250
2853.12103	0.10277
2851.83526	0.10286
2850.54949	0.10261
2849.26372	0.10205
2847.97795	0.10134
2846.69218	0.10062
2845.40641	0.09997
2844.12064	0.09938
2842.83488	0.09886
2841.54911	0.09842
2840.26334	0.09806
2838.97757	0.09769
2837.69180	0.09724
2836.40603	0.09675
2835.12026	0.09637
2833.83449	0.09611
2832.54873	0.09585
2831.26296	0.09551
2829.97719	0.09522
2828.69142	0.09507
2827.40565	0.09500
2826.11988	0.09483
2824.83411	0.09449
2823.54834	0.09413
2822.26257	0.09392
2820.97681	0.09390
2819.69104	0.09397
2818.40527	0.09397
2817.11950	0.09381
2815.83373	0.09347
2814.54796	0.09303
2813.26219	0.09263
2811.97642	0.09245
2810.69066	0.09258
2809.40489	0.09283
2808.11912	0.09290
2806.83335	0.09263
2805.54758	0.09215
2804.26181	0.09169
2802.97604	0.09138
2801.69027	0.09118
2800.40450	0.09103
2799.11874	0.09084
2797.83297	0.09059
2796.54720	0.09030
2795.26143	0.08999
2793.97566	0.08971
2792.68989	0.08957
2791.40412	0.08957
2790.11835	0.08966
2788.83259	0.08970
2787.54682	0.08958
2786.26105	0.08935
2784.97528	0.08912
2783.68951	0.08900
2782.40374	0.08897
2781.11797	0.08889
2779.83220	0.08867
2778.54643	0.08835
2777.26067	0.08803
2775.97490	0.08777
2774.68913	0.08755
2773.40336	0.08734
2772.11759	0.08712
2770.83182	0.08692
2769.54605	0.08678
2768.26028	0.08669
2766.97452	0.08661
2765.68875	0.08650
2764.40298	0.08633
2763.11721	0.08604
2761.83144	0.08563
2760.54567	0.08521
2759.25990	0.08495
2757.97413	0.08483
2756.68836	0.08476
2755.40260	0.08463
2754.11683	0.08448
2752.83106	0.08440
2751.54529	0.08439
2750.25952	0.08437
2748.97375	0.08422
2747.68798	0.08395
2746.40221	0.08362
2745.11645	0.08329
2743.83068	0.08293
2742.54491	0.08251
2741.25914	0.08205
2739.97337	0.08160
2738.68760	0.08125
2737.40183	0.08107
2736.11606	0.08103
2734.83029	0.08102
2733.54453	0.08094
2732.25876	0.08079
2730.97299	0.08065
2729.68722	0.08061
2728.40145	0.08057
2727.11568	0.08038
2725.82991	0.07997
2724.54414	0.07947
2723.25838	0.07906
2721.97261	0.07884
2720.68684	0.07879
2719.40107	0.07878
2718.11530	0.07867
2716.82953	0.07846
2715.54376	0.07828
2714.25799	0.07821
2712.97222	0.07814
2711.68646	0.07790
2710.40069	0.07743
2709.11492	0.07688
2707.82915	0.07648
2706.54338	0.07630
2705.25761	0.07622
2703.97184	0.07614
2702.68607	0.07606
2701.40031	0.07600
2700.11454	0.07591
2698.82877	0.07571
2697.54300	0.07539
2696.25723	0.07505
2694.97146	0.07481
2693.68569	0.07471
2692.39992	0.07468
2691.11415	0.07465
2689.82839	0.07458
2688.54262	0.07448
2687.25685	0.07433
2685.97108	0.07407
2684.68531	0.07369
2683.39954	0.07329
2682.11377	0.07302
2680.82800	0.07288
2679.54224	0.07279
2678.25647	0.07265
2676.97070	0.07246
2675.68493	0.07222
2674.39916	0.07196
2673.11339	0.07169
2671.82762	0.07145
2670.54185	0.07134
2669.25608	0.07137
2667.97032	0.07141
2666.68455	0.07133
2665.39878	0.07109
2664.11301	0.07079
2662.82724	0.07057
2661.54147	0.07042
2660.25570	0.07027
2658.96993	0.07005
2657.68417	0.06983
2656.39840	0.06964
2655.11263	0.06948
2653.82686	0.06926
2652.54109	0.06897
2651.25532	0.06861
2649.96955	0.06825
2648.68378	0.06790
2647.39801	0.06760
2646.11225	0.06729
2644.82648	0.06693
2643.54071	0.06649
2642.25494	0.06600
2640.96917	0.06556
2639.68340	0.06527
2638.39763	0.06511
2637.11186	0.06496
2635.82609	0.06471
2634.54033	0.06434
2633.25456	0.06388
2631.96879	0.06339
2630.68302	0.06291
2629.39725	0.06251
2628.11148	0.06224
2626.82571	0.06214
2625.53994	0.06214
2624.25418	0.06215
2622.96841	0.06213
2621.68264	0.06210
2620.39687	0.06207
2619.11110	0.06199
2617.82533	0.06183
2616.53956	0.06160
2615.25379	0.06132
2613.96802	0.06091
2612.68226	0.06033
2611.39649	0.05975
2610.11072	0.05936
2608.82495	0.05916
2607.53918	0.05895
2606.25341	0.05861
2604.96764	0.05823
2603.68187	0.05796
2602.39611	0.05779
2601.11034	0.05764
2599.82457	0.05745
2598.53880	0.05722
2597.25303	0.05698
2595.96726	0.05673
2594.68149	0.05649
2593.39572	0.05636
2592.10995	0.05632
2590.82419	0.05630
2589.53842	0.05624
2588.25265	0.05618
2586.96688	0.05615
2585.68111	0.05610
2584.39534	0.05598
2583.10957	0.05584
2581.82380	0.05577
2580.53804	0.05579
2579.25227	0.05590
2577.96650	0.05600
2576.68073	0.05603
2575.39496	0.05597
2574.10919	0.05579
2572.82342	0.05543
2571.53765	0.05494
2570.25188	0.05461
2568.96612	0.05469
2567.68035	0.05505
2566.39458	0.05535
2565.10881	0.05539
2563.82304	0.05526
2562.53727	0.05514
2561.25150	0.05504
2559.96573	0.05490
2558.67997	0.05473
2557.39420	0.05464
2556.10843	0.05466
2554.82266	0.05470
2553.53689	0.05463
2552.25112	0.05444
2550.96535	0.05429
2549.67958	0.05426
2548.39381	0.05429
2547.10805	0.05415
2545.82228	0.05378
2544.53651	0.05340
2543.25074	0.05328
2541.96497	0.05343
2540.67920	0.05362
2539.39343	0.05366
2538.10766	0.05364
2536.82190	0.05366
2535.53613	0.05369
2534.25036	0.05367
2532.96459	0.05364
2531.67882	0.05361
2530.39305	0.05352
2529.10728	0.05332
2527.82151	0.05317
2526.53574	0.05318
2525.24998	0.05331
2523.96421	0.05335
2522.67844	0.05316
2521.39267	0.05287
2520.10690	0.05273
2518.82113	0.05290
2517.53536	0.05334
2516.24959	0.05388
2514.96383	0.05425
2513.67806	0.05420
2512.39229	0.05372
2511.10652	0.05314
2509.82075	0.05288
2508.53498	0.05300
2507.24921	0.05323
2505.96344	0.05333
2504.67767	0.05325
2503.39191	0.05317
2502.10614	0.05323
2500.82037	0.05344
2499.53460	0.05363
2498.24883	0.05360
2496.96306	0.05335
2495.67729	0.05308
2494.39152	0.05300
2493.10576	0.05313
2491.81999	0.05332
2490.53422	0.05343
2489.24845	0.05334
2487.96268	0.05302
2486.67691	0.05255
2485.39114	0.05226
2484.10537	0.05246
2482.81960	0.05317
2481.53384	0.05406
2480.24807	0.05468
2478.96230	0.05475
2477.67653	0.05435
2476.39076	0.05376
2475.10499	0.05338
2473.81922	0.05343
2472.53345	0.05383
2471.24769	0.05425
2469.96192	0.05445
2468.67615	0.05448
2467.39038	0.05453
2466.10461	0.05462
2464.81884	0.05464
2463.53307	0.05458
2462.24730	0.05456
2460.96153	0.05467
2459.67577	0.05486
2458.39000	0.05502
2457.10423	0.05504
2455.81846	0.05496
2454.53269	0.05484
2453.24692	0.05477
2451.96115	0.05474
2450.67538	0.05469
2449.38962	0.05463
2448.10385	0.05461
2446.81808	0.05464
2445.53231	0.05462
2444.24654	0.05450
2442.96077	0.05435
2441.67500	0.05432
2440.38923	0.05448
2439.10346	0.05479
2437.81770	0.05517
2436.53193	0.05548
2435.24616	0.05559
2433.96039	0.05542
2432.67462	0.05511
2431.38885	0.05494
2430.10308	0.05508
2428.81731	0.05536
2427.53155	0.05554
2426.24578	0.05548
2424.96001	0.05526
2423.67424	0.05505
2422.38847	0.05505
2421.10270	0.05529
2419.81693	0.05556
2418.53116	0.05568
2417.24539	0.05568
2415.95963	0.05563
2414.67386	0.05552
2413.38809	0.05531
2412.10232	0.05503
2410.81655	0.05477
2409.53078	0.05456
2408.24501	0.05438
2406.95924	0.05423
2405.67347	0.05417
2404.38771	0.05428
2403.10194	0.05458
2401.81617	0.05499
2400.53040	0.05534
2399.24463	0.05544
2397.95886	0.05544
2396.67309	0.05540
2395.38732	0.05532
2394.10156	0.05519
2392.81579	0.05508
2391.53002	0.05510
2390.24425	0.05532
2388.95848	0.05568
2387.67271	0.05600
2386.38694	0.05616
2385.10117	0.05617
2383.81540	0.05614
2382.52964	0.05616
2381.24387	0.05620
2379.95810	0.05627
2378.67233	0.05619
2377.38656	0.05613
2376.10079	0.05640
2374.81502	0.05691
2373.52925	0.05697
2372.24349	0.05678
2370.95772	0.05670
2369.67195	0.05654
2368.38618	0.05637
2367.10041	0.05633
2365.81464	0.05648
2364.52887	0.05672
2363.24310	0.05698
2361.95733	0.05730
2360.67157	0.05773
2359.38580	0.05810
2358.10003	0.05807
2356.81426	0.05765
2355.52849	0.05728
2354.24272	0.05741
2352.95695	0.05790
2351.67118	0.05789
2350.38542	0.05767
2349.09965	0.05770
2347.81388	0.05769
2346.52811	0.05746
2345.24234	0.05735
2343.95657	0.05758
2342.67080	0.05831
2341.38503	0.05811
2340.09926	0.05743
2338.81350	0.05721
2337.52773	0.05717
2336.24196	0.05648
2334.95619	0.05615
2333.67042	0.05636
2332.38465	0.05681
2331.09888	0.05595
2329.81311	0.05586
2328.52735	0.05620
2327.24158	0.05611
2325.95581	0.05617
2324.67004	0.05605
2323.38427	0.05601
2322.09850	0.05538
2320.81273	0.05468
2319.52696	0.05428
2318.24119	0.05417
2316.95543	0.05399
2315.66966	0.05373
2314.38389	0.05345
2313.09812	0.05295
2311.81235	0.05234
2310.52658	0.05186
2309.24081	0.05156
2307.95504	0.05134
2306.66928	0.05110
2305.38351	0.05071
2304.09774	0.05024
2302.81197	0.04987
2301.52620	0.04968
2300.24043	0.04961
2298.95466	0.04949
2297.66889	0.04923
2296.38312	0.04887
2295.09736	0.04837
2293.81159	0.04765
2292.52582	0.04676
2291.24005	0.04605
2289.95428	0.04582
2288.66851	0.04601
2287.38274	0.04624
2286.09697	0.04621
2284.81121	0.04592
2283.52544	0.04551
2282.23967	0.04508
2280.95390	0.04462
2279.66813	0.04410
2278.38236	0.04353
2277.09659	0.04300
2275.81082	0.04267
2274.52505	0.04262
2273.23929	0.04273
2271.95352	0.04274
2270.66775	0.04238
2269.38198	0.04155
2268.09621	0.04033
2266.81044	0.03908
2265.52467	0.03827
2264.23890	0.03817
2262.95314	0.03861
2261.66737	0.03910
2260.38160	0.03928
2259.09583	0.03912
2257.81006	0.03884
2256.52429	0.03868
2255.23852	0.03872
2253.95275	0.03887
2252.66698	0.03900
2251.38122	0.03900
2250.09545	0.03889
2248.80968	0.03860
2247.52391	0.03778
2246.23814	0.03678
2244.95237	0.03593
2243.66660	0.03546
2242.38083	0.03530
2241.09507	0.03519
2239.80930	0.03491
2238.52353	0.03440
2237.23776	0.03377
2235.95199	0.03334
2234.66622	0.03344
2233.38045	0.03393
2232.09468	0.03432
2230.80891	0.03428
2229.52315	0.03397
2228.23738	0.03359
2226.95161	0.03298
2225.66584	0.03192
2224.38007	0.03067
2223.09430	0.02985
2221.80853	0.02973
2220.52276	0.03000
2219.23700	0.03031
2217.95123	0.03069
2216.66546	0.03126
2215.37969	0.03178
2214.09392	0.03168
2212.80815	0.03080
2211.52238	0.02970
2210.23661	0.02913
2208.95084	0.02942
2207.66508	0.03012
2206.37931	0.03042
2205.09354	0.02977
2203.80777	0.02838
2202.52200	0.02700
2201.23623	0.02632
2199.95046	0.02642
2198.66469	0.02694
2197.37893	0.02746
2196.09316	0.02756
2194.80739	0.02685
2193.52162	0.02534
2192.23585	0.02370
2190.95008	0.02291
2189.66431	0.02341
2188.37854	0.02476
2187.09277	0.02604
2185.80701	0.02655
2184.52124	0.02623
2183.23547	0.02542
2181.94970	0.02466
2180.66393	0.02436
2179.37816	0.02451
2178.09239	0.02481
2176.80662	0.02496
2175.52085	0.02501
2174.23509	0.02513
2172.94932	0.02529
2171.66355	0.02518
2170.37778	0.02454
2169.09201	0.02335
2167.80624	0.02182
2166.52047	0.02040
2165.23470	0.01970
2163.94894	0.01994
2162.66317	0.02046
2161.37740	0.02010
2160.09163	0.01841
2158.80586	0.01644
2157.52009	0.01562
2156.23432	0.01616
2154.94855	0.01726
2153.66278	0.01839
2152.37702	0.01960
2151.09125	0.02094
2149.80548	0.02202
2148.51971	0.02243
2147.23394	0.02218
2145.94817	0.02171
2144.66240	0.02148
2143.37663	0.02167
2142.09087	0.02223
2140.80510	0.02301
2139.51933	0.02395
2138.23356	0.02487
2136.94779	0.02548
2135.66202	0.02569
2134.37625	0.02580
2133.09048	0.02619
2131.80471	0.02697
2130.51895	0.02790
2129.23318	0.02866
2127.94741	0.02908
2126.66164	0.02922
2125.37587	0.02932
2124.09010	0.02953
2122.80433	0.02978
2121.51856	0.02992
2120.23280	0.02987
2118.94703	0.02977
2117.66126	0.02974
2116.37549	0.02971
2115.08972	0.02954
2113.80395	0.02922
2112.51818	0.02881
2111.23241	0.02834
2109.94664	0.02780
2108.66088	0.02731
2107.37511	0.02708
2106.08934	0.02717
2104.80357	0.02750
2103.51780	0.02801
2102.23203	0.02868
2100.94626	0.02959
2099.66049	0.03424
2098.37473	0.03640
2097.08896	0.03599
2095.80319	0.03456
2094.51742	0.03273
2093.23165	0.03091
2091.94588	0.02949
2090.66011	0.02860
2089.37434	0.02813
2088.08857	0.02787
2086.80281	0.02774
2085.51704	0.02778
2084.23127	0.02797
2082.94550	0.02820
2081.65973	0.02845
2080.37396	0.02884
2079.08819	0.02952
2077.80242	0.03048
2076.51666	0.03143
2075.23089	0.03202
2073.94512	0.03202
2072.65935	0.03155
2071.37358	0.03093
2070.08781	0.03044
2068.80204	0.03007
2067.51627	0.02967
2066.23050	0.02910
2064.94474	0.02838
2063.65897	0.02764
2062.37320	0.02700
2061.08743	0.02649
2059.80166	0.02593
2058.51589	0.02513
2057.23012	0.02398
2055.94435	0.02266
2054.65859	0.02162
2053.37282	0.02146
2052.08705	0.02262
2050.80128	0.02484
2049.51551	0.02716
2048.22974	0.02851
2046.94397	0.02859
2045.65820	0.02798
2044.37243	0.02748
2043.08667	0.02736
2041.80090	0.02732
2040.51513	0.02701
2039.22936	0.02650
2037.94359	0.02610
2036.65782	0.02600
2035.37205	0.02616
2034.08628	0.02646
2032.80052	0.02684
2031.51475	0.02726
2030.22898	0.02760
2028.94321	0.02760
2027.65744	0.02686
2026.37167	0.02525
2025.08590	0.02311
2023.80013	0.02119
2022.51436	0.02016
2021.22860	0.02017
2019.94283	0.02075
2018.65706	0.02120
2017.37129	0.02112
2016.08552	0.02068
2014.79975	0.02049
2013.51398	0.02106
2012.22821	0.02246
2010.94245	0.02424
2009.65668	0.02593
2008.37091	0.02724
2007.08514	0.02797
2005.79937	0.02785
2004.51360	0.02676
2003.22783	0.02503
2001.94206	0.02320
2000.65629	0.02176
1999.37053	0.02093
1998.08476	0.02074
1996.79899	0.02104
1995.51322	0.02144
1994.22745	0.02150
1992.94168	0.02099
1991.65591	0.02017
1990.37014	0.01945
1989.08438	0.01907
1987.79861	0.01904
1986.51284	0.01932
1985.22707	0.02002
1983.94130	0.02138
1982.65553	0.02360
1981.36976	0.02658
1980.08399	0.02987
1978.79822	0.03272
1977.51246	0.03433
1976.22669	0.03423
1974.94092	0.03271
1973.65515	0.03065
1972.36938	0.02889
1971.08361	0.02758
1969.79784	0.02636
1968.51207	0.02494
1967.22631	0.02362
1965.94054	0.02307
1964.65477	0.02370
1963.36900	0.02514
1962.08323	0.02657
1960.79746	0.02727
1959.51169	0.02709
1958.22592	0.02618
1956.94015	0.02488
1955.65439	0.02363
1954.36862	0.02296
1953.08285	0.02312
1951.79708	0.02390
1950.51131	0.02487
1949.22554	0.02569
1947.93977	0.02624
1946.65400	0.02654
1945.36823	0.02674
1944.08247	0.02709
1942.79670	0.02771
1941.51093	0.02848
1940.22516	0.02908
1938.93939	0.02931
1937.65362	0.02924
1936.36785	0.02908
1935.08208	0.02897
1933.79632	0.02887
1932.51055	0.02882
1931.22478	0.02885
1929.93901	0.02892
1928.65324	0.02886
1927.36747	0.02863
1926.08170	0.02841
1924.79593	0.02840
1923.51016	0.02862
1922.22440	0.02889
1920.93863	0.02902
1919.65286	0.02902
1918.36709	0.02901
1917.08132	0.02915
1915.79555	0.02946
1914.50978	0.02986
1913.22401	0.03020
1911.93825	0.03038
1910.65248	0.03038
1909.36671	0.03029
1908.08094	0.03023
1906.79517	0.03029
1905.50940	0.03044
1904.22363	0.03059
1902.93786	0.03071
1901.65209	0.03082
1900.36633	0.03095
1899.08056	0.03106
1897.79479	0.03115
1896.50902	0.03129
1895.22325	0.03154
1893.93748	0.03187
1892.65171	0.03210
1891.36594	0.03209
1890.08018	0.03183
1888.79441	0.03147
1887.50864	0.03119
1886.22287	0.03108
1884.93710	0.03109
1883.65133	0.03108
1882.36556	0.03099
1881.07979	0.03083
1879.79402	0.03068
1878.50826	0.03066
1877.22249	0.03084
1875.93672	0.03121
1874.65095	0.03160
1873.36518	0.03187
1872.07941	0.03200
1870.79364	0.03203
1869.50787	0.03203
1868.22211	0.03205
1866.93634	0.03214
1865.65057	0.03231
1864.36480	0.03247
1863.07903	0.03257
1861.79326	0.03258
1860.50749	0.03249
1859.22172	0.03227
1857.93595	0.03197
1856.65019	0.03167
1855.36442	0.03147
1854.07865	0.03140
1852.79288	0.03145
1851.50711	0.03161
1850.22134	0.03185
1848.93557	0.03208
1847.64980	0.03225
1846.36404	0.03234
1845.07827	0.03236
1843.79250	0.03234
1842.50673	0.03227
1841.22096	0.03219
1839.93519	0.03213
1838.64942	0.03212
1837.36365	0.03218
1836.07788	0.03224
1834.79212	0.03225
1833.50635	0.03219
1832.22058	0.03214
1830.93481	0.03224
1829.64904	0.03255
1828.36327	0.03302
1827.07750	0.03356
1825.79173	0.03418
1824.50597	0.03490
1823.22020	0.03569
1821.93443	0.03639
1820.64866	0.03678
1819.36289	0.03667
1818.07712	0.03600
1816.79135	0.03491
1815.50558	0.03368
1814.21981	0.03263
1812.93405	0.03199
1811.64828	0.03184
1810.36251	0.03207
1809.07674	0.03248
1807.79097	0.03285
1806.50520	0.03310
1805.21943	0.03326
1803.93366	0.03340
1802.64790	0.03358
1801.36213	0.03378
1800.07636	0.03398
1798.79059	0.03414
1797.50482	0.03425
1796.21905	0.03433
1794.93328	0.03441
1793.64751	0.03451
1792.36174	0.03463
1791.07598	0.03478
1789.79021	0.03501
1788.50444	0.03528
1787.21867	0.03554
1785.93290	0.03574
1784.64713	0.03587
1783.36136	0.03596
1782.07559	0.03602
1780.78983	0.03605
1779.50406	0.03601
1778.21829	0.03588
1776.93252	0.03570
1775.64675	0.03549
1774.36098	0.03532
1773.07521	0.03523
1771.78944	0.03523
1770.50367	0.03528
1769.21791	0.03535
1767.93214	0.03539
1766.64637	0.03541
1765.36060	0.03545
1764.07483	0.03551
1762.78906	0.03559
1761.50329	0.03568
1760.21752	0.03581
1758.93176	0.03601
1757.64599	0.03628
1756.36022	0.03659
1755.07445	0.03688
1753.78868	0.03713
1752.50291	0.03739
1751.21714	0.03769
1749.93137	0.03802
1748.64560	0.03839
1747.35984	0.03881
1746.07407	0.03931
1744.78830	0.03986
1743.50253	0.04038
1742.21676	0.04084
1740.93099	0.04128
1739.64522	0.04173
1738.35945	0.04219
1737.07369	0.04257
1735.78792	0.04287
1734.50215	0.04317
1733.21638	0.04353
1731.93061	0.04394
1730.64484	0.04433
1729.35907	0.04463
1728.07330	0.04488
1726.78753	0.04513
1725.50177	0.04544
1724.21600	0.04583
1722.93023	0.04627
1721.64446	0.04670
1720.35869	0.04707
1719.07292	0.04740
1717.78715	0.04774
1716.50138	0.04817
1715.21561	0.04872
1713.92985	0.04935
1712.64408	0.05002
1711.35831	0.05070
1710.07254	0.05143
1708.78677	0.05225
1707.50100	0.05317
1706.21523	0.05417
1704.92946	0.05526
1703.64370	0.05647
1702.35793	0.05786
1701.07216	0.05947
1699.78639	0.06128
1698.50062	0.06323
1697.21485	0.06525
1695.92908	0.06732
1694.64331	0.06941
1693.35754	0.07150
1692.07178	0.07353
1690.78601	0.07552
1689.50024	0.07751
1688.21447	0.07955
1686.92870	0.08170
1685.64293	0.08400
1684.35716	0.08648
1683.07139	0.08907
1681.78563	0.09167
1680.49986	0.09430
1679.21409	0.09700
1677.92832	0.09982
1676.64255	0.10272
1675.35678	0.10562
1674.07101	0.10850
1672.78524	0.11136
1671.49947	0.11423
1670.21371	0.11710
1668.92794	0.11996
1667.64217	0.12280
1666.35640	0.12562
1665.07063	0.12843
1663.78486	0.13122
1662.49909	0.13392
1661.21332	0.13646
1659.92756	0.13875
1658.64179	0.14079
1657.35602	0.14256
1656.07025	0.14410
1654.78448	0.14543
1653.49871	0.14660
1652.21294	0.14765
1650.92717	0.14858
1649.64140	0.14939
1648.35564	0.15010
1647.06987	0.15070
1645.78410	0.15115
1644.49833	0.15142
1643.21256	0.15152
1641.92679	0.15148
1640.64102	0.15137
1639.35525	0.15123
1638.06949	0.15107
1636.78372	0.15086
1635.49795	0.15051
1634.21218	0.14994
1632.92641	0.14914
1631.64064	0.14810
1630.35487	0.14682
1629.06910	0.14522
1627.78333	0.14325
1626.49757	0.14094
1625.21180	0.13835
1623.92603	0.13555
1622.64026	0.13261
1621.35449	0.12953
1620.06872	0.12635
1618.78295	0.12309
1617.49718	0.11985
1616.21142	0.11670
1614.92565	0.11368
1613.63988	0.11076
1612.35411	0.10788
1611.06834	0.10504
1609.78257	0.10225
1608.49680	0.09955
1607.21103	0.09698
1605.92526	0.09458
1604.63950	0.09238
1603.35373	0.09038
1602.06796	0.08854
1600.78219	0.08685
1599.49642	0.08528
1598.21065	0.08382
1596.92488	0.08246
1595.63911	0.08122
1594.35335	0.08015
1593.06758	0.07927
1591.78181	0.07856
1590.49604	0.07796
1589.21027	0.07744
1587.92450	0.07699
1586.63873	0.07661
1585.35296	0.07629
1584.06719	0.07609
1582.78143	0.07606
1581.49566	0.07624
1580.20989	0.07658
1578.92412	0.07701
1577.63835	0.07752
1576.35258	0.07814
1575.06681	0.07892
1573.78104	0.07984
1572.49528	0.08089
1571.20951	0.08204
1569.92374	0.08329
1568.63797	0.08463
1567.35220	0.08604
1566.06643	0.08748
1564.78066	0.08892
1563.49489	0.09037
1562.20912	0.09185
1560.92336	0.09340
1559.63759	0.09502
1558.35182	0.09671
1557.06605	0.09842
1555.78028	0.10009
1554.49451	0.10169
1553.20874	0.10319
1551.92297	0.10461
1550.63721	0.10596
1549.35144	0.10719
1548.06567	0.10824
1546.77990	0.10910
1545.49413	0.10979
1544.20836	0.11036
1542.92259	0.11082
1541.63682	0.11117
1540.35105	0.11140
1539.06529	0.11153
1537.77952	0.11159
1536.49375	0.11158
1535.20798	0.11151
1533.92221	0.11137
1532.63644	0.11116
1531.35067	0.11088
1530.06490	0.11052
1528.77914	0.11008
1527.49337	0.10958
1526.20760	0.10900
1524.92183	0.10835
1523.63606	0.10763
1522.35029	0.10689
1521.06452	0.10620
1519.77875	0.10559
1518.49298	0.10497
1517.20722	0.10423
1515.92145	0.10327
1514.63568	0.10205
1513.34991	0.10066
1512.06414	0.09916
1510.77837	0.09758
1509.49260	0.09590
1508.20683	0.09414
1506.92107	0.09233
1505.63530	0.09054
1504.34953	0.08881
1503.06376	0.08712
1501.77799	0.08542
1500.49222	0.08371
1499.20645	0.08199
1497.92068	0.08027
1496.63491	0.07859
1495.34915	0.07698
1494.06338	0.07549
1492.77761	0.07408
1491.49184	0.07274
1490.20607	0.07146
1488.92030	0.07030
1487.63453	0.06929
1486.34876	0.06844
1485.06299	0.06778
1483.77723	0.06728
1482.49146	0.06696
1481.20569	0.06680
1479.91992	0.06682
1478.63415	0.06702
1477.34838	0.06739
1476.06261	0.06795
1474.77684	0.06870
1473.49108	0.06962
1472.20531	0.07063
1470.91954	0.07167
1469.63377	0.07269
1468.34800	0.07371
1467.06223	0.07471
1465.77646	0.07569
1464.49069	0.07664
1463.20492	0.07756
1461.91916	0.07850
1460.63339	0.07948
1459.34762	0.08052
1458.06185	0.08164
1456.77608	0.08278
1455.49031	0.08385
1454.20454	0.08475
1452.91877	0.08539
1451.63301	0.08580
1450.34724	0.08602
1449.06147	0.08611
1447.77570	0.08611
1446.48993	0.08601
1445.20416	0.08578
1443.91839	0.08541
1442.63262	0.08492
1441.34685	0.08435
1440.06109	0.08374
1438.77532	0.08306
1437.48955	0.08232
1436.20378	0.08151
1434.91801	0.08063
1433.63224	0.07973
1432.34647	0.07886
1431.06070	0.07807
1429.77494	0.07744
1428.48917	0.07694
1427.20340	0.07651
1425.91763	0.07608
1424.63186	0.07566
1423.34609	0.07528
1422.06032	0.07497
1420.77455	0.07471
1419.48878	0.07445
1418.20302	0.07419
1416.91725	0.07395
1415.63148	0.07376
1414.34571	0.07362
1413.05994	0.07350
1411.77417	0.07335
1410.48840	0.07314
1409.20263	0.07288
1407.91687	0.07259
1406.63110	0.07230
1405.34533	0.07202
1404.05956	0.07175
1402.77379	0.07146
1401.48802	0.07116
1400.20225	0.07083
1398.91648	0.07050
1397.63071	0.07022
1396.34495	0.07000
1395.05918	0.06983
1393.77341	0.06969
1392.48764	0.06956
1391.20187	0.06947
1389.91610	0.06944
1388.63033	0.06943
1387.34456	0.06938
1386.05880	0.06930
1384.77303	0.06922
1383.48726	0.06917
1382.20149	0.06914
1380.91572	0.06906
1379.62995	0.06888
1378.34418	0.06862
1377.05841	0.06831
1375.77264	0.06797
1374.48688	0.06763
1373.20111	0.06730
1371.91534	0.06699
1370.62957	0.06667
1369.34380	0.06634
1368.05803	0.06599
1366.77226	0.06563
1365.48649	0.06529
1364.20073	0.06499
1362.91496	0.06473
1361.62919	0.06452
1360.34342	0.06436
1359.05765	0.06428
1357.77188	0.06428
1356.48611	0.06436
1355.20034	0.06449
1353.91457	0.06465
1352.62881	0.06484
1351.34304	0.06508
1350.05727	0.06538
1348.77150	0.06575
1347.48573	0.06617
1346.19996	0.06660
1344.91419	0.06701
1343.62842	0.06741
1342.34266	0.06782
1341.05689	0.06824
1339.77112	0.06864
1338.48535	0.06897
1337.19958	0.06921
1335.91381	0.06935
1334.62804	0.06942
1333.34227	0.06945
1332.05650	0.06941
1330.77074	0.06929
1329.48497	0.06912
1328.19920	0.06894
1326.91343	0.06880
1325.62766	0.06871
1324.34189	0.06866
1323.05612	0.06864
1321.77035	0.06866
1320.48459	0.06873
1319.19882	0.06887
1317.91305	0.06906
1316.62728	0.06927
1315.34151	0.06946
1314.05574	0.06961
1312.76997	0.06971
1311.48420	0.06977
1310.19843	0.06984
1308.91267	0.06995
1307.62690	0.07008
1306.34113	0.07021
1305.05536	0.07032
1303.76959	0.07041
1302.48382	0.07051
1301.19805	0.07063
1299.91228	0.07075
1298.62652	0.07089
1297.34075	0.07104
1296.05498	0.07123
1294.76921	0.07148
1293.48344	0.07177
1292.19767	0.07210
1290.91190	0.07245
1289.62613	0.07284
1288.34036	0.07325
1287.05460	0.07365
1285.76883	0.07401
1284.48306	0.07430
1283.19729	0.07457
1281.91152	0.07485
1280.62575	0.07515
1279.33998	0.07546
1278.05421	0.07576
1276.76845	0.07604
1275.48268	0.07631
1274.19691	0.07660
1272.91114	0.07693
1271.62537	0.07730
1270.33960	0.07770
1269.05383	0.07817
1267.76806	0.07873
1266.48229	0.07938
1265.19653	0.08010
1263.91076	0.08081
1262.62499	0.08143
1261.33922	0.08191
1260.05345	0.08227
1258.76768	0.08258
1257.48191	0.08290
1256.19614	0.08329
1254.91037	0.08374
1253.62461	0.08427
1252.33884	0.08486
1251.05307	0.08549
1249.76730	0.08613
1248.48153	0.08678
1247.19576	0.08744
1245.90999	0.08812
1244.62422	0.08880
1243.33846	0.08949
1242.05269	0.09018
1240.76692	0.09084
1239.48115	0.09141
1238.19538	0.09189
1236.90961	0.09229
1235.62384	0.09263
1234.33807	0.09292
1233.05230	0.09312
1231.76654	0.09323
1230.48077	0.09327
1229.19500	0.09324
1227.90923	0.09313
1226.62346	0.09290
1225.33769	0.09256
1224.05192	0.09213
1222.76615	0.09167
1221.48039	0.09122
1220.19462	0.09083
1218.90885	0.09051
1217.62308	0.09027
1216.33731	0.09008
1215.05154	0.08997
1213.76577	0.08994
1212.48000	0.08999
1211.19423	0.09013
1209.90847	0.09033
1208.62270	0.09059
1207.33693	0.09088
1206.05116	0.09118
1204.76539	0.09152
1203.47962	0.09189
1202.19385	0.09224
1200.90808	0.09226
1199.62232	0.09179
1198.33655	0.09178
1197.05078	0.09175
1195.76501	0.09177
1194.47924	0.09189
1193.19347	0.09209
1191.90770	0.09232
1190.62193	0.09254
1189.33616	0.09274
1188.05040	0.09295
1186.76463	0.09321
1185.47886	0.09359
1184.19309	0.09411
1182.90732	0.09474
1181.62155	0.09545
1180.33578	0.09619
1179.05001	0.09696
1177.76425	0.09777
1176.47848	0.09859
1175.19271	0.09939
1173.90694	0.10019
1172.62117	0.10103
1171.33540	0.10192
1170.04963	0.10285
1168.76386	0.10378
1167.47809	0.10472
1166.19233	0.10563
1164.90656	0.10651
1163.62079	0.10735
1162.33502	0.10816
1161.04925	0.10898
1159.76348	0.10985
1158.47771	0.11077
1157.19194	0.11170
1155.90618	0.11253
1154.62041	0.11321
1153.33464	0.11378
1152.04887	0.11435
1150.76310	0.11501
1149.47733	0.11577
1148.19156	0.11658
1146.90579	0.11731
1145.62002	0.11793
1144.33426	0.11847
1143.04849	0.11899
1141.76272	0.11954
1140.47695	0.12010
1139.19118	0.12069
1137.90541	0.12131
1136.61964	0.12196
1135.33387	0.12260
1134.04811	0.12318
1132.76234	0.12373
1131.47657	0.12429
1130.19080	0.12491
1128.90503	0.12559
1127.61926	0.12627
1126.33349	0.12689
1125.04772	0.12744
1123.76195	0.12791
1122.47619	0.12833
1121.19042	0.12870
1119.90465	0.12903
1118.61888	0.12930
1117.33311	0.12951
1116.04734	0.12971
1114.76157	0.12993
1113.47580	0.13014
1112.19004	0.13034
1110.90427	0.13054
1109.61850	0.13081
1108.33273	0.13115
1107.04696	0.13156
1105.76119	0.13200
1104.47542	0.13244
1103.18965	0.13287
1101.90388	0.13327
1100.61812	0.13363
1099.33235	0.13402
1098.04658	0.13450
1096.76081	0.13507
1095.47504	0.13566
1094.18927	0.13615
1092.90350	0.13654
1091.61773	0.13687
1090.33197	0.13722
1089.04620	0.13761
1087.76043	0.13799
1086.47466	0.13831
1085.18889	0.13855
1083.90312	0.13873
1082.61735	0.13888
1081.33158	0.13900
1080.04581	0.13904
1078.76005	0.13893
1077.47428	0.13864
1076.18851	0.13823
1074.90274	0.13780
1073.61697	0.13740
1072.33120	0.13703
1071.04543	0.13665
1069.75966	0.13623
1068.47390	0.13575
1067.18813	0.13527
1065.90236	0.13478
1064.61659	0.13428
1063.33082	0.13373
1062.04505	0.13313
1060.75928	0.13249
1059.47351	0.13182
1058.18774	0.13109
1056.90198	0.13035
1055.61621	0.12967
1054.33044	0.12903
1053.04467	0.12837
1051.75890	0.12761
1050.47313	0.12674
1049.18736	0.12586
1047.90159	0.12504
1046.61583	0.12430
1045.33006	0.12364
1044.04429	0.12301
1042.75852	0.12240
1041.47275	0.12180
1040.18698	0.12124
1038.90121	0.12076
1037.61544	0.12038
1036.32967	0.12008
1035.04391	0.11985
1033.75814	0.11968
1032.47237	0.11956
1031.18660	0.11945
1029.90083	0.11929
1028.61506	0.11910
1027.32929	0.11891
1026.04352	0.11877
1024.75775	0.11868
1023.47199	0.11864
1022.18622	0.11862
1020.90045	0.11858
1019.61468	0.11848
1018.32891	0.11830
1017.04314	0.11797
1015.75737	0.11743
1014.47160	0.11664
1013.18584	0.11565
1011.90007	0.11454
1010.61430	0.11335
1009.32853	0.11211
1008.04276	0.11085
1006.75699	0.10960
1005.47122	0.10842
1004.18545	0.10734
1002.89968	0.10634
1001.61392	0.10542
1000.32815	0.10454
999.04238	0.10372
997.75661	0.10295
996.47084	0.10228
995.18507	0.10173
993.89930	0.10135
992.61353	0.10111
991.32777	0.10096
990.04200	0.10084
988.75623	0.10071
987.47046	0.10059
986.18469	0.10052
984.89892	0.10051
983.61315	0.10055
982.32738	0.10064
981.04161	0.10078
979.75585	0.10096
978.47008	0.10118
977.18431	0.10139
975.89854	0.10160
974.61277	0.10178
973.32700	0.10198
972.04123	0.10222
970.75546	0.10253
969.46970	0.10289
968.18393	0.10327
966.89816	0.10361
965.61239	0.10384
964.32662	0.10396
963.04085	0.10403
961.75508	0.10416
960.46931	0.10438
959.18354	0.10463
957.89778	0.10476
956.61201	0.10470
955.32624	0.10448
954.04047	0.10423
952.75470	0.10403
951.46893	0.10388
950.18316	0.10368
948.89739	0.10336
947.61163	0.10292
946.32586	0.10243
945.04009	0.10189
943.75432	0.10129
942.46855	0.10065
941.18278	0.10005
939.89701	0.09949
938.61124	0.09892
937.32547	0.09824
936.03971	0.09741
934.75394	0.09649
933.46817	0.09557
932.18240	0.09465
930.89663	0.09368
929.61086	0.09261
928.32509	0.09147
927.03932	0.09034
925.75356	0.08928
924.46779	0.08828
923.18202	0.08729
921.89625	0.08628
920.61048	0.08522
919.32471	0.08415
918.03894	0.08314
916.75317	0.08225
915.46740	0.08146
914.18164	0.08073
912.89587	0.08003
911.61010	0.07943
910.32433	0.07896
909.03856	0.07861
907.75279	0.07833
906.46702	0.07808
905.18125	0.07787
903.89549	0.07769
902.60972	0.07753
901.32395	0.07734
900.03818	0.07714
898.75241	0.07698
897.46664	0.07688
896.18087	0.07681
894.89510	0.07678
893.60933	0.07681
892.32357	0.07695
891.03780	0.07717
889.75203	0.07737
888.46626	0.07743
887.18049	0.07729
885.89472	0.07701
884.60895	0.07674
883.32318	0.07665
882.03742	0.07677
880.75165	0.07702
879.46588	0.07724
878.18011	0.07726
876.89434	0.07703
875.60857	0.07658
874.32280	0.07607
873.03703	0.07567
871.75126	0.07537
870.46550	0.07503
869.17973	0.07453
867.89396	0.07388
866.60819	0.07324
865.32242	0.07271
864.03665	0.07231
862.75088	0.07193
861.46511	0.07149
860.17935	0.07101
858.89358	0.07058
857.60781	0.07022
856.32204	0.06987
855.03627	0.06946
853.75050	0.06894
852.46473	0.06834
851.17896	0.06771
849.89319	0.06708
848.60743	0.06646
847.32166	0.06583
846.03589	0.06520
844.75012	0.06461
843.46435	0.06406
842.17858	0.06351
840.89281	0.06296
839.60704	0.06245
838.32128	0.06204
837.03551	0.06170
835.74974	0.06138
834.46397	0.06100
833.17820	0.06056
831.89243	0.06009
830.60666	0.05962
829.32089	0.05919
828.03512	0.05880
826.74936	0.05845
825.46359	0.05816
824.17782	0.05794
822.89205	0.05775
821.60628	0.05755
820.32051	0.05735
819.03474	0.05718
817.74897	0.05704
816.46321	0.05690
815.17744	0.05674
813.89167	0.05659
812.60590	0.05650
811.32013	0.05643
810.03436	0.05631
808.74859	0.05611
807.46282	0.05587
806.17705	0.05571
804.89129	0.05566
803.60552	0.05568
802.31975	0.05567
801.03398	0.05559
799.74821	0.05545
798.46244	0.05525
797.17667	0.05502
795.89090	0.05478
794.60513	0.05462
793.31937	0.05457
792.03360	0.05458
790.74783	0.05451
789.46206	0.05431
788.17629	0.05404
786.89052	0.05379
785.60475	0.05362
784.31898	0.05349
783.03322	0.05336
781.74745	0.05322
780.46168	0.05310
779.17591	0.05301
777.89014	0.05296
776.60437	0.05289
775.31860	0.05278
774.03283	0.05265
772.74706	0.05253
771.46130	0.05248
770.17553	0.05249
768.88976	0.05254
767.60399	0.05260
766.31822	0.05264
765.03245	0.05267
763.74668	0.05267
762.46091	0.05264
761.17515	0.05261
759.88938	0.05259
758.60361	0.05260
757.31784	0.05257
756.03207	0.05248
754.74630	0.05234
753.46053	0.05225
752.17476	0.05228
750.88899	0.05243
749.60323	0.05264
748.31746	0.05283
747.03169	0.05297
745.74592	0.05307
744.46015	0.05316
743.17438	0.05324
741.88861	0.05329
740.60284	0.05332
739.31708	0.05334
738.03131	0.05338
736.74554	0.05343
735.45977	0.05347
734.17400	0.05347
732.88823	0.05346
731.60246	0.05353
730.31669	0.05369
729.03092	0.05389
727.74516	0.05402
726.45939	0.05405
725.17362	0.05406
723.88785	0.05410
722.60208	0.05430
721.31631	0.05455
720.03054	0.05474
718.74477	0.05485
717.45901	0.05487
716.17324	0.05481
714.88747	0.05467
713.60170	0.05447
712.31593	0.05427
711.03016	0.05417
709.74439	0.05419
708.45862	0.05433
707.17285	0.05451
705.88709	0.05466
704.60132	0.05474
703.31555	0.05480
702.02978	0.05489
700.74401	0.05503
699.45824	0.05517
698.17247	0.05524
696.88670	0.05519
695.60094	0.05510
694.31517	0.05502
693.02940	0.05499
691.74363	0.05497
690.45786	0.05495
689.17209	0.05491
687.88632	0.05490
686.60055	0.05490
685.31478	0.05488
684.02902	0.05481
682.74325	0.05474
681.45748	0.05472
680.17171	0.05480
678.88594	0.05492
677.60017	0.05503
676.31440	0.05508
675.02863	0.05513
673.74287	0.05518
672.45710	0.05523
671.17133	0.05528
669.88556	0.05534
668.59979	0.05543
667.31402	0.05558
666.02825	0.05573
664.74248	0.05585
663.45671	0.05594
662.17095	0.05600
660.88518	0.05604
659.59941	0.05606
658.31364	0.05606
657.02787	0.05604
655.74210	0.05605
654.45633	0.05605
653.17056	0.05605
651.88480	0.05602
650.59903	0.05599
649.31326	0.05600
648.02749	0.05609
646.74172	0.05617
645.45595	0.05617
644.17018	0.05606
642.88441	0.05585
641.59864	0.05561
640.31288	0.05540
639.02711	0.05528
637.74134	0.05524
636.45557	0.05527
635.16980	0.05531
633.88403	0.05525
632.59826	0.05500
631.31249	0.05515
630.02673	0.05808
628.74096	0.06267
627.45519	0.05966
626.16942	0.06479
624.88365	0.07544
623.59788	0.08532
622.31211	0.09160
621.02634	0.09281
619.74057	0.08890
618.45481	0.08160
617.16904	0.07331
615.88327	0.06590
614.59750	0.06046
613.31173	0.05761
612.02596	0.05763
610.74019	0.06023
609.45442	0.06444
608.16866	0.06903
606.88289	0.07297
605.59712	0.07563
604.31135	0.07669
603.02558	0.07616
601.73981	0.07445
600.45404	0.07222
599.16827	0.07014
597.88250	0.06858
596.59674	0.06755
595.31097	0.06687
594.02520	0.06642
592.73943	0.06618
591.45366	0.06615
590.16789	0.06632
588.88212	0.06667
587.59635	0.06717
586.31059	0.06780
585.02482	0.06849
583.73905	0.06918
582.45328	0.06981
581.16751	0.07030
579.88174	0.07064
578.59597	0.07087
577.31020	0.07104
576.02443	0.07122
574.73867	0.07148
573.45290	0.07193
572.16713	0.07270
570.88136	0.07383
569.59559	0.07516
568.30982	0.07638
567.02405	0.07712
565.73828	0.07726
564.45251	0.07695
563.16675	0.07652
561.88098	0.07619
560.59521	0.07602
559.30944	0.07598
558.02367	0.07603
556.73790	0.07615
555.45213	0.07631
554.16636	0.07651
552.88060	0.07671
551.59483	0.07693
550.30906	0.07723
549.02329	0.07762
547.73752	0.07810
546.45175	0.07866
545.16598	0.07931
543.88021	0.08002
542.59444	0.08070
541.30868	0.08137
540.02291	0.08207
538.73714	0.08282
537.45137	0.08355
536.16560	0.08416
534.87983	0.08468
533.59406	0.08515
532.30829	0.08559
531.02253	0.08598
529.73676	0.08634
528.45099	0.08671
527.16522	0.08708
525.87945	0.08743
524.59368	0.08773
523.30791	0.08798
522.02214	0.08818
520.73637	0.08832
519.45061	0.08835
518.16484	0.08818
516.87907	0.08780
515.59330	0.08728
514.30753	0.08678
513.02176	0.08646
511.73599	0.08630
510.45022	0.08619
509.16446	0.08596
507.87869	0.08551
506.59292	0.08485
505.30715	0.08404
504.02138	0.08316
502.73561	0.08224
501.44984	0.08132
500.16407	0.08044
498.87830	0.07957
497.59254	0.07865
496.30677	0.07767
495.02100	0.07668
493.73523	0.07569
492.44946	0.07474
491.16369	0.07382
489.87792	0.07294
488.59215	0.07203
487.30639	0.07104
486.02062	0.06998
484.73485	0.06892
483.44908	0.06795
482.16331	0.06714
480.87754	0.06650
479.59177	0.06597
478.30600	0.06550
477.02023	0.06501
475.73447	0.06446
474.44870	0.06385
473.16293	0.06324
471.87716	0.06268
470.59139	0.06224
469.30562	0.06194
468.01985	0.06171
466.73408	0.06147
465.44832	0.06118
464.16255	0.06084
462.87678	0.06052
461.59101	0.06021
460.30524	0.05992
459.01947	0.05964
457.73370	0.05936
456.44793	0.05905
455.16216	0.05869
453.87640	0.05832
452.59063	0.05796
451.30486	0.05760
450.01909	0.05724
448.73332	0.05691
447.44755	0.05666
446.16178	0.05650
444.87601	0.05637
443.59025	0.05620
442.30448	0.05596
441.01871	0.05571
439.73294	0.05556
438.44717	0.05552
437.16140	0.05554
435.87563	0.05557
434.58986	0.05556
433.30409	0.05549
432.01833	0.05533
430.73256	0.05510
429.44679	0.05485
428.16102	0.05464
426.87525	0.05449
425.58948	0.05434
424.30371	0.05415
423.01794	0.05390
421.73218	0.05362
420.44641	0.05336
419.16064	0.05315
417.87487	0.05298
416.58910	0.05281
415.30333	0.05264
414.01756	0.05243
412.73179	0.05219
411.44602	0.05188
410.16026	0.05153
408.87449	0.05117
407.58872	0.05085
406.30295	0.05058
405.01718	0.05036
403.73141	0.05015
402.44564	0.04991
401.15987	0.04961
399.87411	0.04926
