3997.45528	0.05324
3996.16951	0.05240
3994.88374	0.05140
3993.59798	0.05060
3992.31221	0.05044
3991.02644	0.05093
3989.74067	0.05169
3988.45490	0.05228
3987.16913	0.05246
3985.88336	0.05222
3984.59759	0.05171
3983.31183	0.05117
3982.02606	0.05076
3980.74029	0.05049
3979.45452	0.05025
3978.16875	0.05000
3976.88298	0.04987
3975.59721	0.05000
3974.31144	0.05041
3973.02567	0.05089
3971.73991	0.05121
3970.45414	0.05132
3969.16837	0.05133
3967.88260	0.05131
3966.59683	0.05123
3965.31106	0.05105
3964.02529	0.05073
3962.73952	0.05025
3961.45376	0.04961
3960.16799	0.04913
3958.88222	0.04922
3957.59645	0.04991
3956.31068	0.05066
3955.02491	0.05083
3953.73914	0.05031
3952.45337	0.04963
3951.16760	0.04935
3949.88184	0.04957
3948.59607	0.04990
3947.31030	0.05000
3946.02453	0.04986
3944.73876	0.04979
3943.45299	0.04993
3942.16722	0.05010
3940.88145	0.05010
3939.59569	0.05001
3938.30992	0.05004
3937.02415	0.05023
3935.73838	0.05044
3934.45261	0.05044
3933.16684	0.05014
3931.88107	0.04958
3930.59530	0.04902
3929.30953	0.04869
3928.02377	0.04860
3926.73800	0.04867
3925.45223	0.04884
3924.16646	0.04905
3922.88069	0.04924
3921.59492	0.04937
3920.30915	0.04942
3919.02338	0.04931
3917.73762	0.04888
3916.45185	0.04811
3915.16608	0.04737
3913.88031	0.04715
3912.59454	0.04750
3911.30877	0.04810
3910.02300	0.04853
3908.73723	0.04849
3907.45146	0.04796
3906.16570	0.04727
3904.87993	0.04694
3903.59416	0.04727
3902.30839	0.04804
3901.02262	0.04877
3899.73685	0.04909
3898.45108	0.04890
3897.16531	0.04836
3895.87955	0.04771
3894.59378	0.04722
3893.30801	0.04706
3892.02224	0.04721
3890.73647	0.04740
3889.45070	0.04756
3888.16493	0.04784
3886.87916	0.04822
3885.59339	0.04843
3884.30763	0.04835
3883.02186	0.04826
3881.73609	0.04835
3880.45032	0.04850
3879.16455	0.04850
3877.87878	0.04836
3876.59301	0.04819
3875.30724	0.04795
3874.02148	0.04759
3872.73571	0.04724
3871.44994	0.04714
3870.16417	0.04731
3868.87840	0.04773
3867.59263	0.04843
3866.30686	0.04925
3865.02109	0.04972
3863.73532	0.04960
3862.44956	0.04920
3861.16379	0.04880
3859.87802	0.04832
3858.59225	0.04757
3857.30648	0.04674
3856.02071	0.04630
3854.73494	0.04630
3853.44917	0.04631
3852.16341	0.04607
3850.87764	0.04582
3849.59187	0.04571
3848.30610	0.04559
3847.02033	0.04538
3845.73456	0.04531
3844.44879	0.04559
3843.16302	0.04614
3841.87725	0.04666
3840.59149	0.04695
3839.30572	0.04695
3838.01995	0.04656
3836.73418	0.04583
3835.44841	0.04515
3834.16264	0.04500
3832.87687	0.04535
3831.59110	0.04569
3830.30534	0.04553
3829.01957	0.04489
3827.73380	0.04432
3826.44803	0.04432
3825.16226	0.04506
3823.87649	0.04630
3822.59072	0.04743
3821.30495	0.04783
3820.01918	0.04740
3818.73342	0.04667
3817.44765	0.04611
3816.16188	0.04569
3814.87611	0.04530
3813.59034	0.04515
3812.30457	0.04535
3811.01880	0.04564
3809.73303	0.04577
3808.44726	0.04569
3807.16150	0.04531
3805.87573	0.04467
3804.58996	0.04413
3803.30419	0.04397
3802.01842	0.04401
3800.73265	0.04398
3799.44688	0.04406
3798.16111	0.04445
3796.87535	0.04486
3795.58958	0.04492
3794.30381	0.04472
3793.01804	0.04462
3791.73227	0.04470
3790.44650	0.04465
3789.16073	0.04423
3787.87496	0.04361
3786.58919	0.04327
3785.30343	0.04351
3784.01766	0.04417
3782.73189	0.04482
3781.44612	0.04509
3780.16035	0.04485
3778.87458	0.04422
3777.58881	0.04350
3776.30304	0.04303
3775.01728	0.04294
3773.73151	0.04314
3772.44574	0.04345
3771.15997	0.04374
3769.87420	0.04395
3768.58843	0.04409
3767.30266	0.04423
3766.01689	0.04438
3764.73112	0.04446
3763.44536	0.04440
3762.15959	0.04421
3760.87382	0.04384
3759.58805	0.04328
3758.30228	0.04261
3757.01651	0.04190
3755.73074	0.04135
3754.44497	0.04118
3753.15921	0.04143
3751.87344	0.04190
3750.58767	0.04244
3749.30190	0.04297
3748.01613	0.04343
3746.73036	0.04389
3745.44459	0.04419
3744.15882	0.04389
3742.87305	0.04313
3741.58729	0.04268
3740.30152	0.04287
3739.01575	0.04334
3737.72998	0.04358
3736.44421	0.04327
3735.15844	0.04252
3733.87267	0.04185
3732.58690	0.04170
3731.30114	0.04206
3730.01537	0.04276
3728.72960	0.04360
3727.44383	0.04428
3726.15806	0.04454
3724.87229	0.04447
3723.58652	0.04428
3722.30075	0.04402
3721.01498	0.04361
3719.72922	0.04312
3718.44345	0.04269
3717.15768	0.04230
3715.87191	0.04182
3714.58614	0.04124
3713.30037	0.04064
3712.01460	0.04013
3710.72883	0.03981
3709.44307	0.03977
3708.15730	0.04001
3706.87153	0.04039
3705.58576	0.04081
3704.29999	0.04127
3703.01422	0.04168
3701.72845	0.04180
3700.44268	0.04152
3699.15691	0.04102
3697.87115	0.04066
3696.58538	0.04065
3695.29961	0.04092
3694.01384	0.04115
3692.72807	0.04095
3691.44230	0.04040
3690.15653	0.04003
3688.87076	0.04009
3687.58500	0.04023
3686.29923	0.04010
3685.01346	0.03982
3683.72769	0.03980
3682.44192	0.04030
3681.15615	0.04102
3679.87038	0.04135
3678.58461	0.04106
3677.29884	0.04048
3676.01308	0.03998
3674.72731	0.03980
3673.44154	0.04025
3672.15577	0.04144
3670.87000	0.04277
3669.58423	0.04344
3668.29846	0.04323
3667.01269	0.04259
3665.72693	0.04196
3664.44116	0.04160
3663.15539	0.04160
3661.86962	0.04183
3660.58385	0.04206
3659.29808	0.04211
3658.01231	0.04195
3656.72654	0.04159
3655.44077	0.04119
3654.15501	0.04119
3652.86924	0.04191
3651.58347	0.04303
3650.29770	0.04373
3649.01193	0.04363
3647.72616	0.04313
3646.44039	0.04287
3645.15462	0.04303
3643.86886	0.04335
3642.58309	0.04356
3641.29732	0.04366
3640.01155	0.04365
3638.72578	0.04357
3637.44001	0.04351
3636.15424	0.04367
3634.86847	0.04400
3633.58270	0.04417
3632.29694	0.04402
3631.01117	0.04378
3629.72540	0.04378
3628.43963	0.04415
3627.15386	0.04484
3625.86809	0.04566
3624.58232	0.04629
3623.29655	0.04658
3622.01079	0.04670
3620.72502	0.04683
3619.43925	0.04685
3618.15348	0.04659
3616.86771	0.04620
3615.58194	0.04603
3614.29617	0.04625
3613.01040	0.04675
3611.72463	0.04743
3610.43887	0.04824
3609.15310	0.04917
3607.86733	0.05012
3606.58156	0.05109
3605.29579	0.05206
3604.01002	0.05284
3602.72425	0.05311
3601.43848	0.05278
3600.15272	0.05215
3598.86695	0.05175
3597.58118	0.05193
3596.29541	0.05264
3595.00964	0.05347
3593.72387	0.05402
3592.43810	0.05422
3591.15233	0.05435
3589.86656	0.05467
3588.58080	0.05503
3587.29503	0.05500
3586.00926	0.05446
3584.72349	0.05370
3583.43772	0.05325
3582.15195	0.05349
3580.86618	0.05451
3579.58041	0.05602
3578.29464	0.05755
3577.00888	0.05870
3575.72311	0.05933
3574.43734	0.05945
3573.15157	0.05926
3571.86580	0.05902
3570.58003	0.05895
3569.29426	0.05901
3568.00849	0.05908
3566.72273	0.05921
3565.43696	0.05962
3564.15119	0.06031
3562.86542	0.06088
3561.57965	0.06103
3560.29388	0.06092
3559.00811	0.06097
3557.72234	0.06142
3556.43657	0.06206
3555.15081	0.06246
3553.86504	0.06241
3552.57927	0.06213
3551.29350	0.06211
3550.00773	0.06263
3548.72196	0.06352
3547.43619	0.06439
3546.15042	0.06496
3544.86466	0.06521
3543.57889	0.06534
3542.29312	0.06554
3541.00735	0.06594
3539.72158	0.06651
3538.43581	0.06713
3537.15004	0.06770
3535.86427	0.06821
3534.57850	0.06868
3533.29274	0.06909
3532.00697	0.06943
3530.72120	0.06979
3529.43543	0.07030
3528.14966	0.07094
3526.86389	0.07149
3525.57812	0.07174
3524.29235	0.07168
3523.00659	0.07152
3521.72082	0.07153
3520.43505	0.07194
3519.14928	0.07275
3517.86351	0.07377
3516.57774	0.07472
3515.29197	0.07542
3514.00620	0.07577
3512.72043	0.07565
3511.43467	0.07505
3510.14890	0.07423
3508.86313	0.07370
3507.57736	0.07386
3506.29159	0.07468
3505.00582	0.07571
3503.72005	0.07645
3502.43428	0.07669
3501.14852	0.07657
3499.86275	0.07642
3498.57698	0.07646
3497.29121	0.07676
3496.00544	0.07727
3494.71967	0.07790
3493.43390	0.07852
3492.14813	0.07904
3490.86236	0.07944
3489.57660	0.07977
3488.29083	0.08010
3487.00506	0.08043
3485.71929	0.08074
3484.43352	0.08107
3483.14775	0.08145
3481.86198	0.08179
3480.57621	0.08189
3479.29045	0.08167
3478.00468	0.08135
3476.71891	0.08131
3475.43314	0.08172
3474.14737	0.08237
3472.86160	0.08287
3471.57583	0.08307
3470.29006	0.08314
3469.00429	0.08331
3467.71853	0.08366
3466.43276	0.08404
3465.14699	0.08430
3463.86122	0.08450
3462.57545	0.08481
3461.28968	0.08534
3460.00391	0.08592
3458.71814	0.08633
3457.43238	0.08647
3456.14661	0.08642
3454.86084	0.08625
3453.57507	0.08597
3452.28930	0.08568
3451.00353	0.08560
3449.71776	0.08597
3448.43199	0.08677
3447.14622	0.08776
3445.86046	0.08865
3444.57469	0.08926
3443.28892	0.08958
3442.00315	0.08972
3440.71738	0.08979
3439.43161	0.08982
3438.14584	0.08980
3436.86007	0.08981
3435.57431	0.08993
3434.28854	0.09014
3433.00277	0.09037
3431.71700	0.09072
3430.43123	0.09138
3429.14546	0.09230
3427.85969	0.09313
3426.57392	0.09345
3425.28815	0.09320
3424.00239	0.09273
3422.71662	0.09255
3421.43085	0.09290
3420.14508	0.09359
3418.85931	0.09426
3417.57354	0.09471
3416.28777	0.09498
3415.00200	0.09522
3413.71624	0.09550
3412.43047	0.09581
3411.14470	0.09615
3409.85893	0.09651
3408.57316	0.09690
3407.28739	0.09727
3406.00162	0.09764
3404.71585	0.09812
3403.43008	0.09874
3402.14432	0.09930
3400.85855	0.09947
3399.57278	0.09917
3398.28701	0.09858
3397.00124	0.09812
3395.71547	0.09809
3394.42970	0.09855
3393.14393	0.09931
3391.85817	0.10003
3390.57240	0.10043
3389.28663	0.10036
3388.00086	0.09999
3386.71509	0.09968
3385.42932	0.09980
3384.14355	0.10043
3382.85778	0.10137
3381.57201	0.10234
3380.28625	0.10318
3379.00048	0.10387
3377.71471	0.10438
3376.42894	0.10469
3375.14317	0.10486
3373.85740	0.10510
3372.57163	0.10557
3371.28586	0.10617
3370.00010	0.10665
3368.71433	0.10697
3367.42856	0.10738
3366.14279	0.10809
3364.85702	0.10900
3363.57125	0.10981
3362.28548	0.11030
3360.99971	0.11055
3359.71394	0.11081
3358.42818	0.11120
3357.14241	0.11168
3355.85664	0.11215
3354.57087	0.11264
3353.28510	0.11321
3351.99933	0.11383
3350.71356	0.11441
3349.42779	0.11492
3348.14202	0.11542
3346.85626	0.11598
3345.57049	0.11663
3344.28472	0.11731
3342.99895	0.11796
3341.71318	0.11860
3340.42741	0.11928
3339.14164	0.11999
3337.85587	0.12057
3336.57011	0.12091
3335.28434	0.12107
3333.99857	0.12126
3332.71280	0.12157
3331.42703	0.12191
3330.14126	0.12218
3328.85549	0.12238
3327.56972	0.12266
3326.28395	0.12303
3324.99819	0.12338
3323.71242	0.12359
3322.42665	0.12370
3321.14088	0.12381
3319.85511	0.12405
3318.56934	0.12447
3317.28357	0.12511
3315.99780	0.12594
3314.71204	0.12683
3313.42627	0.12758
3312.14050	0.12810
3310.85473	0.12849
3309.56896	0.12890
3308.28319	0.12938
3306.99742	0.12984
3305.71165	0.13011
3304.42588	0.13016
3303.14012	0.13009
3301.85435	0.13011
3300.56858	0.13034
3299.28281	0.13076
3297.99704	0.13126
3296.71127	0.13167
3295.42550	0.13192
3294.13973	0.13214
3292.85397	0.13246
3291.56820	0.13289
3290.28243	0.13322
3288.99666	0.13327
3287.71089	0.13307
3286.42512	0.13277
3285.13935	0.13254
3283.85358	0.13244
3282.56781	0.13244
3281.28205	0.13247
3279.99628	0.13251
3278.71051	0.13254
3277.42474	0.13257
3276.13897	0.13258
3274.85320	0.13254
3273.56743	0.13248
3272.28166	0.13240
3270.99590	0.13223
3269.71013	0.13190
3268.42436	0.13145
3267.13859	0.13103
3265.85282	0.13071
3264.56705	0.13037
3263.28128	0.12986
3261.99551	0.12917
3260.70974	0.12846
3259.42398	0.12784
3258.13821	0.12729
3256.85244	0.12680
3255.56667	0.12637
3254.28090	0.12602
3252.99513	0.12573
3251.70936	0.12552
3250.42359	0.12548
3249.13783	0.12563
3247.85206	0.12577
3246.56629	0.12563
3245.28052	0.12506
3243.99475	0.12419
3242.70898	0.12330
3241.42321	0.12262
3240.13744	0.12227
3238.85167	0.12223
3237.56591	0.12237
3236.28014	0.12242
3234.99437	0.12216
3233.70860	0.12156
3232.42283	0.12077
3231.13706	0.12001
3229.85129	0.11939
3228.56552	0.11891
3227.27976	0.11850
3225.99399	0.11812
3224.70822	0.11789
3223.42245	0.11796
3222.13668	0.11832
3220.85091	0.11869
3219.56514	0.11877
3218.27937	0.11856
3216.99360	0.11826
3215.70784	0.11804
3214.42207	0.11789
3213.13630	0.11774
3211.85053	0.11754
3210.56476	0.11722
3209.27899	0.11676
3207.99322	0.11631
3206.70745	0.11611
3205.42169	0.11624
3204.13592	0.11653
3202.85015	0.11667
3201.56438	0.11647
3200.27861	0.11592
3198.99284	0.11516
3197.70707	0.11437
3196.42130	0.11371
3195.13553	0.11324
3193.84977	0.11291
3192.56400	0.11260
3191.27823	0.11225
3189.99246	0.11190
3188.70669	0.11154
3187.42092	0.11119
3186.13515	0.11089
3184.84938	0.11070
3183.56362	0.11052
3182.27785	0.11019
3180.99208	0.10963
3179.70631	0.10892
3178.42054	0.10818
3177.13477	0.10747
3175.84900	0.10682
3174.56323	0.10630
3173.27746	0.10594
3171.99170	0.10579
3170.70593	0.10587
3169.42016	0.10608
3168.13439	0.10617
3166.84862	0.10590
3165.56285	0.10530
3164.27708	0.10462
3162.99131	0.10414
3161.70555	0.10388
3160.41978	0.10373
3159.13401	0.10349
3157.84824	0.10307
3156.56247	0.10246
3155.27670	0.10177
3153.99093	0.10109
3152.70516	0.10046
3151.41939	0.09993
3150.13363	0.09955
3148.84786	0.09934
3147.56209	0.09917
3146.27632	0.09889
3144.99055	0.09847
3143.70478	0.09794
3142.41901	0.09734
3141.13324	0.09666
3139.84748	0.09601
3138.56171	0.09559
3137.27594	0.09550
3135.99017	0.09562
3134.70440	0.09568
3133.41863	0.09548
3132.13286	0.09508
3130.84709	0.09464
3129.56132	0.09426
3128.27556	0.09391
3126.98979	0.09349
3125.70402	0.09303
3124.41825	0.09270
3123.13248	0.09264
3121.84671	0.09273
3120.56094	0.09269
3119.27517	0.09238
3117.98940	0.09198
3116.70364	0.09175
3115.41787	0.09173
3114.13210	0.09180
3112.84633	0.09188
3111.56056	0.09196
3110.27479	0.09197
3108.98902	0.09178
3107.70325	0.09149
3106.41749	0.09143
3105.13172	0.09186
3103.84595	0.09263
3102.56018	0.09335
3101.27441	0.09376
3099.98864	0.09390
3098.70287	0.09397
3097.41710	0.09404
3096.13133	0.09400
3094.84557	0.09381
3093.55980	0.09357
3092.27403	0.09345
3090.98826	0.09348
3089.70249	0.09356
3088.41672	0.09357
3087.13095	0.09355
3085.84518	0.09357
3084.55942	0.09372
3083.27365	0.09397
3081.98788	0.09425
3080.70211	0.09454
3079.41634	0.09474
3078.13057	0.09475
3076.84480	0.09449
3075.55903	0.09412
3074.27326	0.09385
3072.98750	0.09380
3071.70173	0.09385
3070.41596	0.09387
3069.13019	0.09385
3067.84442	0.09388
3066.55865	0.09407
3065.27288	0.09434
3063.98711	0.09448
3062.70135	0.09425
3061.41558	0.09364
3060.12981	0.09289
3058.84404	0.09228
3057.55827	0.09188
3056.27250	0.09159
3054.98673	0.09135
3053.70096	0.09126
3052.41519	0.09142
3051.12943	0.09170
3049.84366	0.09176
3048.55789	0.09134
3047.27212	0.09047
3045.98635	0.08952
3044.70058	0.08890
3043.41481	0.08873
3042.12904	0.08885
3040.84328	0.08899
3039.55751	0.08894
3038.27174	0.08862
3036.98597	0.08803
3035.70020	0.08728
3034.41443	0.08658
3033.12866	0.08609
3031.84289	0.08584
3030.55712	0.08570
3029.27136	0.08550
3027.98559	0.08517
3026.69982	0.08473
3025.41405	0.08424
3024.12828	0.08379
3022.84251	0.08341
3021.55674	0.08307
3020.27097	0.08271
3018.98521	0.08231
3017.69944	0.08195
3016.41367	0.08166
3015.12790	0.08146
3013.84213	0.08131
3012.55636	0.08115
3011.27059	0.08097
3009.98482	0.08078
3008.69905	0.08063
3007.41329	0.08052
3006.12752	0.08038
3004.84175	0.08015
3003.55598	0.07987
3002.27021	0.07967
3000.98444	0.07967
2999.69867	0.07993
2998.41290	0.08032
2997.12714	0.08062
2995.84137	0.08074
2994.55560	0.08080
2993.26983	0.08095
2991.98406	0.08118
2990.69829	0.08141
2989.41252	0.08170
2988.12675	0.08215
2986.84098	0.08267
2985.55522	0.08303
2984.26945	0.08312
2982.98368	0.08310
2981.69791	0.08322
2980.41214	0.08363
2979.12637	0.08424
2977.84060	0.08495
2976.55483	0.08563
2975.26907	0.08618
2973.98330	0.08656
2972.69753	0.08685
2971.41176	0.08721
2970.12599	0.08769
2968.84022	0.08816
2967.55445	0.08847
2966.26868	0.08858
2964.98291	0.08864
2963.69715	0.08884
2962.41138	0.08928
2961.12561	0.08982
2959.83984	0.09023
2958.55407	0.09037
2957.26830	0.09029
2955.98253	0.09016
2954.69676	0.09009
2953.41100	0.09008
2952.12523	0.09012
2950.83946	0.09017
2949.55369	0.09031
2948.26792	0.09061
2946.98215	0.09105
2945.69638	0.09146
2944.41061	0.09170
2943.12484	0.09181
2941.83908	0.09198
2940.55331	0.09226
2939.26754	0.09257
2937.98177	0.09281
2936.69600	0.09303
2935.41023	0.09326
2934.12446	0.09349
2932.83869	0.09368
2931.55293	0.09385
2930.26716	0.09406
2928.98139	0.09427
2927.69562	0.09443
2926.40985	0.09449
2925.12408	0.09442
2923.83831	0.09421
2922.55254	0.09382
2921.26677	0.09323
2919.98101	0.09251
2918.69524	0.09175
2917.40947	0.09104
2916.12370	0.09041
2914.83793	0.08988
2913.55216	0.08948
2912.26639	0.08917
2910.98062	0.08887
2909.69486	0.08851
2908.40909	0.08812
2907.12332	0.08768
2905.83755	0.08706
2904.55178	0.08621
2903.26601	0.08528
2901.98024	0.08455
2900.69447	0.08417
2899.40870	0.08396
2898.12294	0.08371
2896.83717	0.08336
2895.55140	0.08307
2894.26563	0.08296
2892.97986	0.08298
2891.69409	0.08296
2890.40832	0.08277
2889.12255	0.08245
2887.83678	0.08214
2886.55102	0.08199
2885.26525	0.08205
2883.97948	0.08229
2882.69371	0.08259
2881.40794	0.08284
2880.12217	0.08299
2878.83640	0.08298
2877.55063	0.08285
2876.26487	0.08270
2874.97910	0.08262
2873.69333	0.08256
2872.40756	0.08235
2871.12179	0.08189
2869.83602	0.08126
2868.55025	0.08063
2867.26448	0.08007
2865.97871	0.07957
2864.69295	0.07910
2863.40718	0.07868
2862.12141	0.07841
2860.83564	0.07831
2859.54987	0.07836
2858.26410	0.07845
2856.97833	0.07853
2855.69256	0.07855
2854.40680	0.07851
2853.12103	0.07840
2851.83526	0.07819
2850.54949	0.07783
2849.26372	0.07733
2847.97795	0.07676
2846.69218	0.07620
2845.40641	0.07568
2844.12064	0.07521
2842.83488	0.07476
2841.54911	0.07431
2840.26334	0.07385
2838.97757	0.07341
2837.69180	0.07300
2836.40603	0.07256
2835.12026	0.07206
2833.83449	0.07155
2832.54873	0.07116
2831.26296	0.07096
2829.97719	0.07092
2828.69142	0.07097
2827.40565	0.07103
2826.11988	0.07103
2824.83411	0.07093
2823.54834	0.07076
2822.26257	0.07054
2820.97681	0.07028
2819.69104	0.06996
2818.40527	0.06962
2817.11950	0.06936
2815.83373	0.06920
2814.54796	0.06906
2813.26219	0.06887
2811.97642	0.06861
2810.69066	0.06830
2809.40489	0.06796
2808.11912	0.06763
2806.83335	0.06744
2805.54758	0.06743
2804.26181	0.06749
2802.97604	0.06744
2801.69027	0.06726
2800.40450	0.06704
2799.11874	0.06692
2797.83297	0.06687
2796.54720	0.06680
2795.26143	0.06663
2793.97566	0.06642
2792.68989	0.06626
2791.40412	0.06614
2790.11835	0.06595
2788.83259	0.06560
2787.54682	0.06510
2786.26105	0.06462
2784.97528	0.06438
2783.68951	0.06446
2782.40374	0.06476
2781.11797	0.06500
2779.83220	0.06495
2778.54643	0.06458
2777.26067	0.06409
2775.97490	0.06373
2774.68913	0.06360
2773.40336	0.06367
2772.11759	0.06380
2770.83182	0.06389
2769.54605	0.06393
2768.26028	0.06391
2766.97452	0.06381
2765.68875	0.06361
2764.40298	0.06331
2763.11721	0.06299
2761.83144	0.06278
2760.54567	0.06278
2759.25990	0.06291
2757.97413	0.06296
2756.68836	0.06281
2755.40260	0.06251
2754.11683	0.06224
2752.83106	0.06205
2751.54529	0.06190
2750.25952	0.06169
2748.97375	0.06144
2747.68798	0.06125
2746.40221	0.06118
2745.11645	0.06122
2743.83068	0.06131
2742.54491	0.06141
2741.25914	0.06140
2739.97337	0.06118
2738.68760	0.06072
2737.40183	0.06021
2736.11606	0.05984
2734.83029	0.05972
2733.54453	0.05983
2732.25876	0.06002
2730.97299	0.06011
2729.68722	0.05999
2728.40145	0.05973
2727.11568	0.05946
2725.82991	0.05927
2724.54414	0.05912
2723.25838	0.05895
2721.97261	0.05873
2720.68684	0.05850
2719.40107	0.05832
2718.11530	0.05817
2716.82953	0.05801
2715.54376	0.05787
2714.25799	0.05781
2712.97222	0.05785
2711.68646	0.05789
2710.40069	0.05785
2709.11492	0.05773
2707.82915	0.05761
2706.54338	0.05752
2705.25761	0.05746
2703.97184	0.05743
2702.68607	0.05740
2701.40031	0.05737
2700.11454	0.05731
2698.82877	0.05720
2697.54300	0.05707
2696.25723	0.05695
2694.97146	0.05687
2693.68569	0.05685
2692.39992	0.05685
2691.11415	0.05680
2689.82839	0.05664
2688.54262	0.05645
2687.25685	0.05635
2685.97108	0.05634
2684.68531	0.05631
2683.39954	0.05616
2682.11377	0.05597
2680.82800	0.05585
2679.54224	0.05584
2678.25647	0.05589
2676.97070	0.05592
2675.68493	0.05593
2674.39916	0.05590
2673.11339	0.05582
2671.82762	0.05571
2670.54185	0.05560
2669.25608	0.05555
2667.97032	0.05557
2666.68455	0.05562
2665.39878	0.05568
2664.11301	0.05574
2662.82724	0.05583
2661.54147	0.05594
2660.25570	0.05601
2658.96993	0.05599
2657.68417	0.05588
2656.39840	0.05568
2655.11263	0.05536
2653.82686	0.05500
2652.54109	0.05468
2651.25532	0.05445
2649.96955	0.05422
2648.68378	0.05387
2647.39801	0.05340
2646.11225	0.05293
2644.82648	0.05264
2643.54071	0.05255
2642.25494	0.05249
2640.96917	0.05232
2639.68340	0.05201
2638.39763	0.05172
2637.11186	0.05155
2635.82609	0.05150
2634.54033	0.05147
2633.25456	0.05136
2631.96879	0.05112
2630.68302	0.05088
2629.39725	0.05077
2628.11148	0.05079
2626.82571	0.05081
2625.53994	0.05068
2624.25418	0.05030
2622.96841	0.04978
2621.68264	0.04930
2620.39687	0.04903
2619.11110	0.04900
2617.82533	0.04905
2616.53956	0.04903
2615.25379	0.04889
2613.96802	0.04865
2612.68226	0.04841
2611.39649	0.04825
2610.11072	0.04816
2608.82495	0.04806
2607.53918	0.04796
2606.25341	0.04796
2604.96764	0.04808
2603.68187	0.04820
2602.39611	0.04813
2601.11034	0.04790
2599.82457	0.04762
2598.53880	0.04744
2597.25303	0.04741
2595.96726	0.04751
2594.68149	0.04766
2593.39572	0.04771
2592.10995	0.04763
2590.82419	0.04755
2589.53842	0.04751
2588.25265	0.04738
2586.96688	0.04703
2585.68111	0.04651
2584.39534	0.04604
2583.10957	0.04575
2581.82380	0.04559
2580.53804	0.04553
2579.25227	0.04555
2577.96650	0.04561
2576.68073	0.04567
2575.39496	0.04566
2574.10919	0.04548
2572.82342	0.04511
2571.53765	0.04472
2570.25188	0.04448
2568.96612	0.04440
2567.68035	0.04434
2566.39458	0.04416
2565.10881	0.04390
2563.82304	0.04374
2562.53727	0.04379
2561.25150	0.04401
2559.96573	0.04412
2558.67997	0.04388
2557.39420	0.04339
2556.10843	0.04303
2554.82266	0.04307
2553.53689	0.04332
2552.25112	0.04343
2550.96535	0.04322
2549.67958	0.04286
2548.39381	0.04256
2547.10805	0.04245
2545.82228	0.04252
2544.53651	0.04273
2543.25074	0.04296
2541.96497	0.04309
2540.67920	0.04308
2539.39343	0.04293
2538.10766	0.04266
2536.82190	0.04226
2535.53613	0.04178
2534.25036	0.04140
2532.96459	0.04121
2531.67882	0.04112
2530.39305	0.04101
2529.10728	0.04088
2527.82151	0.04087
2526.53574	0.04107
2525.24998	0.04141
2523.96421	0.04171
2522.67844	0.04181
2521.39267	0.04163
2520.10690	0.04128
2518.82113	0.04095
2517.53536	0.04077
2516.24959	0.04073
2514.96383	0.04072
2513.67806	0.04067
2512.39229	0.04057
2511.10652	0.04043
2509.82075	0.04021
2508.53498	0.03990
2507.24921	0.03964
2505.96344	0.03955
2504.67767	0.03969
2503.39191	0.03997
2502.10614	0.04022
2500.82037	0.04030
2499.53460	0.04017
2498.24883	0.03983
2496.96306	0.03932
2495.67729	0.03878
2494.39152	0.03842
2493.10576	0.03837
2491.81999	0.03860
2490.53422	0.03902
2489.24845	0.03950
2487.96268	0.03979
2486.67691	0.03961
2485.39114	0.03894
2484.10537	0.03820
2482.81960	0.03788
2481.53384	0.03812
2480.24807	0.03866
2478.96230	0.03913
2477.67653	0.03940
2476.39076	0.03949
2475.10499	0.03941
2473.81922	0.03921
2472.53345	0.03904
2471.24769	0.03904
2469.96192	0.03911
2468.67615	0.03902
2467.39038	0.03869
2466.10461	0.03834
2464.81884	0.03827
2463.53307	0.03855
2462.24730	0.03892
2460.96153	0.03907
2459.67577	0.03893
2458.39000	0.03869
2457.10423	0.03858
2455.81846	0.03866
2454.53269	0.03885
2453.24692	0.03901
2451.96115	0.03908
2450.67538	0.03906
2449.38962	0.03900
2448.10385	0.03891
2446.81808	0.03877
2445.53231	0.03858
2444.24654	0.03841
2442.96077	0.03832
2441.67500	0.03831
2440.38923	0.03828
2439.10346	0.03817
2437.81770	0.03802
2436.53193	0.03791
2435.24616	0.03797
2433.96039	0.03820
2432.67462	0.03846
2431.38885	0.03857
2430.10308	0.03848
2428.81731	0.03824
2427.53155	0.03791
2426.24578	0.03753
2424.96001	0.03722
2423.67424	0.03713
2422.38847	0.03727
2421.10270	0.03756
2419.81693	0.03783
2418.53116	0.03798
2417.24539	0.03795
2415.95963	0.03779
2414.67386	0.03762
2413.38809	0.03752
2412.10232	0.03750
2410.81655	0.03751
2409.53078	0.03747
2408.24501	0.03732
2406.95924	0.03709
2405.67347	0.03686
2404.38771	0.03669
2403.10194	0.03664
2401.81617	0.03672
2400.53040	0.03688
2399.24463	0.03694
2397.95886	0.03695
2396.67309	0.03694
2395.38732	0.03697
2394.10156	0.03704
2392.81579	0.03707
2391.53002	0.03702
2390.24425	0.03697
2388.95848	0.03700
2387.67271	0.03712
2386.38694	0.03729
2385.10117	0.03745
2383.81540	0.03757
2382.52964	0.03769
2381.24387	0.03780
2379.95810	0.03789
2378.67233	0.03784
2377.38656	0.03768
2376.10079	0.03752
2374.81502	0.03736
2373.52925	0.03700
2372.24349	0.03657
2370.95772	0.03638
2369.67195	0.03656
2368.38618	0.03695
2367.10041	0.03728
2365.81464	0.03763
2364.52887	0.03796
2363.24310	0.03819
2361.95733	0.03819
2360.67157	0.03783
2359.38580	0.03740
2358.10003	0.03727
2356.81426	0.03752
2355.52849	0.03801
2354.24272	0.03853
2352.95695	0.03879
2351.67118	0.03862
2350.38542	0.03833
2349.09965	0.03833
2347.81388	0.03841
2346.52811	0.03810
2345.24234	0.03761
2343.95657	0.03756
2342.67080	0.03798
2341.38503	0.03787
2340.09926	0.03727
2338.81350	0.03743
2337.52773	0.03815
2336.24196	0.03792
2334.95619	0.03720
2333.67042	0.03742
2332.38465	0.03812
2331.09888	0.03765
2329.81311	0.03731
2328.52735	0.03786
2327.24158	0.03812
2325.95581	0.03830
2324.67004	0.03890
2323.38427	0.03928
2322.09850	0.03892
2320.81273	0.03858
2319.52696	0.03811
2318.24119	0.03755
2316.95543	0.03717
2315.66966	0.03674
2314.38389	0.03636
2313.09812	0.03610
2311.81235	0.03570
2310.52658	0.03538
2309.24081	0.03524
2307.95504	0.03519
2306.66928	0.03524
2305.38351	0.03524
2304.09774	0.03520
2302.81197	0.03515
2301.52620	0.03503
2300.24043	0.03481
2298.95466	0.03444
2297.66889	0.03394
2296.38312	0.03343
2295.09736	0.03303
2293.81159	0.03291
2292.52582	0.03306
2291.24005	0.03334
2289.95428	0.03352
2288.66851	0.03352
2287.38274	0.03344
2286.09697	0.03334
2284.81121	0.03317
2283.52544	0.03279
2282.23967	0.03223
2280.95390	0.03171
2279.66813	0.03144
2278.38236	0.03148
2277.09659	0.03164
2275.81082	0.03165
2274.52505	0.03136
2273.23929	0.03088
2271.95352	0.03047
2270.66775	0.03022
2269.38198	0.03001
2268.09621	0.02971
2266.81044	0.02936
2265.52467	0.02914
2264.23890	0.02918
2262.95314	0.02939
2261.66737	0.02957
2260.38160	0.02963
2259.09583	0.02947
2257.81006	0.02905
2256.52429	0.02834
2255.23852	0.02747
2253.95275	0.02667
2252.66698	0.02612
2251.38122	0.02591
2250.09545	0.02608
2248.80968	0.02658
2247.52391	0.02701
2246.23814	0.02741
2244.95237	0.02772
2243.66660	0.02786
2242.38083	0.02777
2241.09507	0.02752
2239.80930	0.02738
2238.52353	0.02757
2237.23776	0.02795
2235.95199	0.02809
2234.66622	0.02774
2233.38045	0.02698
2232.09468	0.02612
2230.80891	0.02546
2229.52315	0.02527
2228.23738	0.02568
2226.95161	0.02639
2225.66584	0.02688
2224.38007	0.02677
2223.09430	0.02618
2221.80853	0.02556
2220.52276	0.02515
2219.23700	0.02483
2217.95123	0.02442
2216.66546	0.02403
2215.37969	0.02392
2214.09392	0.02421
2212.80815	0.02462
2211.52238	0.02474
2210.23661	0.02449
2208.95084	0.02420
2207.66508	0.02431
2206.37931	0.02482
2205.09354	0.02534
2203.80777	0.02551
2202.52200	0.02518
2201.23623	0.02434
2199.95046	0.02316
2198.66469	0.02210
2197.37893	0.02163
2196.09316	0.02175
2194.80739	0.02201
2193.52162	0.02203
2192.23585	0.02168
2190.95008	0.02107
2189.66431	0.02048
2188.37854	0.02029
2187.09277	0.02067
2185.80701	0.02128
2184.52124	0.02149
2183.23547	0.02102
2181.94970	0.02038
2180.66393	0.02034
2179.37816	0.02105
2178.09239	0.02190
2176.80662	0.02221
2175.52085	0.02201
2174.23509	0.02168
2172.94932	0.02124
2171.66355	0.02031
2170.37778	0.01875
2169.09201	0.01699
2167.80624	0.01556
2166.52047	0.01457
2165.23470	0.01384
2163.94894	0.01342
2162.66317	0.01357
2161.37740	0.01426
2160.09163	0.01502
2158.80586	0.01533
2157.52009	0.01520
2156.23432	0.01511
2154.94855	0.01560
2153.66278	0.01676
2152.37702	0.01817
2151.09125	0.01915
2149.80548	0.01944
2148.51971	0.01939
2147.23394	0.01947
2145.94817	0.01971
2144.66240	0.01994
2143.37663	0.02009
2142.09087	0.02015
2140.80510	0.02001
2139.51933	0.01963
2138.23356	0.01931
2136.94779	0.01938
2135.66202	0.01981
2134.37625	0.02032
2133.09048	0.02072
2131.80471	0.02104
2130.51895	0.02133
2129.23318	0.02156
2127.94741	0.02180
2126.66164	0.02220
2125.37587	0.02282
2124.09010	0.02343
2122.80433	0.02374
2121.51856	0.02375
2120.23280	0.02379
2118.94703	0.02406
2117.66126	0.02447
2116.37549	0.02472
2115.08972	0.02467
2113.80395	0.02440
2112.51818	0.02411
2111.23241	0.02394
2109.94664	0.02390
2108.66088	0.02405
2107.37511	0.02447
2106.08934	0.02508
2104.80357	0.02558
2103.51780	0.02574
2102.23203	0.02564
2100.94626	0.02540
2099.66049	0.02445
2098.37473	0.02342
2097.08896	0.02238
2095.80319	0.02146
2094.51742	0.02107
2093.23165	0.02137
2091.94588	0.02217
2090.66011	0.02296
2089.37434	0.02334
2088.08857	0.02321
2086.80281	0.02272
2085.51704	0.02208
2084.23127	0.02146
2082.94550	0.02106
2081.65973	0.02100
2080.37396	0.02114
2079.08819	0.02118
2077.80242	0.02096
2076.51666	0.02064
2075.23089	0.02058
2073.94512	0.02095
2072.65935	0.02155
2071.37358	0.02201
2070.08781	0.02203
2068.80204	0.02163
2067.51627	0.02105
2066.23050	0.02061
2064.94474	0.02040
2063.65897	0.02027
2062.37320	0.01998
2061.08743	0.01948
2059.80166	0.01896
2058.51589	0.01867
2057.23012	0.01870
2055.94435	0.01889
2054.65859	0.01903
2053.37282	0.01897
2052.08705	0.01874
2050.80128	0.01844
2049.51551	0.01806
2048.22974	0.01753
2046.94397	0.01694
2045.65820	0.01652
2044.37243	0.01643
2043.08667	0.01654
2041.80090	0.01659
2040.51513	0.01647
2039.22936	0.01621
2037.94359	0.01592
2036.65782	0.01562
2035.37205	0.01536
2034.08628	0.01519
2032.80052	0.01500
2031.51475	0.01461
2030.22898	0.01408
2028.94321	0.01385
2027.65744	0.01428
2026.37167	0.01523
2025.08590	0.01620
2023.80013	0.01671
2022.51436	0.01659
2021.22860	0.01588
2019.94283	0.01481
2018.65706	0.01373
2017.37129	0.01300
2016.08552	0.01277
2014.79975	0.01305
2013.51398	0.01370
2012.22821	0.01445
2010.94245	0.01489
2009.65668	0.01473
2008.37091	0.01418
2007.08514	0.01374
2005.79937	0.01387
2004.51360	0.01457
2003.22783	0.01553
2001.94206	0.01644
2000.65629	0.01709
1999.37053	0.01743
1998.08476	0.01746
1996.79899	0.01722
1995.51322	0.01688
1994.22745	0.01670
1992.94168	0.01683
1991.65591	0.01718
1990.37014	0.01749
1989.08438	0.01751
1987.79861	0.01718
1986.51284	0.01666
1985.22707	0.01622
1983.94130	0.01595
1982.65553	0.01563
1981.36976	0.01498
1980.08399	0.01402
1978.79822	0.01314
1977.51246	0.01271
1976.22669	0.01280
1974.94092	0.01326
1973.65515	0.01389
1972.36938	0.01454
1971.08361	0.01516
1969.79784	0.01576
1968.51207	0.01628
1967.22631	0.01655
1965.94054	0.01651
1964.65477	0.01636
1963.36900	0.01635
1962.08323	0.01651
1960.79746	0.01659
1959.51169	0.01640
1958.22592	0.01604
1956.94015	0.01590
1955.65439	0.01621
1954.36862	0.01683
1953.08285	0.01739
1951.79708	0.01763
1950.51131	0.01759
1949.22554	0.01739
1947.93977	0.01707
1946.65400	0.01671
1945.36823	0.01651
1944.08247	0.01666
1942.79670	0.01712
1941.51093	0.01762
1940.22516	0.01788
1938.93939	0.01780
1937.65362	0.01755
1936.36785	0.01743
1935.08208	0.01763
1933.79632	0.01799
1932.51055	0.01818
1931.22478	0.01808
1929.93901	0.01789
1928.65324	0.01790
1927.36747	0.01815
1926.08170	0.01843
1924.79593	0.01854
1923.51016	0.01851
1922.22440	0.01849
1920.93863	0.01862
1919.65286	0.01885
1918.36709	0.01904
1917.08132	0.01914
1915.79555	0.01924
1914.50978	0.01935
1913.22401	0.01941
1911.93825	0.01937
1910.65248	0.01928
1909.36671	0.01921
1908.08094	0.01916
1906.79517	0.01915
1905.50940	0.01924
1904.22363	0.01947
1902.93786	0.01969
1901.65209	0.01971
1900.36633	0.01953
1899.08056	0.01934
1897.79479	0.01936
1896.50902	0.01954
1895.22325	0.01972
1893.93748	0.01976
1892.65171	0.01971
1891.36594	0.01970
1890.08018	0.01982
1888.79441	0.02006
1887.50864	0.02027
1886.22287	0.02035
1884.93710	0.02027
1883.65133	0.02009
1882.36556	0.01987
1881.07979	0.01960
1879.79402	0.01933
1878.50826	0.01918
1877.22249	0.01924
1875.93672	0.01950
1874.65095	0.01983
1873.36518	0.02007
1872.07941	0.02019
1870.79364	0.02021
1869.50787	0.02015
1868.22211	0.02006
1866.93634	0.01996
1865.65057	0.01987
1864.36480	0.01975
1863.07903	0.01959
1861.79326	0.01948
1860.50749	0.01953
1859.22172	0.01965
1857.93595	0.01974
1856.65019	0.01973
1855.36442	0.01969
1854.07865	0.01967
1852.79288	0.01957
1851.50711	0.01934
1850.22134	0.01903
1848.93557	0.01882
1847.64980	0.01881
1846.36404	0.01902
1845.07827	0.01935
1843.79250	0.01960
1842.50673	0.01965
1841.22096	0.01957
1839.93519	0.01948
1838.64942	0.01940
1837.36365	0.01932
1836.07788	0.01922
1834.79212	0.01913
1833.50635	0.01914
1832.22058	0.01926
1830.93481	0.01945
1829.64904	0.01959
1828.36327	0.01962
1827.07750	0.01954
1825.79173	0.01941
1824.50597	0.01923
1823.22020	0.01902
1821.93443	0.01877
1820.64866	0.01852
1819.36289	0.01838
1818.07712	0.01842
1816.79135	0.01862
1815.50558	0.01889
1814.21981	0.01914
1812.93405	0.01932
1811.64828	0.01943
1810.36251	0.01947
1809.07674	0.01945
1807.79097	0.01937
1806.50520	0.01928
1805.21943	0.01920
1803.93366	0.01916
1802.64790	0.01914
1801.36213	0.01911
1800.07636	0.01902
1798.79059	0.01892
1797.50482	0.01887
1796.21905	0.01893
1794.93328	0.01906
1793.64751	0.01918
1792.36174	0.01920
1791.07598	0.01914
1789.79021	0.01906
1788.50444	0.01898
1787.21867	0.01892
1785.93290	0.01885
1784.64713	0.01880
1783.36136	0.01877
1782.07559	0.01874
1780.78983	0.01866
1779.50406	0.01854
1778.21829	0.01841
1776.93252	0.01833
1775.64675	0.01831
1774.36098	0.01835
1773.07521	0.01839
1771.78944	0.01839
1770.50367	0.01839
1769.21791	0.01843
1767.93214	0.01847
1766.64637	0.01845
1765.36060	0.01844
1764.07483	0.01850
1762.78906	0.01858
1761.50329	0.01854
1760.21752	0.01840
1758.93176	0.01833
1757.64599	0.01844
1756.36022	0.01868
1755.07445	0.01895
1753.78868	0.01923
1752.50291	0.01950
1751.21714	0.01970
1749.93137	0.01980
1748.64560	0.01990
1747.35984	0.02005
1746.07407	0.02025
1744.78830	0.02047
1743.50253	0.02068
1742.21676	0.02092
1740.93099	0.02121
1739.64522	0.02153
1738.35945	0.02184
1737.07369	0.02223
1735.78792	0.02272
1734.50215	0.02317
1733.21638	0.02342
1731.93061	0.02356
1730.64484	0.02374
1729.35907	0.02398
1728.07330	0.02422
1726.78753	0.02448
1725.50177	0.02486
1724.21600	0.02531
1722.93023	0.02570
1721.64446	0.02600
1720.35869	0.02631
1719.07292	0.02670
1717.78715	0.02711
1716.50138	0.02745
1715.21561	0.02778
1713.92985	0.02825
1712.64408	0.02894
1711.35831	0.02983
1710.07254	0.03088
1708.78677	0.03201
1707.50100	0.03320
1706.21523	0.03443
1704.92946	0.03569
1703.64370	0.03707
1702.35793	0.03874
1701.07216	0.04065
1699.78639	0.04256
1698.50062	0.04446
1697.21485	0.04653
1695.92908	0.04873
1694.64331	0.05084
1693.35754	0.05287
1692.07178	0.05497
1690.78601	0.05715
1689.50024	0.05925
1688.21447	0.06131
1686.92870	0.06353
1685.64293	0.06598
1684.35716	0.06843
1683.07139	0.07069
1681.78563	0.07291
1680.49986	0.07527
1679.21409	0.07780
1677.92832	0.08046
1676.64255	0.08324
1675.35678	0.08602
1674.07101	0.08874
1672.78524	0.09151
1671.49947	0.09449
1670.21371	0.09766
1668.92794	0.10082
1667.64217	0.10379
1666.35640	0.10657
1665.07063	0.10932
1663.78486	0.11209
1662.49909	0.11483
1661.21332	0.11746
1659.92756	0.11995
1658.64179	0.12227
1657.35602	0.12443
1656.07025	0.12653
1654.78448	0.12869
1653.49871	0.13074
1652.21294	0.13242
1650.92717	0.13371
1649.64140	0.13491
1648.35564	0.13614
1647.06987	0.13733
1645.78410	0.13835
1644.49833	0.13925
1643.21256	0.14016
1641.92679	0.14109
1640.64102	0.14198
1639.35525	0.14277
1638.06949	0.14349
1636.78372	0.14414
1635.49795	0.14464
1634.21218	0.14494
1632.92641	0.14512
1631.64064	0.14523
1630.35487	0.14519
1629.06910	0.14490
1627.78333	0.14426
1626.49757	0.14328
1625.21180	0.14199
1623.92603	0.14042
1622.64026	0.13854
1621.35449	0.13632
1620.06872	0.13387
1618.78295	0.13132
1617.49718	0.12871
1616.21142	0.12600
1614.92565	0.12319
1613.63988	0.12035
1612.35411	0.11752
1611.06834	0.11464
1609.78257	0.11174
1608.49680	0.10885
1607.21103	0.10602
1605.92526	0.10329
1604.63950	0.10070
1603.35373	0.09827
1602.06796	0.09600
1600.78219	0.09390
1599.49642	0.09194
1598.21065	0.09014
1596.92488	0.08848
1595.63911	0.08694
1594.35335	0.08549
1593.06758	0.08416
1591.78181	0.08299
1590.49604	0.08203
1589.21027	0.08126
1587.92450	0.08063
1586.63873	0.08013
1585.35296	0.07979
1584.06719	0.07962
1582.78143	0.07960
1581.49566	0.07966
1580.20989	0.07980
1578.92412	0.08011
1577.63835	0.08071
1576.35258	0.08150
1575.06681	0.08230
1573.78104	0.08315
1572.49528	0.08418
1571.20951	0.08544
1569.92374	0.08684
1568.63797	0.08829
1567.35220	0.08981
1566.06643	0.09143
1564.78066	0.09308
1563.49489	0.09472
1562.20912	0.09645
1560.92336	0.09837
1559.63759	0.10037
1558.35182	0.10221
1557.06605	0.10386
1555.78028	0.10551
1554.49451	0.10724
1553.20874	0.10894
1551.92297	0.11055
1550.63721	0.11205
1549.35144	0.11343
1548.06567	0.11466
1546.77990	0.11580
1545.49413	0.11684
1544.20836	0.11778
1542.92259	0.11865
1541.63682	0.11949
1540.35105	0.12028
1539.06529	0.12088
1537.77952	0.12128
1536.49375	0.12164
1535.20798	0.12206
1533.92221	0.12246
1532.63644	0.12269
1531.35067	0.12275
1530.06490	0.12270
1528.77914	0.12263
1527.49337	0.12251
1526.20760	0.12233
1524.92183	0.12207
1523.63606	0.12183
1522.35029	0.12166
1521.06452	0.12148
1519.77875	0.12123
1518.49298	0.12093
1517.20722	0.12055
1515.92145	0.11993
1514.63568	0.11902
1513.34991	0.11787
1512.06414	0.11652
1510.77837	0.11503
1509.49260	0.11348
1508.20683	0.11191
1506.92107	0.11023
1505.63530	0.10834
1504.34953	0.10630
1503.06376	0.10432
1501.77799	0.10245
1500.49222	0.10060
1499.20645	0.09869
1497.92068	0.09671
1496.63491	0.09463
1495.34915	0.09246
1494.06338	0.09025
1492.77761	0.08811
1491.49184	0.08605
1490.20607	0.08404
1488.92030	0.08212
1487.63453	0.08034
1486.34876	0.07873
1485.06299	0.07726
1483.77723	0.07594
1482.49146	0.07481
1481.20569	0.07391
1479.91992	0.07324
1478.63415	0.07281
1477.34838	0.07261
1476.06261	0.07264
1474.77684	0.07292
1473.49108	0.07341
1472.20531	0.07404
1470.91954	0.07470
1469.63377	0.07536
1468.34800	0.07600
1467.06223	0.07661
1465.77646	0.07719
1464.49069	0.07779
1463.20492	0.07844
1461.91916	0.07919
1460.63339	0.08002
1459.34762	0.08097
1458.06185	0.08198
1456.77608	0.08291
1455.49031	0.08365
1454.20454	0.08427
1452.91877	0.08482
1451.63301	0.08529
1450.34724	0.08564
1449.06147	0.08585
1447.77570	0.08589
1446.48993	0.08572
1445.20416	0.08543
1443.91839	0.08508
1442.63262	0.08469
1441.34685	0.08423
1440.06109	0.08372
1438.77532	0.08320
1437.48955	0.08262
1436.20378	0.08186
1434.91801	0.08093
1433.63224	0.07996
1432.34647	0.07906
1431.06070	0.07826
1429.77494	0.07755
1428.48917	0.07694
1427.20340	0.07644
1425.91763	0.07607
1424.63186	0.07577
1423.34609	0.07551
1422.06032	0.07530
1420.77455	0.07521
1419.48878	0.07523
1418.20302	0.07528
1416.91725	0.07536
1415.63148	0.07548
1414.34571	0.07562
1413.05994	0.07577
1411.77417	0.07591
1410.48840	0.07604
1409.20263	0.07615
1407.91687	0.07626
1406.63110	0.07639
1405.34533	0.07653
1404.05956	0.07668
1402.77379	0.07684
1401.48802	0.07700
1400.20225	0.07714
1398.91648	0.07719
1397.63071	0.07717
1396.34495	0.07716
1395.05918	0.07720
1393.77341	0.07726
1392.48764	0.07729
1391.20187	0.07728
1389.91610	0.07726
1388.63033	0.07723
1387.34456	0.07714
1386.05880	0.07698
1384.77303	0.07676
1383.48726	0.07652
1382.20149	0.07630
1380.91572	0.07607
1379.62995	0.07579
1378.34418	0.07545
1377.05841	0.07506
1375.77264	0.07467
1374.48688	0.07429
1373.20111	0.07385
1371.91534	0.07332
1370.62957	0.07272
1369.34380	0.07209
1368.05803	0.07144
1366.77226	0.07073
1365.48649	0.06999
1364.20073	0.06926
1362.91496	0.06858
1361.62919	0.06795
1360.34342	0.06738
1359.05765	0.06687
1357.77188	0.06643
1356.48611	0.06609
1355.20034	0.06586
1353.91457	0.06577
1352.62881	0.06582
1351.34304	0.06598
1350.05727	0.06621
1348.77150	0.06648
1347.48573	0.06676
1346.19996	0.06708
1344.91419	0.06742
1343.62842	0.06775
1342.34266	0.06806
1341.05689	0.06834
1339.77112	0.06858
1338.48535	0.06879
1337.19958	0.06895
1335.91381	0.06901
1334.62804	0.06893
1333.34227	0.06871
1332.05650	0.06838
1330.77074	0.06802
1329.48497	0.06766
1328.19920	0.06731
1326.91343	0.06697
1325.62766	0.06663
1324.34189	0.06629
1323.05612	0.06599
1321.77035	0.06577
1320.48459	0.06564
1319.19882	0.06559
1317.91305	0.06560
1316.62728	0.06561
1315.34151	0.06558
1314.05574	0.06547
1312.76997	0.06528
1311.48420	0.06503
1310.19843	0.06476
1308.91267	0.06450
1307.62690	0.06421
1306.34113	0.06392
1305.05536	0.06366
1303.76959	0.06348
1302.48382	0.06334
1301.19805	0.06322
1299.91228	0.06310
1298.62652	0.06301
1297.34075	0.06297
1296.05498	0.06297
1294.76921	0.06301
1293.48344	0.06309
1292.19767	0.06321
1290.91190	0.06337
1289.62613	0.06359
1288.34036	0.06389
1287.05460	0.06424
1285.76883	0.06463
1284.48306	0.06501
1283.19729	0.06535
1281.91152	0.06563
1280.62575	0.06583
1279.33998	0.06598
1278.05421	0.06609
1276.76845	0.06618
1275.48268	0.06627
1274.19691	0.06635
1272.91114	0.06644
1271.62537	0.06656
1270.33960	0.06674
1269.05383	0.06697
1267.76806	0.06725
1266.48229	0.06757
1265.19653	0.06791
1263.91076	0.06826
1262.62499	0.06863
1261.33922	0.06905
1260.05345	0.06952
1258.76768	0.07002
1257.48191	0.07050
1256.19614	0.07094
1254.91037	0.07138
1253.62461	0.07183
1252.33884	0.07233
1251.05307	0.07287
1249.76730	0.07348
1248.48153	0.07415
1247.19576	0.07487
1245.90999	0.07564
1244.62422	0.07645
1243.33846	0.07728
1242.05269	0.07807
1240.76692	0.07877
1239.48115	0.07933
1238.19538	0.07976
1236.90961	0.08008
1235.62384	0.08034
1234.33807	0.08057
1233.05230	0.08073
1231.76654	0.08080
1230.48077	0.08074
1229.19500	0.08053
1227.90923	0.08019
1226.62346	0.07972
1225.33769	0.07915
1224.05192	0.07850
1222.76615	0.07779
1221.48039	0.07707
1220.19462	0.07636
1218.90885	0.07566
1217.62308	0.07500
1216.33731	0.07439
1215.05154	0.07386
1213.76577	0.07345
1212.48000	0.07318
1211.19423	0.07300
1209.90847	0.07286
1208.62270	0.07274
1207.33693	0.07264
1206.05116	0.07259
1204.76539	0.07257
1203.47962	0.07254
1202.19385	0.07244
1200.90808	0.07229
1199.62232	0.07207
1198.33655	0.07165
1197.05078	0.07114
1195.76501	0.07059
1194.47924	0.07003
1193.19347	0.06948
1191.90770	0.06895
1190.62193	0.06845
1189.33616	0.06799
1188.05040	0.06762
1186.76463	0.06734
1185.47886	0.06710
1184.19309	0.06686
1182.90732	0.06663
1181.62155	0.06642
1180.33578	0.06627
1179.05001	0.06618
1177.76425	0.06611
1176.47848	0.06604
1175.19271	0.06599
1173.90694	0.06596
1172.62117	0.06598
1171.33540	0.06604
1170.04963	0.06617
1168.76386	0.06634
1167.47809	0.06650
1166.19233	0.06656
1164.90656	0.06655
1163.62079	0.06653
1162.33502	0.06656
1161.04925	0.06663
1159.76348	0.06670
1158.47771	0.06669
1157.19194	0.06657
1155.90618	0.06631
1154.62041	0.06594
1153.33464	0.06553
1152.04887	0.06512
1150.76310	0.06467
1149.47733	0.06414
1148.19156	0.06357
1146.90579	0.06307
1145.62002	0.06269
1144.33426	0.06238
1143.04849	0.06204
1141.76272	0.06162
1140.47695	0.06115
1139.19118	0.06071
1137.90541	0.06032
1136.61964	0.06002
1135.33387	0.05980
1134.04811	0.05967
1132.76234	0.05960
1131.47657	0.05954
1130.19080	0.05943
1128.90503	0.05928
1127.61926	0.05912
1126.33349	0.05898
1125.04772	0.05888
1123.76195	0.05880
1122.47619	0.05875
1121.19042	0.05877
1119.90465	0.05887
1118.61888	0.05900
1117.33311	0.05911
1116.04734	0.05917
1114.76157	0.05920
1113.47580	0.05924
1112.19004	0.05934
1110.90427	0.05945
1109.61850	0.05959
1108.33273	0.05976
1107.04696	0.06001
1105.76119	0.06035
1104.47542	0.06074
1103.18965	0.06111
1101.90388	0.06142
1100.61812	0.06172
1099.33235	0.06204
1098.04658	0.06240
1096.76081	0.06278
1095.47504	0.06314
1094.18927	0.06348
1092.90350	0.06381
1091.61773	0.06416
1090.33197	0.06458
1089.04620	0.06512
1087.76043	0.06580
1086.47466	0.06657
1085.18889	0.06730
1083.90312	0.06787
1082.61735	0.06822
1081.33158	0.06841
1080.04581	0.06856
1078.76005	0.06872
1077.47428	0.06887
1076.18851	0.06895
1074.90274	0.06895
1073.61697	0.06891
1072.33120	0.06885
1071.04543	0.06878
1069.75966	0.06874
1068.47390	0.06876
1067.18813	0.06887
1065.90236	0.06900
1064.61659	0.06911
1063.33082	0.06916
1062.04505	0.06915
1060.75928	0.06909
1059.47351	0.06901
1058.18774	0.06895
1056.90198	0.06889
1055.61621	0.06882
1054.33044	0.06875
1053.04467	0.06870
1051.75890	0.06865
1050.47313	0.06858
1049.18736	0.06847
1047.90159	0.06836
1046.61583	0.06832
1045.33006	0.06834
1044.04429	0.06835
1042.75852	0.06833
1041.47275	0.06832
1040.18698	0.06839
1038.90121	0.06856
1037.61544	0.06873
1036.32967	0.06883
1035.04391	0.06884
1033.75814	0.06882
1032.47237	0.06886
1031.18660	0.06894
1029.90083	0.06894
1028.61506	0.06875
1027.32929	0.06837
1026.04352	0.06789
1024.75775	0.06737
1023.47199	0.06683
1022.18622	0.06630
1020.90045	0.06583
1019.61468	0.06543
1018.32891	0.06509
1017.04314	0.06479
1015.75737	0.06448
1014.47160	0.06413
1013.18584	0.06374
1011.90007	0.06333
1010.61430	0.06292
1009.32853	0.06252
1008.04276	0.06214
1006.75699	0.06175
1005.47122	0.06127
1004.18545	0.06065
1002.89968	0.05997
1001.61392	0.05935
1000.32815	0.05886
999.04238	0.05850
997.75661	0.05821
996.47084	0.05794
995.18507	0.05764
993.89930	0.05725
992.61353	0.05677
991.32777	0.05626
990.04200	0.05577
988.75623	0.05534
987.47046	0.05497
986.18469	0.05466
984.89892	0.05437
983.61315	0.05410
982.32738	0.05386
981.04161	0.05370
979.75585	0.05364
978.47008	0.05362
977.18431	0.05360
975.89854	0.05354
974.61277	0.05344
973.32700	0.05331
972.04123	0.05313
970.75546	0.05291
969.46970	0.05267
968.18393	0.05240
966.89816	0.05208
965.61239	0.05171
964.32662	0.05134
963.04085	0.05103
961.75508	0.05081
960.46931	0.05062
959.18354	0.05037
957.89778	0.05005
956.61201	0.04971
955.32624	0.04941
954.04047	0.04916
952.75470	0.04891
951.46893	0.04864
950.18316	0.04840
948.89739	0.04826
947.61163	0.04821
946.32586	0.04818
945.04009	0.04810
943.75432	0.04796
942.46855	0.04778
941.18278	0.04757
939.89701	0.04734
938.61124	0.04713
937.32547	0.04699
936.03971	0.04688
934.75394	0.04675
933.46817	0.04660
932.18240	0.04644
930.89663	0.04630
929.61086	0.04618
928.32509	0.04606
927.03932	0.04593
925.75356	0.04578
924.46779	0.04561
923.18202	0.04546
921.89625	0.04533
920.61048	0.04518
919.32471	0.04496
918.03894	0.04470
916.75317	0.04444
915.46740	0.04421
914.18164	0.04398
912.89587	0.04368
911.61010	0.04334
910.32433	0.04304
909.03856	0.04285
907.75279	0.04275
906.46702	0.04268
905.18125	0.04258
903.89549	0.04243
902.60972	0.04224
901.32395	0.04198
900.03818	0.04168
898.75241	0.04140
897.46664	0.04117
896.18087	0.04096
894.89510	0.04072
893.60933	0.04046
892.32357	0.04026
891.03780	0.04014
889.75203	0.04009
888.46626	0.04004
887.18049	0.03993
885.89472	0.03976
884.60895	0.03958
883.32318	0.03942
882.03742	0.03928
880.75165	0.03909
879.46588	0.03885
878.18011	0.03865
876.89434	0.03859
875.60857	0.03867
874.32280	0.03875
873.03703	0.03872
871.75126	0.03859
870.46550	0.03843
869.17973	0.03829
867.89396	0.03810
866.60819	0.03784
865.32242	0.03756
864.03665	0.03738
862.75088	0.03736
861.46511	0.03743
860.17935	0.03748
858.89358	0.03746
857.60781	0.03736
856.32204	0.03725
855.03627	0.03714
853.75050	0.03706
852.46473	0.03703
851.17896	0.03706
849.89319	0.03713
848.60743	0.03720
847.32166	0.03718
846.03589	0.03709
844.75012	0.03699
843.46435	0.03693
842.17858	0.03689
840.89281	0.03684
839.60704	0.03674
838.32128	0.03663
837.03551	0.03655
835.74974	0.03653
834.46397	0.03655
833.17820	0.03658
831.89243	0.03660
830.60666	0.03662
829.32089	0.03662
828.03512	0.03662
826.74936	0.03660
825.46359	0.03661
824.17782	0.03667
822.89205	0.03677
821.60628	0.03688
820.32051	0.03696
819.03474	0.03702
817.74897	0.03705
816.46321	0.03704
815.17744	0.03699
813.89167	0.03695
812.60590	0.03703
811.32013	0.03726
810.03436	0.03760
808.74859	0.03795
807.46282	0.03828
806.17705	0.03855
804.89129	0.03877
803.60552	0.03894
802.31975	0.03906
801.03398	0.03915
799.74821	0.03926
798.46244	0.03938
797.17667	0.03951
795.89090	0.03962
794.60513	0.03973
793.31937	0.03983
792.03360	0.03995
790.74783	0.04007
789.46206	0.04020
788.17629	0.04035
786.89052	0.04053
785.60475	0.04070
784.31898	0.04078
783.03322	0.04077
781.74745	0.04075
780.46168	0.04081
779.17591	0.04095
777.89014	0.04111
776.60437	0.04125
775.31860	0.04138
774.03283	0.04149
772.74706	0.04158
771.46130	0.04164
770.17553	0.04170
768.88976	0.04179
767.60399	0.04193
766.31822	0.04210
765.03245	0.04230
763.74668	0.04257
762.46091	0.04289
761.17515	0.04322
759.88938	0.04347
758.60361	0.04358
757.31784	0.04354
756.03207	0.04343
754.74630	0.04334
753.46053	0.04332
752.17476	0.04337
750.88899	0.04349
749.60323	0.04371
748.31746	0.04404
747.03169	0.04444
745.74592	0.04484
744.46015	0.04516
743.17438	0.04538
741.88861	0.04545
740.60284	0.04538
739.31708	0.04524
738.03131	0.04512
736.74554	0.04511
735.45977	0.04523
734.17400	0.04541
732.88823	0.04557
731.60246	0.04569
730.31669	0.04583
729.03092	0.04605
727.74516	0.04633
726.45939	0.04666
725.17362	0.04699
723.88785	0.04723
722.60208	0.04750
721.31631	0.04771
720.03054	0.04782
718.74477	0.04788
717.45901	0.04797
716.17324	0.04805
714.88747	0.04808
713.60170	0.04805
712.31593	0.04803
711.03016	0.04809
709.74439	0.04823
708.45862	0.04843
707.17285	0.04868
705.88709	0.04896
704.60132	0.04926
703.31555	0.04953
702.02978	0.04976
700.74401	0.04994
699.45824	0.05009
698.17247	0.05022
696.88670	0.05034
695.60094	0.05046
694.31517	0.05055
693.02940	0.05058
691.74363	0.05052
690.45786	0.05041
689.17209	0.05036
687.88632	0.05041
686.60055	0.05057
685.31478	0.05076
684.02902	0.05090
682.74325	0.05097
681.45748	0.05104
680.17171	0.05119
678.88594	0.05139
677.60017	0.05155
676.31440	0.05162
675.02863	0.05162
673.74287	0.05163
672.45710	0.05169
671.17133	0.05183
669.88556	0.05203
668.59979	0.05229
667.31402	0.05259
666.02825	0.05281
664.74248	0.05296
663.45671	0.05306
662.17095	0.05313
660.88518	0.05320
659.59941	0.05328
658.31364	0.05338
657.02787	0.05350
655.74210	0.05367
654.45633	0.05387
653.17056	0.05410
651.88480	0.05432
650.59903	0.05450
649.31326	0.05461
648.02749	0.05465
646.74172	0.05461
645.45595	0.05456
644.17018	0.05455
642.88441	0.05460
641.59864	0.05464
640.31288	0.05462
639.02711	0.05452
637.74134	0.05441
636.45557	0.05435
635.16980	0.05435
633.88403	0.05440
632.59826	0.05447
631.31249	0.05443
630.02673	0.05391
628.74096	0.05304
627.45519	0.05301
626.16942	0.05174
624.88365	0.04958
623.59788	0.04753
622.31211	0.04626
621.02634	0.04622
619.74057	0.04740
618.45481	0.04960
617.16904	0.05230
615.88327	0.05448
614.59750	0.05503
613.31173	0.05373
612.02596	0.05161
610.74019	0.05015
609.45442	0.05007
608.16866	0.05098
606.88289	0.05204
605.59712	0.05279
604.31135	0.05321
603.02558	0.05347
601.73981	0.05380
600.45404	0.05436
599.16827	0.05508
597.88250	0.05578
596.59674	0.05637
595.31097	0.05681
594.02520	0.05707
592.73943	0.05708
591.45366	0.05691
590.16789	0.05674
588.88212	0.05676
587.59635	0.05695
586.31059	0.05715
585.02482	0.05722
583.73905	0.05717
582.45328	0.05709
581.16751	0.05708
579.88174	0.05713
578.59597	0.05720
577.31020	0.05726
576.02443	0.05734
574.73867	0.05743
573.45290	0.05747
572.16713	0.05742
570.88136	0.05732
569.59559	0.05730
568.30982	0.05745
567.02405	0.05773
565.73828	0.05802
564.45251	0.05820
563.16675	0.05823
561.88098	0.05811
560.59521	0.05790
559.30944	0.05769
558.02367	0.05755
556.73790	0.05752
555.45213	0.05756
554.16636	0.05762
552.88060	0.05768
551.59483	0.05772
550.30906	0.05778
549.02329	0.05790
547.73752	0.05805
546.45175	0.05818
545.16598	0.05822
543.88021	0.05818
542.59444	0.05813
541.30868	0.05813
540.02291	0.05813
538.73714	0.05813
537.45137	0.05814
536.16560	0.05820
534.87983	0.05832
533.59406	0.05843
532.30829	0.05842
531.02253	0.05829
529.73676	0.05813
528.45099	0.05811
527.16522	0.05824
525.87945	0.05839
524.59368	0.05839
523.30791	0.05825
522.02214	0.05806
520.73637	0.05794
519.45061	0.05787
518.16484	0.05778
516.87907	0.05761
515.59330	0.05740
514.30753	0.05719
513.02176	0.05702
511.73599	0.05691
510.45022	0.05689
509.16446	0.05692
507.87869	0.05691
506.59292	0.05679
505.30715	0.05656
504.02138	0.05629
502.73561	0.05600
501.44984	0.05569
500.16407	0.05537
498.87830	0.05512
497.59254	0.05496
496.30677	0.05482
495.02100	0.05467
493.73523	0.05451
492.44946	0.05437
491.16369	0.05423
489.87792	0.05407
488.59215	0.05387
487.30639	0.05369
486.02062	0.05355
484.73485	0.05349
483.44908	0.05351
482.16331	0.05360
480.87754	0.05374
479.59177	0.05392
478.30600	0.05410
477.02023	0.05424
475.73447	0.05433
474.44870	0.05431
473.16293	0.05411
471.87716	0.05375
470.59139	0.05335
469.30562	0.05308
468.01985	0.05305
466.73408	0.05318
465.44832	0.05328
464.16255	0.05319
462.87678	0.05294
461.59101	0.05263
460.30524	0.05240
459.01947	0.05225
457.73370	0.05211
456.44793	0.05192
455.16216	0.05170
453.87640	0.05145
452.59063	0.05121
451.30486	0.05098
450.01909	0.05076
448.73332	0.05055
447.44755	0.05034
446.16178	0.05013
444.87601	0.04996
443.59025	0.04984
442.30448	0.04976
441.01871	0.04968
439.73294	0.04955
438.44717	0.04937
437.16140	0.04919
435.87563	0.04908
434.58986	0.04905
433.30409	0.04911
432.01833	0.04920
430.73256	0.04930
429.44679	0.04936
428.16102	0.04936
426.87525	0.04925
425.58948	0.04903
424.30371	0.04872
423.01794	0.04843
421.73218	0.04820
420.44641	0.04805
419.16064	0.04797
417.87487	0.04791
416.58910	0.04783
415.30333	0.04771
414.01756	0.04753
412.73179	0.04732
411.44602	0.04712
410.16026	0.04687
408.87449	0.04656
407.58872	0.04621
406.30295	0.04591
405.01718	0.04571
403.73141	0.04565
402.44564	0.04569
401.15987	0.04582
399.87411	0.04600
