3997.45528	0.04820
3996.16951	0.04751
3994.88374	0.04673
3993.59798	0.04614
3992.31221	0.04608
3991.02644	0.04653
3989.74067	0.04714
3988.45490	0.04751
3987.16913	0.04755
3985.88336	0.04756
3984.59759	0.04779
3983.31183	0.04811
3982.02606	0.04809
3980.74029	0.04760
3979.45452	0.04703
3978.16875	0.04682
3976.88298	0.04692
3975.59721	0.04687
3974.31144	0.04633
3973.02567	0.04530
3971.73991	0.04411
3970.45414	0.04310
3969.16837	0.04251
3967.88260	0.04245
3966.59683	0.04286
3965.31106	0.04353
3964.02529	0.04416
3962.73952	0.04451
3961.45376	0.04458
3960.16799	0.04460
3958.88222	0.04476
3957.59645	0.04503
3956.31068	0.04527
3955.02491	0.04542
3953.73914	0.04549
3952.45337	0.04548
3951.16760	0.04544
3949.88184	0.04543
3948.59607	0.04550
3947.31030	0.04558
3946.02453	0.04551
3944.73876	0.04520
3943.45299	0.04474
3942.16722	0.04433
3940.88145	0.04413
3939.59569	0.04419
3938.30992	0.04439
3937.02415	0.04458
3935.73838	0.04458
3934.45261	0.04429
3933.16684	0.04376
3931.88107	0.04332
3930.59530	0.04341
3929.30953	0.04417
3928.02377	0.04519
3926.73800	0.04583
3925.45223	0.04565
3924.16646	0.04482
3922.88069	0.04388
3921.59492	0.04333
3920.30915	0.04331
3919.02338	0.04374
3917.73762	0.04433
3916.45185	0.04474
3915.16608	0.04479
3913.88031	0.04466
3912.59454	0.04466
3911.30877	0.04493
3910.02300	0.04533
3908.73723	0.04553
3907.45146	0.04534
3906.16570	0.04486
3904.87993	0.04442
3903.59416	0.04426
3902.30839	0.04437
3901.02262	0.04447
3899.73685	0.04427
3898.45108	0.04379
3897.16531	0.04332
3895.87955	0.04311
3894.59378	0.04313
3893.30801	0.04316
3892.02224	0.04305
3890.73647	0.04286
3889.45070	0.04289
3888.16493	0.04340
3886.87916	0.04425
3885.59339	0.04492
3884.30763	0.04523
3883.02186	0.04542
3881.73609	0.04570
3880.45032	0.04584
3879.16455	0.04559
3877.87878	0.04516
3876.59301	0.04491
3875.30724	0.04489
3874.02148	0.04492
3872.73571	0.04498
3871.44994	0.04520
3870.16417	0.04542
3868.87840	0.04539
3867.59263	0.04519
3866.30686	0.04509
3865.02109	0.04521
3863.73532	0.04536
3862.44956	0.04527
3861.16379	0.04463
3859.87802	0.04345
3858.59225	0.04223
3857.30648	0.04163
3856.02071	0.04191
3854.73494	0.04258
3853.44917	0.04289
3852.16341	0.04258
3850.87764	0.04205
3849.59187	0.04174
3848.30610	0.04177
3847.02033	0.04205
3845.73456	0.04242
3844.44879	0.04266
3843.16302	0.04266
3841.87725	0.04252
3840.59149	0.04252
3839.30572	0.04272
3838.01995	0.04292
3836.73418	0.04294
3835.44841	0.04292
3834.16264	0.04308
3832.87687	0.04333
3831.59110	0.04342
3830.30534	0.04326
3829.01957	0.04301
3827.73380	0.04286
3826.44803	0.04269
3825.16226	0.04223
3823.87649	0.04140
3822.59072	0.04038
3821.30495	0.03943
3820.01918	0.03886
3818.73342	0.03894
3817.44765	0.03954
3816.16188	0.03999
3814.87611	0.03982
3813.59034	0.03923
3812.30457	0.03872
3811.01880	0.03854
3809.73303	0.03881
3808.44726	0.03958
3807.16150	0.04056
3805.87573	0.04123
3804.58996	0.04140
3803.30419	0.04131
3802.01842	0.04125
3800.73265	0.04124
3799.44688	0.04127
3798.16111	0.04134
3796.87535	0.04124
3795.58958	0.04080
3794.30381	0.04010
3793.01804	0.03942
3791.73227	0.03901
3790.44650	0.03902
3789.16073	0.03943
3787.87496	0.03998
3786.58919	0.04031
3785.30343	0.04030
3784.01766	0.04023
3782.73189	0.04052
3781.44612	0.04130
3780.16035	0.04226
3778.87458	0.04282
3777.58881	0.04266
3776.30304	0.04191
3775.01728	0.04100
3773.73151	0.04038
3772.44574	0.04027
3771.15997	0.04049
3769.87420	0.04068
3768.58843	0.04068
3767.30266	0.04062
3766.01689	0.04056
3764.73112	0.04039
3763.44536	0.04014
3762.15959	0.04006
3760.87382	0.04025
3759.58805	0.04045
3758.30228	0.04049
3757.01651	0.04047
3755.73074	0.04066
3754.44497	0.04104
3753.15921	0.04120
3751.87344	0.04070
3750.58767	0.03961
3749.30190	0.03834
3748.01613	0.03745
3746.73036	0.03739
3745.44459	0.03801
3744.15882	0.03854
3742.87305	0.03843
3741.58729	0.03790
3740.30152	0.03743
3739.01575	0.03729
3737.72998	0.03755
3736.44421	0.03800
3735.15844	0.03843
3733.87267	0.03873
3732.58690	0.03886
3731.30114	0.03873
3730.01537	0.03851
3728.72960	0.03843
3727.44383	0.03854
3726.15806	0.03871
3724.87229	0.03899
3723.58652	0.03943
3722.30075	0.03991
3721.01498	0.04014
3719.72922	0.04000
3718.44345	0.03959
3717.15768	0.03912
3715.87191	0.03885
3714.58614	0.03894
3713.30037	0.03925
3712.01460	0.03948
3710.72883	0.03945
3709.44307	0.03926
3708.15730	0.03900
3706.87153	0.03865
3705.58576	0.03824
3704.29999	0.03796
3703.01422	0.03796
3701.72845	0.03815
3700.44268	0.03831
3699.15691	0.03829
3697.87115	0.03801
3696.58538	0.03754
3695.29961	0.03712
3694.01384	0.03701
3692.72807	0.03723
3691.44230	0.03754
3690.15653	0.03771
3688.87076	0.03765
3687.58500	0.03741
3686.29923	0.03717
3685.01346	0.03710
3683.72769	0.03715
3682.44192	0.03723
3681.15615	0.03731
3679.87038	0.03737
3678.58461	0.03748
3677.29884	0.03779
3676.01308	0.03829
3674.72731	0.03888
3673.44154	0.03955
3672.15577	0.04034
3670.87000	0.04092
3669.58423	0.04095
3668.29846	0.04058
3667.01269	0.04021
3665.72693	0.04006
3664.44116	0.04004
3663.15539	0.04003
3661.86962	0.04002
3660.58385	0.04005
3659.29808	0.04015
3658.01231	0.04034
3656.72654	0.04056
3655.44077	0.04065
3654.15501	0.04053
3652.86924	0.04036
3651.58347	0.04041
3650.29770	0.04086
3649.01193	0.04158
3647.72616	0.04234
3646.44039	0.04302
3645.15462	0.04360
3643.86886	0.04399
3642.58309	0.04411
3641.29732	0.04413
3640.01155	0.04445
3638.72578	0.04521
3637.44001	0.04612
3636.15424	0.04684
3634.86847	0.04722
3633.58270	0.04727
3632.29694	0.04715
3631.01117	0.04716
3629.72540	0.04758
3628.43963	0.04843
3627.15386	0.04950
3625.86809	0.05049
3624.58232	0.05113
3623.29655	0.05136
3622.01079	0.05141
3620.72502	0.05154
3619.43925	0.05178
3618.15348	0.05205
3616.86771	0.05225
3615.58194	0.05235
3614.29617	0.05239
3613.01040	0.05244
3611.72463	0.05261
3610.43887	0.05302
3609.15310	0.05374
3607.86733	0.05478
3606.58156	0.05603
3605.29579	0.05723
3604.01002	0.05816
3602.72425	0.05880
3601.43848	0.05925
3600.15272	0.05950
3598.86695	0.05939
3597.58118	0.05879
3596.29541	0.05787
3595.00964	0.05704
3593.72387	0.05668
3592.43810	0.05683
3591.15233	0.05730
3589.86656	0.05790
3588.58080	0.05862
3587.29503	0.05948
3586.00926	0.06037
3584.72349	0.06114
3583.43772	0.06180
3582.15195	0.06254
3580.86618	0.06347
3579.58041	0.06442
3578.29464	0.06516
3577.00888	0.06575
3575.72311	0.06648
3574.43734	0.06744
3573.15157	0.06832
3571.86580	0.06873
3570.58003	0.06870
3569.29426	0.06863
3568.00849	0.06885
3566.72273	0.06932
3565.43696	0.06976
3564.15119	0.07000
3562.86542	0.07012
3561.57965	0.07026
3560.29388	0.07046
3559.00811	0.07065
3557.72234	0.07082
3556.43657	0.07109
3555.15081	0.07158
3553.86504	0.07224
3552.57927	0.07290
3551.29350	0.07348
3550.00773	0.07397
3548.72196	0.07446
3547.43619	0.07499
3546.15042	0.07562
3544.86466	0.07637
3543.57889	0.07725
3542.29312	0.07819
3541.00735	0.07912
3539.72158	0.07988
3538.43581	0.08034
3537.15004	0.08049
3535.86427	0.08055
3534.57850	0.08078
3533.29274	0.08126
3532.00697	0.08193
3530.72120	0.08272
3529.43543	0.08356
3528.14966	0.08429
3526.86389	0.08470
3525.57812	0.08475
3524.29235	0.08460
3523.00659	0.08453
3521.72082	0.08470
3520.43505	0.08513
3519.14928	0.08569
3517.86351	0.08616
3516.57774	0.08643
3515.29197	0.08654
3514.00620	0.08665
3512.72043	0.08688
3511.43467	0.08729
3510.14890	0.08793
3508.86313	0.08872
3507.57736	0.08946
3506.29159	0.08990
3505.00582	0.09008
3503.72005	0.09021
3502.43428	0.09050
3501.14852	0.09091
3499.86275	0.09129
3498.57698	0.09158
3497.29121	0.09184
3496.00544	0.09219
3494.71967	0.09260
3493.43390	0.09292
3492.14813	0.09308
3490.86236	0.09325
3489.57660	0.09363
3488.29083	0.09415
3487.00506	0.09458
3485.71929	0.09474
3484.43352	0.09480
3483.14775	0.09507
3481.86198	0.09570
3480.57621	0.09657
3479.29045	0.09738
3478.00468	0.09793
3476.71891	0.09825
3475.43314	0.09847
3474.14737	0.09865
3472.86160	0.09876
3471.57583	0.09886
3470.29006	0.09918
3469.00429	0.09984
3467.71853	0.10077
3466.43276	0.10170
3465.14699	0.10243
3463.86122	0.10288
3462.57545	0.10310
3461.28968	0.10323
3460.00391	0.10340
3458.71814	0.10352
3457.43238	0.10338
3456.14661	0.10294
3454.86084	0.10245
3453.57507	0.10227
3452.28930	0.10258
3451.00353	0.10331
3449.71776	0.10420
3448.43199	0.10504
3447.14622	0.10568
3445.86046	0.10614
3444.57469	0.10653
3443.28892	0.10695
3442.00315	0.10742
3440.71738	0.10783
3439.43161	0.10802
3438.14584	0.10794
3436.86007	0.10773
3435.57431	0.10762
3434.28854	0.10777
3433.00277	0.10817
3431.71700	0.10869
3430.43123	0.10920
3429.14546	0.10962
3427.85969	0.10996
3426.57392	0.11026
3425.28815	0.11052
3424.00239	0.11078
3422.71662	0.11114
3421.43085	0.11175
3420.14508	0.11255
3418.85931	0.11324
3417.57354	0.11347
3416.28777	0.11328
3415.00200	0.11303
3413.71624	0.11313
3412.43047	0.11357
3411.14470	0.11409
3409.85893	0.11444
3408.57316	0.11465
3407.28739	0.11491
3406.00162	0.11533
3404.71585	0.11587
3403.43008	0.11635
3402.14432	0.11657
3400.85855	0.11649
3399.57278	0.11624
3398.28701	0.11610
3397.00124	0.11631
3395.71547	0.11692
3394.42970	0.11780
3393.14393	0.11866
3391.85817	0.11927
3390.57240	0.11951
3389.28663	0.11951
3388.00086	0.11958
3386.71509	0.11992
3385.42932	0.12054
3384.14355	0.12129
3382.85778	0.12195
3381.57201	0.12239
3380.28625	0.12258
3379.00048	0.12258
3377.71471	0.12248
3376.42894	0.12228
3375.14317	0.12207
3373.85740	0.12206
3372.57163	0.12247
3371.28586	0.12335
3370.00010	0.12453
3368.71433	0.12572
3367.42856	0.12671
3366.14279	0.12730
3364.85702	0.12744
3363.57125	0.12730
3362.28548	0.12717
3360.99971	0.12724
3359.71394	0.12747
3358.42818	0.12774
3357.14241	0.12805
3355.85664	0.12848
3354.57087	0.12906
3353.28510	0.12976
3351.99933	0.13061
3350.71356	0.13159
3349.42779	0.13260
3348.14202	0.13347
3346.85626	0.13411
3345.57049	0.13456
3344.28472	0.13483
3342.99895	0.13494
3341.71318	0.13495
3340.42741	0.13499
3339.14164	0.13512
3337.85587	0.13534
3336.57011	0.13565
3335.28434	0.13609
3333.99857	0.13664
3332.71280	0.13719
3331.42703	0.13760
3330.14126	0.13788
3328.85549	0.13814
3327.56972	0.13851
3326.28395	0.13903
3324.99819	0.13962
3323.71242	0.14022
3322.42665	0.14079
3321.14088	0.14128
3319.85511	0.14169
3318.56934	0.14207
3317.28357	0.14239
3315.99780	0.14257
3314.71204	0.14261
3313.42627	0.14272
3312.14050	0.14314
3310.85473	0.14392
3309.56896	0.14479
3308.28319	0.14549
3306.99742	0.14596
3305.71165	0.14630
3304.42588	0.14660
3303.14012	0.14678
3301.85435	0.14676
3300.56858	0.14657
3299.28281	0.14634
3297.99704	0.14623
3296.71127	0.14638
3295.42550	0.14689
3294.13973	0.14766
3292.85397	0.14833
3291.56820	0.14854
3290.28243	0.14824
3288.99666	0.14778
3287.71089	0.14765
3286.42512	0.14799
3285.13935	0.14855
3283.85358	0.14897
3282.56781	0.14918
3281.28205	0.14930
3279.99628	0.14940
3278.71051	0.14941
3277.42474	0.14924
3276.13897	0.14892
3274.85320	0.14858
3273.56743	0.14835
3272.28166	0.14830
3270.99590	0.14843
3269.71013	0.14859
3268.42436	0.14864
3267.13859	0.14848
3265.85282	0.14810
3264.56705	0.14759
3263.28128	0.14711
3261.99551	0.14676
3260.70974	0.14655
3259.42398	0.14648
3258.13821	0.14651
3256.85244	0.14650
3255.56667	0.14629
3254.28090	0.14585
3252.99513	0.14537
3251.70936	0.14499
3250.42359	0.14461
3249.13783	0.14403
3247.85206	0.14339
3246.56629	0.14298
3245.28052	0.14288
3243.99475	0.14283
3242.70898	0.14253
3241.42321	0.14194
3240.13744	0.14123
3238.85167	0.14057
3237.56591	0.14013
3236.28014	0.13996
3234.99437	0.14001
3233.70860	0.14014
3232.42283	0.14021
3231.13706	0.14020
3229.85129	0.14017
3228.56552	0.14013
3227.27976	0.13998
3225.99399	0.13965
3224.70822	0.13916
3223.42245	0.13865
3222.13668	0.13828
3220.85091	0.13805
3219.56514	0.13780
3218.27937	0.13737
3216.99360	0.13677
3215.70784	0.13616
3214.42207	0.13575
3213.13630	0.13565
3211.85053	0.13578
3210.56476	0.13599
3209.27899	0.13608
3207.99322	0.13598
3206.70745	0.13578
3205.42169	0.13569
3204.13592	0.13576
3202.85015	0.13584
3201.56438	0.13571
3200.27861	0.13537
3198.99284	0.13499
3197.70707	0.13470
3196.42130	0.13447
3195.13553	0.13412
3193.84977	0.13352
3192.56400	0.13274
3191.27823	0.13200
3189.99246	0.13150
3188.70669	0.13126
3187.42092	0.13112
3186.13515	0.13091
3184.84938	0.13055
3183.56362	0.13007
3182.27785	0.12962
3180.99208	0.12929
3179.70631	0.12907
3178.42054	0.12882
3177.13477	0.12844
3175.84900	0.12791
3174.56323	0.12733
3173.27746	0.12688
3171.99170	0.12662
3170.70593	0.12641
3169.42016	0.12607
3168.13439	0.12552
3166.84862	0.12485
3165.56285	0.12415
3164.27708	0.12349
3162.99131	0.12302
3161.70555	0.12282
3160.41978	0.12275
3159.13401	0.12250
3157.84824	0.12195
3156.56247	0.12130
3155.27670	0.12091
3153.99093	0.12086
3152.70516	0.12083
3151.41939	0.12048
3150.13363	0.11976
3148.84786	0.11898
3147.56209	0.11847
3146.27632	0.11828
3144.99055	0.11820
3143.70478	0.11805
3142.41901	0.11780
3141.13324	0.11750
3139.84748	0.11721
3138.56171	0.11694
3137.27594	0.11671
3135.99017	0.11649
3134.70440	0.11620
3133.41863	0.11579
3132.13286	0.11534
3130.84709	0.11497
3129.56132	0.11466
3128.27556	0.11431
3126.98979	0.11388
3125.70402	0.11345
3124.41825	0.11319
3123.13248	0.11318
3121.84671	0.11337
3120.56094	0.11365
3119.27517	0.11384
3117.98940	0.11383
3116.70364	0.11362
3115.41787	0.11333
3114.13210	0.11304
3112.84633	0.11276
3111.56056	0.11248
3110.27479	0.11223
3108.98902	0.11208
3107.70325	0.11201
3106.41749	0.11201
3105.13172	0.11205
3103.84595	0.11218
3102.56018	0.11241
3101.27441	0.11269
3099.98864	0.11294
3098.70287	0.11306
3097.41710	0.11302
3096.13133	0.11295
3094.84557	0.11304
3093.55980	0.11341
3092.27403	0.11388
3090.98826	0.11418
3089.70249	0.11422
3088.41672	0.11417
3087.13095	0.11424
3085.84518	0.11441
3084.55942	0.11452
3083.27365	0.11447
3081.98788	0.11427
3080.70211	0.11402
3079.41634	0.11384
3078.13057	0.11378
3076.84480	0.11385
3075.55903	0.11400
3074.27326	0.11418
3072.98750	0.11439
3071.70173	0.11463
3070.41596	0.11488
3069.13019	0.11510
3067.84442	0.11529
3066.55865	0.11544
3065.27288	0.11549
3063.98711	0.11540
3062.70135	0.11511
3061.41558	0.11463
3060.12981	0.11408
3058.84404	0.11369
3057.55827	0.11363
3056.27250	0.11380
3054.98673	0.11386
3053.70096	0.11360
3052.41519	0.11307
3051.12943	0.11246
3049.84366	0.11194
3048.55789	0.11156
3047.27212	0.11129
3045.98635	0.11105
3044.70058	0.11078
3043.41481	0.11046
3042.12904	0.11014
3040.84328	0.10981
3039.55751	0.10950
3038.27174	0.10919
3036.98597	0.10890
3035.70020	0.10867
3034.41443	0.10853
3033.12866	0.10847
3031.84289	0.10837
3030.55712	0.10808
3029.27136	0.10759
3027.98559	0.10704
3026.69982	0.10655
3025.41405	0.10618
3024.12828	0.10595
3022.84251	0.10586
3021.55674	0.10587
3020.27097	0.10579
3018.98521	0.10546
3017.69944	0.10490
3016.41367	0.10431
3015.12790	0.10389
3013.84213	0.10369
3012.55636	0.10363
3011.27059	0.10358
3009.98482	0.10341
3008.69905	0.10314
3007.41329	0.10287
3006.12752	0.10278
3004.84175	0.10289
3003.55598	0.10309
3002.27021	0.10326
3000.98444	0.10341
2999.69867	0.10358
2998.41290	0.10377
2997.12714	0.10385
2995.84137	0.10377
2994.55560	0.10361
2993.26983	0.10352
2991.98406	0.10362
2990.69829	0.10388
2989.41252	0.10417
2988.12675	0.10435
2986.84098	0.10441
2985.55522	0.10449
2984.26945	0.10473
2982.98368	0.10522
2981.69791	0.10591
2980.41214	0.10668
2979.12637	0.10732
2977.84060	0.10769
2976.55483	0.10784
2975.26907	0.10801
2973.98330	0.10844
2972.69753	0.10915
2971.41176	0.10991
2970.12599	0.11052
2968.84022	0.11088
2967.55445	0.11108
2966.26868	0.11129
2964.98291	0.11165
2963.69715	0.11217
2962.41138	0.11269
2961.12561	0.11304
2959.83984	0.11320
2958.55407	0.11326
2957.26830	0.11331
2955.98253	0.11332
2954.69676	0.11324
2953.41100	0.11306
2952.12523	0.11290
2950.83946	0.11283
2949.55369	0.11285
2948.26792	0.11288
2946.98215	0.11289
2945.69638	0.11292
2944.41061	0.11304
2943.12484	0.11334
2941.83908	0.11382
2940.55331	0.11446
2939.26754	0.11515
2937.98177	0.11579
2936.69600	0.11627
2935.41023	0.11657
2934.12446	0.11670
2932.83869	0.11678
2931.55293	0.11692
2930.26716	0.11714
2928.98139	0.11737
2927.69562	0.11753
2926.40985	0.11761
2925.12408	0.11761
2923.83831	0.11747
2922.55254	0.11715
2921.26677	0.11667
2919.98101	0.11617
2918.69524	0.11573
2917.40947	0.11525
2916.12370	0.11459
2914.83793	0.11366
2913.55216	0.11256
2912.26639	0.11151
2910.98062	0.11066
2909.69486	0.10999
2908.40909	0.10939
2907.12332	0.10881
2905.83755	0.10827
2904.55178	0.10780
2903.26601	0.10736
2901.98024	0.10692
2900.69447	0.10648
2899.40870	0.10607
2898.12294	0.10570
2896.83717	0.10539
2895.55140	0.10513
2894.26563	0.10483
2892.97986	0.10448
2891.69409	0.10415
2890.40832	0.10394
2889.12255	0.10385
2887.83678	0.10380
2886.55102	0.10369
2885.26525	0.10354
2883.97948	0.10338
2882.69371	0.10325
2881.40794	0.10317
2880.12217	0.10314
2878.83640	0.10321
2877.55063	0.10342
2876.26487	0.10373
2874.97910	0.10405
2873.69333	0.10429
2872.40756	0.10443
2871.12179	0.10442
2869.83602	0.10421
2868.55025	0.10377
2867.26448	0.10318
2865.97871	0.10262
2864.69295	0.10219
2863.40718	0.10186
2862.12141	0.10156
2860.83564	0.10133
2859.54987	0.10121
2858.26410	0.10118
2856.97833	0.10110
2855.69256	0.10087
2854.40680	0.10047
2853.12103	0.10003
2851.83526	0.09963
2850.54949	0.09932
2849.26372	0.09904
2847.97795	0.09869
2846.69218	0.09819
2845.40641	0.09755
2844.12064	0.09688
2842.83488	0.09625
2841.54911	0.09562
2840.26334	0.09494
2838.97757	0.09422
2837.69180	0.09355
2836.40603	0.09298
2835.12026	0.09250
2833.83449	0.09212
2832.54873	0.09187
2831.26296	0.09178
2829.97719	0.09173
2828.69142	0.09161
2827.40565	0.09136
2826.11988	0.09103
2824.83411	0.09071
2823.54834	0.09047
2822.26257	0.09031
2820.97681	0.09017
2819.69104	0.08999
2818.40527	0.08976
2817.11950	0.08949
2815.83373	0.08921
2814.54796	0.08896
2813.26219	0.08873
2811.97642	0.08853
2810.69066	0.08837
2809.40489	0.08829
2808.11912	0.08830
2806.83335	0.08833
2805.54758	0.08829
2804.26181	0.08806
2802.97604	0.08765
2801.69027	0.08717
2800.40450	0.08678
2799.11874	0.08660
2797.83297	0.08662
2796.54720	0.08667
2795.26143	0.08660
2793.97566	0.08639
2792.68989	0.08615
2791.40412	0.08593
2790.11835	0.08568
2788.83259	0.08539
2787.54682	0.08515
2786.26105	0.08507
2784.97528	0.08513
2783.68951	0.08513
2782.40374	0.08495
2781.11797	0.08464
2779.83220	0.08429
2778.54643	0.08395
2777.26067	0.08364
2775.97490	0.08341
2774.68913	0.08332
2773.40336	0.08328
2772.11759	0.08318
2770.83182	0.08295
2769.54605	0.08263
2768.26028	0.08227
2766.97452	0.08192
2765.68875	0.08164
2764.40298	0.08147
2763.11721	0.08142
2761.83144	0.08141
2760.54567	0.08136
2759.25990	0.08120
2757.97413	0.08091
2756.68836	0.08051
2755.40260	0.08012
2754.11683	0.07984
2752.83106	0.07968
2751.54529	0.07958
2750.25952	0.07953
2748.97375	0.07954
2747.68798	0.07960
2746.40221	0.07960
2745.11645	0.07940
2743.83068	0.07900
2742.54491	0.07849
2741.25914	0.07805
2739.97337	0.07777
2738.68760	0.07762
2737.40183	0.07750
2736.11606	0.07735
2734.83029	0.07720
2733.54453	0.07705
2732.25876	0.07692
2730.97299	0.07675
2729.68722	0.07655
2728.40145	0.07637
2727.11568	0.07630
2725.82991	0.07637
2724.54414	0.07649
2723.25838	0.07657
2721.97261	0.07654
2720.68684	0.07637
2719.40107	0.07601
2718.11530	0.07549
2716.82953	0.07493
2715.54376	0.07450
2714.25799	0.07427
2712.97222	0.07415
2711.68646	0.07405
2710.40069	0.07396
2709.11492	0.07387
2707.82915	0.07379
2706.54338	0.07366
2705.25761	0.07342
2703.97184	0.07312
2702.68607	0.07284
2701.40031	0.07265
2700.11454	0.07253
2698.82877	0.07239
2697.54300	0.07222
2696.25723	0.07206
2694.97146	0.07190
2693.68569	0.07166
2692.39992	0.07124
2691.11415	0.07075
2689.82839	0.07041
2688.54262	0.07032
2687.25685	0.07041
2685.97108	0.07050
2684.68531	0.07051
2683.39954	0.07044
2682.11377	0.07031
2680.82800	0.07009
2679.54224	0.06982
2678.25647	0.06959
2676.97070	0.06947
2675.68493	0.06942
2674.39916	0.06938
2673.11339	0.06934
2671.82762	0.06928
2670.54185	0.06919
2669.25608	0.06911
2667.97032	0.06906
2666.68455	0.06904
2665.39878	0.06895
2664.11301	0.06874
2662.82724	0.06844
2661.54147	0.06820
2660.25570	0.06812
2658.96993	0.06818
2657.68417	0.06826
2656.39840	0.06820
2655.11263	0.06797
2653.82686	0.06763
2652.54109	0.06725
2651.25532	0.06680
2649.96955	0.06630
2648.68378	0.06582
2647.39801	0.06547
2646.11225	0.06529
2644.82648	0.06520
2643.54071	0.06510
2642.25494	0.06493
2640.96917	0.06470
2639.68340	0.06441
2638.39763	0.06403
2637.11186	0.06356
2635.82609	0.06306
2634.54033	0.06266
2633.25456	0.06242
2631.96879	0.06230
2630.68302	0.06219
2629.39725	0.06200
2628.11148	0.06175
2626.82571	0.06154
2625.53994	0.06144
2624.25418	0.06140
2622.96841	0.06126
2621.68264	0.06099
2620.39687	0.06068
2619.11110	0.06046
2617.82533	0.06036
2616.53956	0.06036
2615.25379	0.06044
2613.96802	0.06052
2612.68226	0.06047
2611.39649	0.06016
2610.11072	0.05960
2608.82495	0.05892
2607.53918	0.05831
2606.25341	0.05784
2604.96764	0.05750
2603.68187	0.05727
2602.39611	0.05712
2601.11034	0.05705
2599.82457	0.05703
2598.53880	0.05708
2597.25303	0.05716
2595.96726	0.05720
2594.68149	0.05706
2593.39572	0.05666
2592.10995	0.05605
2590.82419	0.05553
2589.53842	0.05541
2588.25265	0.05576
2586.96688	0.05626
2585.68111	0.05654
2584.39534	0.05643
2583.10957	0.05604
2581.82380	0.05556
2580.53804	0.05514
2579.25227	0.05482
2577.96650	0.05460
2576.68073	0.05445
2575.39496	0.05441
2574.10919	0.05442
2572.82342	0.05436
2571.53765	0.05415
2570.25188	0.05384
2568.96612	0.05350
2567.68035	0.05320
2566.39458	0.05298
2565.10881	0.05285
2563.82304	0.05280
2562.53727	0.05278
2561.25150	0.05271
2559.96573	0.05250
2558.67997	0.05217
2557.39420	0.05188
2556.10843	0.05183
2554.82266	0.05203
2553.53689	0.05228
2552.25112	0.05241
2550.96535	0.05238
2549.67958	0.05231
2548.39381	0.05234
2547.10805	0.05250
2545.82228	0.05264
2544.53651	0.05267
2543.25074	0.05265
2541.96497	0.05275
2540.67920	0.05292
2539.39343	0.05295
2538.10766	0.05274
2536.82190	0.05245
2535.53613	0.05225
2534.25036	0.05213
2532.96459	0.05195
2531.67882	0.05165
2530.39305	0.05134
2529.10728	0.05115
2527.82151	0.05111
2526.53574	0.05122
2525.24998	0.05143
2523.96421	0.05168
2522.67844	0.05188
2521.39267	0.05192
2520.10690	0.05174
2518.82113	0.05147
2517.53536	0.05130
2516.24959	0.05138
2514.96383	0.05167
2513.67806	0.05190
2512.39229	0.05191
2511.10652	0.05172
2509.82075	0.05154
2508.53498	0.05151
2507.24921	0.05164
2505.96344	0.05178
2504.67767	0.05179
2503.39191	0.05168
2502.10614	0.05162
2500.82037	0.05175
2499.53460	0.05195
2498.24883	0.05196
2496.96306	0.05166
2495.67729	0.05118
2494.39152	0.05075
2493.10576	0.05056
2491.81999	0.05063
2490.53422	0.05090
2489.24845	0.05120
2487.96268	0.05134
2486.67691	0.05119
2485.39114	0.05075
2484.10537	0.05014
2482.81960	0.04958
2481.53384	0.04923
2480.24807	0.04916
2478.96230	0.04930
2477.67653	0.04953
2476.39076	0.04976
2475.10499	0.05000
2473.81922	0.05026
2472.53345	0.05053
2471.24769	0.05070
2469.96192	0.05069
2468.67615	0.05061
2467.39038	0.05063
2466.10461	0.05080
2464.81884	0.05098
2463.53307	0.05102
2462.24730	0.05091
2460.96153	0.05078
2459.67577	0.05077
2458.39000	0.05090
2457.10423	0.05106
2455.81846	0.05113
2454.53269	0.05102
2453.24692	0.05080
2451.96115	0.05060
2450.67538	0.05044
2449.38962	0.05029
2448.10385	0.05012
2446.81808	0.04996
2445.53231	0.04985
2444.24654	0.04977
2442.96077	0.04969
2441.67500	0.04966
2440.38923	0.04971
2439.10346	0.04977
2437.81770	0.04978
2436.53193	0.04980
2435.24616	0.04989
2433.96039	0.05004
2432.67462	0.05015
2431.38885	0.05018
2430.10308	0.05017
2428.81731	0.05017
2427.53155	0.05019
2426.24578	0.05027
2424.96001	0.05040
2423.67424	0.05057
2422.38847	0.05069
2421.10270	0.05070
2419.81693	0.05063
2418.53116	0.05056
2417.24539	0.05050
2415.95963	0.05041
2414.67386	0.05033
2413.38809	0.05038
2412.10232	0.05057
2410.81655	0.05070
2409.53078	0.05059
2408.24501	0.05029
2406.95924	0.05003
2405.67347	0.04993
2404.38771	0.04991
2403.10194	0.04986
2401.81617	0.04980
2400.53040	0.04986
2399.24463	0.04996
2397.95886	0.05007
2396.67309	0.05012
2395.38732	0.05011
2394.10156	0.05010
2392.81579	0.05014
2391.53002	0.05021
2390.24425	0.05032
2388.95848	0.05044
2387.67271	0.05050
2386.38694	0.05041
2385.10117	0.05024
2383.81540	0.05019
2382.52964	0.05044
2381.24387	0.05088
2379.95810	0.05129
2378.67233	0.05137
2377.38656	0.05120
2376.10079	0.05105
2374.81502	0.05101
2373.52925	0.05083
2372.24349	0.05052
2370.95772	0.05023
2369.67195	0.05000
2368.38618	0.04994
2367.10041	0.05009
2365.81464	0.05041
2364.52887	0.05074
2363.24310	0.05098
2361.95733	0.05108
2360.67157	0.05107
2359.38580	0.05105
2358.10003	0.05107
2356.81426	0.05122
2355.52849	0.05158
2354.24272	0.05204
2352.95695	0.05235
2351.67118	0.05222
2350.38542	0.05188
2349.09965	0.05166
2347.81388	0.05150
2346.52811	0.05137
2345.24234	0.05142
2343.95657	0.05166
2342.67080	0.05202
2341.38503	0.05178
2340.09926	0.05116
2338.81350	0.05086
2337.52773	0.05090
2336.24196	0.05076
2334.95619	0.05066
2333.67042	0.05067
2332.38465	0.05073
2331.09888	0.05024
2329.81311	0.05011
2328.52735	0.05032
2327.24158	0.05053
2325.95581	0.05096
2324.67004	0.05140
2323.38427	0.05176
2322.09850	0.05154
2320.81273	0.05091
2319.52696	0.05011
2318.24119	0.04935
2316.95543	0.04872
2315.66966	0.04833
2314.38389	0.04817
2313.09812	0.04805
2311.81235	0.04786
2310.52658	0.04760
2309.24081	0.04723
2307.95504	0.04681
2306.66928	0.04648
2305.38351	0.04627
2304.09774	0.04613
2302.81197	0.04596
2301.52620	0.04573
2300.24043	0.04551
2298.95466	0.04537
2297.66889	0.04533
2296.38312	0.04537
2295.09736	0.04543
2293.81159	0.04541
2292.52582	0.04512
2291.24005	0.04447
2289.95428	0.04360
2288.66851	0.04284
2287.38274	0.04254
2286.09697	0.04278
2284.81121	0.04326
2283.52544	0.04349
2282.23967	0.04319
2280.95390	0.04249
2279.66813	0.04182
2278.38236	0.04143
2277.09659	0.04120
2275.81082	0.04084
2274.52505	0.04025
2273.23929	0.03969
2271.95352	0.03955
2270.66775	0.03998
2269.38198	0.04069
2268.09621	0.04113
2266.81044	0.04085
2265.52467	0.03983
2264.23890	0.03843
2262.95314	0.03714
2261.66737	0.03631
2260.38160	0.03605
2259.09583	0.03612
2257.81006	0.03608
2256.52429	0.03568
2255.23852	0.03502
2253.95275	0.03448
2252.66698	0.03429
2251.38122	0.03427
2250.09545	0.03421
2248.80968	0.03409
2247.52391	0.03382
2246.23814	0.03373
2244.95237	0.03368
2243.66660	0.03349
2242.38083	0.03339
2241.09507	0.03370
2239.80930	0.03436
2238.52353	0.03478
2237.23776	0.03457
2235.95199	0.03398
2234.66622	0.03361
2233.38045	0.03374
2232.09468	0.03411
2230.80891	0.03425
2229.52315	0.03380
2228.23738	0.03275
2226.95161	0.03134
2225.66584	0.03009
2224.38007	0.02942
2223.09430	0.02944
2221.80853	0.02984
2220.52276	0.03022
2219.23700	0.03044
2217.95123	0.03062
2216.66546	0.03084
2215.37969	0.03100
2214.09392	0.03101
2212.80815	0.03093
2211.52238	0.03066
2210.23661	0.02994
2208.95084	0.02879
2207.66508	0.02792
2206.37931	0.02797
2205.09354	0.02874
2203.80777	0.02941
2202.52200	0.02961
2201.23623	0.02955
2199.95046	0.02937
2198.66469	0.02881
2197.37893	0.02783
2196.09316	0.02694
2194.80739	0.02671
2193.52162	0.02718
2192.23585	0.02784
2190.95008	0.02808
2189.66431	0.02766
2188.37854	0.02685
2187.09277	0.02612
2185.80701	0.02563
2184.52124	0.02505
2183.23547	0.02416
2181.94970	0.02327
2180.66393	0.02285
2179.37816	0.02290
2178.09239	0.02293
2176.80662	0.02257
2175.52085	0.02196
2174.23509	0.02145
2172.94932	0.02133
2171.66355	0.02175
2170.37778	0.02261
2169.09201	0.02342
2167.80624	0.02352
2166.52047	0.02277
2165.23470	0.02174
2163.94894	0.02098
2162.66317	0.02034
2161.37740	0.01937
2160.09163	0.01811
2158.80586	0.01724
2157.52009	0.01731
2156.23432	0.01821
2154.94855	0.01937
2153.66278	0.02032
2152.37702	0.02095
2151.09125	0.02153
2149.80548	0.02235
2148.51971	0.02329
2147.23394	0.02373
2145.94817	0.02316
2144.66240	0.02182
2143.37663	0.02066
2142.09087	0.02054
2140.80510	0.02152
2139.51933	0.02288
2138.23356	0.02394
2136.94779	0.02459
2135.66202	0.02510
2134.37625	0.02558
2133.09048	0.02595
2131.80471	0.02620
2130.51895	0.02657
2129.23318	0.02721
2127.94741	0.02797
2126.66164	0.02857
2125.37587	0.02877
2124.09010	0.02855
2122.80433	0.02801
2121.51856	0.02736
2120.23280	0.02686
2118.94703	0.02669
2117.66126	0.02695
2116.37549	0.02761
2115.08972	0.02842
2113.80395	0.02900
2112.51818	0.02904
2111.23241	0.02858
2109.94664	0.02796
2108.66088	0.02756
2107.37511	0.02756
2106.08934	0.02773
2104.80357	0.02770
2103.51780	0.02749
2102.23203	0.02752
2100.94626	0.02800
2099.66049	0.02828
2098.37473	0.02827
2097.08896	0.02797
2095.80319	0.02764
2094.51742	0.02752
2093.23165	0.02758
2091.94588	0.02762
2090.66011	0.02750
2089.37434	0.02717
2088.08857	0.02666
2086.80281	0.02599
2085.51704	0.02526
2084.23127	0.02465
2082.94550	0.02438
2081.65973	0.02456
2080.37396	0.02503
2079.08819	0.02544
2077.80242	0.02554
2076.51666	0.02527
2075.23089	0.02476
2073.94512	0.02425
2072.65935	0.02390
2071.37358	0.02376
2070.08781	0.02379
2068.80204	0.02388
2067.51627	0.02385
2066.23050	0.02360
2064.94474	0.02316
2063.65897	0.02274
2062.37320	0.02254
2061.08743	0.02262
2059.80166	0.02285
2058.51589	0.02302
2057.23012	0.02296
2055.94435	0.02269
2054.65859	0.02243
2053.37282	0.02243
2052.08705	0.02269
2050.80128	0.02298
2049.51551	0.02295
2048.22974	0.02232
2046.94397	0.02108
2045.65820	0.01960
2044.37243	0.01848
2043.08667	0.01796
2041.80090	0.01770
2040.51513	0.01717
2039.22936	0.01630
2037.94359	0.01556
2036.65782	0.01535
2035.37205	0.01565
2034.08628	0.01615
2032.80052	0.01662
2031.51475	0.01695
2030.22898	0.01702
2028.94321	0.01674
2027.65744	0.01607
2026.37167	0.01506
2025.08590	0.01389
2023.80013	0.01297
2022.51436	0.01283
2021.22860	0.01358
2019.94283	0.01470
2018.65706	0.01540
2017.37129	0.01531
2016.08552	0.01469
2014.79975	0.01417
2013.51398	0.01425
2012.22821	0.01499
2010.94245	0.01600
2009.65668	0.01671
2008.37091	0.01687
2007.08514	0.01680
2005.79937	0.01697
2004.51360	0.01746
2003.22783	0.01805
2001.94206	0.01856
2000.65629	0.01903
1999.37053	0.01942
1998.08476	0.01965
1996.79899	0.01968
1995.51322	0.01968
1994.22745	0.01974
1992.94168	0.01984
1991.65591	0.01985
1990.37014	0.01966
1989.08438	0.01924
1987.79861	0.01868
1986.51284	0.01817
1985.22707	0.01790
1983.94130	0.01789
1982.65553	0.01800
1981.36976	0.01803
1980.08399	0.01791
1978.79822	0.01769
1977.51246	0.01737
1976.22669	0.01685
1974.94092	0.01608
1973.65515	0.01514
1972.36938	0.01429
1971.08361	0.01390
1969.79784	0.01414
1968.51207	0.01488
1967.22631	0.01572
1965.94054	0.01641
1964.65477	0.01698
1963.36900	0.01755
1962.08323	0.01809
1960.79746	0.01848
1959.51169	0.01865
1958.22592	0.01868
1956.94015	0.01872
1955.65439	0.01893
1954.36862	0.01935
1953.08285	0.01988
1951.79708	0.02031
1950.51131	0.02044
1949.22554	0.02026
1947.93977	0.02000
1946.65400	0.01992
1945.36823	0.02018
1944.08247	0.02072
1942.79670	0.02132
1941.51093	0.02179
1940.22516	0.02199
1938.93939	0.02192
1937.65362	0.02172
1936.36785	0.02155
1935.08208	0.02143
1933.79632	0.02128
1932.51055	0.02104
1931.22478	0.02081
1929.93901	0.02067
1928.65324	0.02068
1927.36747	0.02081
1926.08170	0.02107
1924.79593	0.02135
1923.51016	0.02154
1922.22440	0.02158
1920.93863	0.02154
1919.65286	0.02160
1918.36709	0.02183
1917.08132	0.02218
1915.79555	0.02258
1914.50978	0.02295
1913.22401	0.02327
1911.93825	0.02358
1910.65248	0.02389
1909.36671	0.02414
1908.08094	0.02424
1906.79517	0.02420
1905.50940	0.02411
1904.22363	0.02404
1902.93786	0.02394
1901.65209	0.02377
1900.36633	0.02356
1899.08056	0.02338
1897.79479	0.02330
1896.50902	0.02332
1895.22325	0.02336
1893.93748	0.02340
1892.65171	0.02347
1891.36594	0.02362
1890.08018	0.02382
1888.79441	0.02396
1887.50864	0.02398
1886.22287	0.02391
1884.93710	0.02388
1883.65133	0.02402
1882.36556	0.02434
1881.07979	0.02464
1879.79402	0.02474
1878.50826	0.02464
1877.22249	0.02449
1875.93672	0.02444
1874.65095	0.02449
1873.36518	0.02461
1872.07941	0.02476
1870.79364	0.02487
1869.50787	0.02486
1868.22211	0.02473
1866.93634	0.02460
1865.65057	0.02456
1864.36480	0.02459
1863.07903	0.02463
1861.79326	0.02467
1860.50749	0.02476
1859.22172	0.02490
1857.93595	0.02503
1856.65019	0.02511
1855.36442	0.02509
1854.07865	0.02501
1852.79288	0.02493
1851.50711	0.02489
1850.22134	0.02494
1848.93557	0.02506
1847.64980	0.02523
1846.36404	0.02540
1845.07827	0.02557
1843.79250	0.02571
1842.50673	0.02574
1841.22096	0.02568
1839.93519	0.02555
1838.64942	0.02543
1837.36365	0.02534
1836.07788	0.02527
1834.79212	0.02522
1833.50635	0.02526
1832.22058	0.02546
1830.93481	0.02574
1829.64904	0.02587
1828.36327	0.02580
1827.07750	0.02564
1825.79173	0.02557
1824.50597	0.02558
1823.22020	0.02559
1821.93443	0.02556
1820.64866	0.02553
1819.36289	0.02553
1818.07712	0.02559
1816.79135	0.02573
1815.50558	0.02594
1814.21981	0.02618
1812.93405	0.02637
1811.64828	0.02650
1810.36251	0.02657
1809.07674	0.02662
1807.79097	0.02667
1806.50520	0.02673
1805.21943	0.02676
1803.93366	0.02673
1802.64790	0.02662
1801.36213	0.02647
1800.07636	0.02634
1798.79059	0.02633
1797.50482	0.02643
1796.21905	0.02661
1794.93328	0.02683
1793.64751	0.02706
1792.36174	0.02723
1791.07598	0.02729
1789.79021	0.02725
1788.50444	0.02718
1787.21867	0.02716
1785.93290	0.02718
1784.64713	0.02721
1783.36136	0.02719
1782.07559	0.02716
1780.78983	0.02714
1779.50406	0.02713
1778.21829	0.02709
1776.93252	0.02702
1775.64675	0.02695
1774.36098	0.02696
1773.07521	0.02705
1771.78944	0.02716
1770.50367	0.02728
1769.21791	0.02740
1767.93214	0.02744
1766.64637	0.02738
1765.36060	0.02736
1764.07483	0.02751
1762.78906	0.02781
1761.50329	0.02808
1760.21752	0.02822
1758.93176	0.02830
1757.64599	0.02837
1756.36022	0.02843
1755.07445	0.02845
1753.78868	0.02852
1752.50291	0.02867
1751.21714	0.02892
1749.93137	0.02923
1748.64560	0.02960
1747.35984	0.02999
1746.07407	0.03030
1744.78830	0.03051
1743.50253	0.03069
1742.21676	0.03096
1740.93099	0.03135
1739.64522	0.03176
1738.35945	0.03207
1737.07369	0.03231
1735.78792	0.03260
1734.50215	0.03289
1733.21638	0.03313
1731.93061	0.03334
1730.64484	0.03368
1729.35907	0.03414
1728.07330	0.03457
1726.78753	0.03490
1725.50177	0.03512
1724.21600	0.03531
1722.93023	0.03553
1721.64446	0.03580
1720.35869	0.03619
1719.07292	0.03671
1717.78715	0.03727
1716.50138	0.03781
1715.21561	0.03834
1713.92985	0.03891
1712.64408	0.03959
1711.35831	0.04040
1710.07254	0.04137
1708.78677	0.04249
1707.50100	0.04375
1706.21523	0.04508
1704.92946	0.04641
1703.64370	0.04780
1702.35793	0.04942
1701.07216	0.05129
1699.78639	0.05329
1698.50062	0.05543
1697.21485	0.05779
1695.92908	0.06025
1694.64331	0.06259
1693.35754	0.06479
1692.07178	0.06699
1690.78601	0.06922
1689.50024	0.07142
1688.21447	0.07362
1686.92870	0.07594
1685.64293	0.07843
1684.35716	0.08093
1683.07139	0.08332
1681.78563	0.08572
1680.49986	0.08825
1679.21409	0.09094
1677.92832	0.09373
1676.64255	0.09661
1675.35678	0.09949
1674.07101	0.10235
1672.78524	0.10522
1671.49947	0.10820
1670.21371	0.11123
1668.92794	0.11421
1667.64217	0.11706
1666.35640	0.11984
1665.07063	0.12263
1663.78486	0.12543
1662.49909	0.12817
1661.21332	0.13079
1659.92756	0.13327
1658.64179	0.13559
1657.35602	0.13772
1656.07025	0.13974
1654.78448	0.14173
1653.49871	0.14360
1652.21294	0.14516
1650.92717	0.14643
1649.64140	0.14760
1648.35564	0.14875
1647.06987	0.14977
1645.78410	0.15058
1644.49833	0.15123
1643.21256	0.15184
1641.92679	0.15243
1640.64102	0.15294
1639.35525	0.15331
1638.06949	0.15358
1636.78372	0.15377
1635.49795	0.15380
1634.21218	0.15362
1632.92641	0.15327
1631.64064	0.15274
1630.35487	0.15196
1629.06910	0.15082
1627.78333	0.14930
1626.49757	0.14746
1625.21180	0.14541
1623.92603	0.14324
1622.64026	0.14090
1621.35449	0.13836
1620.06872	0.13568
1618.78295	0.13295
1617.49718	0.13015
1616.21142	0.12721
1614.92565	0.12416
1613.63988	0.12115
1612.35411	0.11824
1611.06834	0.11540
1609.78257	0.11263
1608.49680	0.10996
1607.21103	0.10742
1605.92526	0.10506
1604.63950	0.10287
1603.35373	0.10079
1602.06796	0.09878
1600.78219	0.09685
1599.49642	0.09505
1598.21065	0.09344
1596.92488	0.09201
1595.63911	0.09072
1594.35335	0.08956
1593.06758	0.08852
1591.78181	0.08763
1590.49604	0.08691
1589.21027	0.08635
1587.92450	0.08597
1586.63873	0.08571
1585.35296	0.08553
1584.06719	0.08542
1582.78143	0.08536
1581.49566	0.08540
1580.20989	0.08556
1578.92412	0.08593
1577.63835	0.08657
1576.35258	0.08738
1575.06681	0.08825
1573.78104	0.08916
1572.49528	0.09021
1571.20951	0.09138
1569.92374	0.09261
1568.63797	0.09386
1567.35220	0.09517
1566.06643	0.09661
1564.78066	0.09815
1563.49489	0.09970
1562.20912	0.10127
1560.92336	0.10292
1559.63759	0.10458
1558.35182	0.10614
1557.06605	0.10762
1555.78028	0.10913
1554.49451	0.11066
1553.20874	0.11211
1551.92297	0.11345
1550.63721	0.11469
1549.35144	0.11583
1548.06567	0.11685
1546.77990	0.11777
1545.49413	0.11863
1544.20836	0.11939
1542.92259	0.12008
1541.63682	0.12068
1540.35105	0.12115
1539.06529	0.12143
1537.77952	0.12153
1536.49375	0.12161
1535.20798	0.12174
1533.92221	0.12182
1532.63644	0.12172
1531.35067	0.12144
1530.06490	0.12111
1528.77914	0.12080
1527.49337	0.12051
1526.20760	0.12016
1524.92183	0.11973
1523.63606	0.11927
1522.35029	0.11882
1521.06452	0.11830
1519.77875	0.11766
1518.49298	0.11696
1517.20722	0.11623
1515.92145	0.11540
1514.63568	0.11440
1513.34991	0.11320
1512.06414	0.11178
1510.77837	0.11017
1509.49260	0.10847
1508.20683	0.10678
1506.92107	0.10507
1505.63530	0.10322
1504.34953	0.10126
1503.06376	0.09929
1501.77799	0.09737
1500.49222	0.09547
1499.20645	0.09357
1497.92068	0.09169
1496.63491	0.08977
1495.34915	0.08781
1494.06338	0.08584
1492.77761	0.08394
1491.49184	0.08212
1490.20607	0.08039
1488.92030	0.07875
1487.63453	0.07722
1486.34876	0.07582
1485.06299	0.07454
1483.77723	0.07345
1482.49146	0.07260
1481.20569	0.07201
1479.91992	0.07167
1478.63415	0.07153
1477.34838	0.07158
1476.06261	0.07181
1474.77684	0.07222
1473.49108	0.07281
1472.20531	0.07356
1470.91954	0.07438
1469.63377	0.07526
1468.34800	0.07613
1467.06223	0.07695
1465.77646	0.07769
1464.49069	0.07838
1463.20492	0.07907
1461.91916	0.07980
1460.63339	0.08059
1459.34762	0.08145
1458.06185	0.08233
1456.77608	0.08314
1455.49031	0.08381
1454.20454	0.08436
1452.91877	0.08480
1451.63301	0.08510
1450.34724	0.08526
1449.06147	0.08530
1447.77570	0.08526
1446.48993	0.08512
1445.20416	0.08488
1443.91839	0.08455
1442.63262	0.08418
1441.34685	0.08378
1440.06109	0.08337
1438.77532	0.08294
1437.48955	0.08245
1436.20378	0.08183
1434.91801	0.08107
1433.63224	0.08029
1432.34647	0.07955
1431.06070	0.07888
1429.77494	0.07828
1428.48917	0.07778
1427.20340	0.07741
1425.91763	0.07719
1424.63186	0.07707
1423.34609	0.07698
1422.06032	0.07691
1420.77455	0.07687
1419.48878	0.07683
1418.20302	0.07676
1416.91725	0.07664
1415.63148	0.07653
1414.34571	0.07644
1413.05994	0.07639
1411.77417	0.07641
1410.48840	0.07648
1409.20263	0.07660
1407.91687	0.07672
1406.63110	0.07679
1405.34533	0.07682
1404.05956	0.07680
1402.77379	0.07677
1401.48802	0.07673
1400.20225	0.07670
1398.91648	0.07663
1397.63071	0.07651
1396.34495	0.07636
1395.05918	0.07619
1393.77341	0.07601
1392.48764	0.07582
1391.20187	0.07566
1389.91610	0.07554
1388.63033	0.07541
1387.34456	0.07521
1386.05880	0.07492
1384.77303	0.07461
1383.48726	0.07435
1382.20149	0.07415
1380.91572	0.07397
1379.62995	0.07373
1378.34418	0.07339
1377.05841	0.07299
1375.77264	0.07255
1374.48688	0.07206
1373.20111	0.07155
1371.91534	0.07103
1370.62957	0.07053
1369.34380	0.07005
1368.05803	0.06951
1366.77226	0.06893
1365.48649	0.06834
1364.20073	0.06778
1362.91496	0.06727
1361.62919	0.06679
1360.34342	0.06635
1359.05765	0.06601
1357.77188	0.06578
1356.48611	0.06566
1355.20034	0.06561
1353.91457	0.06562
1352.62881	0.06574
1351.34304	0.06597
1350.05727	0.06628
1348.77150	0.06660
1347.48573	0.06689
1346.19996	0.06716
1344.91419	0.06747
1343.62842	0.06783
1342.34266	0.06825
1341.05689	0.06866
1339.77112	0.06902
1338.48535	0.06929
1337.19958	0.06946
1335.91381	0.06952
1334.62804	0.06949
1333.34227	0.06937
1332.05650	0.06918
1330.77074	0.06897
1329.48497	0.06875
1328.19920	0.06855
1326.91343	0.06836
1325.62766	0.06819
1324.34189	0.06807
1323.05612	0.06803
1321.77035	0.06806
1320.48459	0.06815
1319.19882	0.06826
1317.91305	0.06837
1316.62728	0.06844
1315.34151	0.06844
1314.05574	0.06839
1312.76997	0.06833
1311.48420	0.06828
1310.19843	0.06823
1308.91267	0.06814
1307.62690	0.06802
1306.34113	0.06786
1305.05536	0.06770
1303.76959	0.06759
1302.48382	0.06756
1301.19805	0.06763
1299.91228	0.06774
1298.62652	0.06783
1297.34075	0.06787
1296.05498	0.06789
1294.76921	0.06797
1293.48344	0.06813
1292.19767	0.06838
1290.91190	0.06871
1289.62613	0.06909
1288.34036	0.06952
1287.05460	0.06996
1285.76883	0.07038
1284.48306	0.07076
1283.19729	0.07106
1281.91152	0.07131
1280.62575	0.07156
1279.33998	0.07184
1278.05421	0.07212
1276.76845	0.07240
1275.48268	0.07268
1274.19691	0.07298
1272.91114	0.07327
1271.62537	0.07355
1270.33960	0.07382
1269.05383	0.07413
1267.76806	0.07450
1266.48229	0.07492
1265.19653	0.07536
1263.91076	0.07582
1262.62499	0.07630
1261.33922	0.07677
1260.05345	0.07724
1258.76768	0.07772
1257.48191	0.07827
1256.19614	0.07891
1254.91037	0.07959
1253.62461	0.08025
1252.33884	0.08087
1251.05307	0.08146
1249.76730	0.08208
1248.48153	0.08273
1247.19576	0.08344
1245.90999	0.08417
1244.62422	0.08489
1243.33846	0.08558
1242.05269	0.08619
1240.76692	0.08672
1239.48115	0.08720
1238.19538	0.08764
1236.90961	0.08804
1235.62384	0.08834
1234.33807	0.08851
1233.05230	0.08854
1231.76654	0.08843
1230.48077	0.08821
1229.19500	0.08791
1227.90923	0.08757
1226.62346	0.08721
1225.33769	0.08683
1224.05192	0.08639
1222.76615	0.08586
1221.48039	0.08527
1220.19462	0.08467
1218.90885	0.08414
1217.62308	0.08375
1216.33731	0.08348
1215.05154	0.08326
1213.76577	0.08302
1212.48000	0.08277
1211.19423	0.08256
1209.90847	0.08244
1208.62270	0.08242
1207.33693	0.08247
1206.05116	0.08252
1204.76539	0.08251
1203.47962	0.08243
1202.19385	0.08227
1200.90808	0.08211
1199.62232	0.08195
1198.33655	0.08171
1197.05078	0.08139
1195.76501	0.08101
1194.47924	0.08065
1193.19347	0.08035
1191.90770	0.08012
1190.62193	0.07995
1189.33616	0.07981
1188.05040	0.07968
1186.76463	0.07955
1185.47886	0.07943
1184.19309	0.07937
1182.90732	0.07941
1181.62155	0.07954
1180.33578	0.07975
1179.05001	0.08002
1177.76425	0.08032
1176.47848	0.08063
1175.19271	0.08095
1173.90694	0.08132
1172.62117	0.08174
1171.33540	0.08222
1170.04963	0.08272
1168.76386	0.08326
1167.47809	0.08381
1166.19233	0.08435
1164.90656	0.08484
1163.62079	0.08528
1162.33502	0.08572
1161.04925	0.08621
1159.76348	0.08671
1158.47771	0.08718
1157.19194	0.08756
1155.90618	0.08782
1154.62041	0.08798
1153.33464	0.08805
1152.04887	0.08811
1150.76310	0.08819
1149.47733	0.08830
1148.19156	0.08842
1146.90579	0.08855
1145.62002	0.08868
1144.33426	0.08879
1143.04849	0.08889
1141.76272	0.08899
1140.47695	0.08907
1139.19118	0.08919
1137.90541	0.08938
1136.61964	0.08966
1135.33387	0.08999
1134.04811	0.09033
1132.76234	0.09071
1131.47657	0.09119
1130.19080	0.09172
1128.90503	0.09223
1127.61926	0.09271
1126.33349	0.09321
1125.04772	0.09378
1123.76195	0.09444
1122.47619	0.09511
1121.19042	0.09572
1119.90465	0.09625
1118.61888	0.09673
1117.33311	0.09726
1116.04734	0.09787
1114.76157	0.09855
1113.47580	0.09929
1112.19004	0.10006
1110.90427	0.10085
1109.61850	0.10162
1108.33273	0.10230
1107.04696	0.10289
1105.76119	0.10343
1104.47542	0.10395
1103.18965	0.10446
1101.90388	0.10499
1100.61812	0.10555
1099.33235	0.10611
1098.04658	0.10660
1096.76081	0.10702
1095.47504	0.10740
1094.18927	0.10778
1092.90350	0.10816
1091.61773	0.10850
1090.33197	0.10877
1089.04620	0.10901
1087.76043	0.10929
1086.47466	0.10967
1085.18889	0.11018
1083.90312	0.11076
1082.61735	0.11135
1081.33158	0.11188
1080.04581	0.11235
1078.76005	0.11275
1077.47428	0.11308
1076.18851	0.11332
1074.90274	0.11347
1073.61697	0.11355
1072.33120	0.11360
1071.04543	0.11362
1069.75966	0.11360
1068.47390	0.11352
1067.18813	0.11343
1065.90236	0.11335
1064.61659	0.11328
1063.33082	0.11325
1062.04505	0.11327
1060.75928	0.11332
1059.47351	0.11331
1058.18774	0.11322
1056.90198	0.11309
1055.61621	0.11298
1054.33044	0.11289
1053.04467	0.11279
1051.75890	0.11265
1050.47313	0.11247
1049.18736	0.11228
1047.90159	0.11211
1046.61583	0.11199
1045.33006	0.11194
1044.04429	0.11194
1042.75852	0.11199
1041.47275	0.11209
1040.18698	0.11226
1038.90121	0.11250
1037.61544	0.11280
1036.32967	0.11315
1035.04391	0.11354
1033.75814	0.11393
1032.47237	0.11423
1031.18660	0.11437
1029.90083	0.11427
1028.61506	0.11392
1027.32929	0.11339
1026.04352	0.11277
1024.75775	0.11212
1023.47199	0.11137
1022.18622	0.11044
1020.90045	0.10930
1019.61468	0.10800
1018.32891	0.10663
1017.04314	0.10524
1015.75737	0.10388
1014.47160	0.10253
1013.18584	0.10116
1011.90007	0.09976
1010.61430	0.09832
1009.32853	0.09694
1008.04276	0.09570
1006.75699	0.09462
1005.47122	0.09361
1004.18545	0.09262
1002.89968	0.09164
1001.61392	0.09071
1000.32815	0.08989
999.04238	0.08919
997.75661	0.08855
996.47084	0.08792
995.18507	0.08729
993.89930	0.08669
992.61353	0.08617
991.32777	0.08576
990.04200	0.08545
988.75623	0.08524
987.47046	0.08506
986.18469	0.08485
984.89892	0.08465
983.61315	0.08453
982.32738	0.08451
981.04161	0.08451
979.75585	0.08448
978.47008	0.08444
977.18431	0.08443
975.89854	0.08445
974.61277	0.08446
973.32700	0.08445
972.04123	0.08446
970.75546	0.08458
969.46970	0.08484
968.18393	0.08520
966.89816	0.08554
965.61239	0.08578
964.32662	0.08585
963.04085	0.08574
961.75508	0.08552
960.46931	0.08527
959.18354	0.08501
957.89778	0.08469
956.61201	0.08427
955.32624	0.08379
954.04047	0.08328
952.75470	0.08276
951.46893	0.08222
950.18316	0.08163
948.89739	0.08103
947.61163	0.08048
946.32586	0.07996
945.04009	0.07945
943.75432	0.07884
942.46855	0.07814
941.18278	0.07742
939.89701	0.07679
938.61124	0.07626
937.32547	0.07572
936.03971	0.07504
934.75394	0.07418
933.46817	0.07321
932.18240	0.07225
930.89663	0.07137
929.61086	0.07062
928.32509	0.06994
927.03932	0.06929
925.75356	0.06862
924.46779	0.06792
923.18202	0.06724
921.89625	0.06662
920.61048	0.06607
919.32471	0.06553
918.03894	0.06495
916.75317	0.06431
915.46740	0.06367
914.18164	0.06309
912.89587	0.06257
911.61010	0.06211
910.32433	0.06170
909.03856	0.06137
907.75279	0.06112
906.46702	0.06094
905.18125	0.06079
903.89549	0.06064
902.60972	0.06045
901.32395	0.06023
900.03818	0.06004
898.75241	0.05994
897.46664	0.05996
896.18087	0.06010
894.89510	0.06026
893.60933	0.06035
892.32357	0.06034
891.03780	0.06029
889.75203	0.06025
888.46626	0.06023
887.18049	0.06021
885.89472	0.06019
884.60895	0.06019
883.32318	0.06017
882.03742	0.06007
880.75165	0.05992
879.46588	0.05980
878.18011	0.05977
876.89434	0.05977
875.60857	0.05974
874.32280	0.05964
873.03703	0.05947
871.75126	0.05922
870.46550	0.05887
869.17973	0.05844
867.89396	0.05797
866.60819	0.05750
865.32242	0.05712
864.03665	0.05692
862.75088	0.05685
861.46511	0.05680
860.17935	0.05659
858.89358	0.05619
857.60781	0.05570
856.32204	0.05522
855.03627	0.05485
853.75050	0.05460
852.46473	0.05447
851.17896	0.05438
849.89319	0.05422
848.60743	0.05392
847.32166	0.05348
846.03589	0.05298
844.75012	0.05251
843.46435	0.05207
842.17858	0.05172
840.89281	0.05146
839.60704	0.05130
838.32128	0.05115
837.03551	0.05096
835.74974	0.05071
834.46397	0.05047
833.17820	0.05027
831.89243	0.05012
830.60666	0.04994
829.32089	0.04969
828.03512	0.04940
826.74936	0.04916
825.46359	0.04903
824.17782	0.04897
822.89205	0.04893
821.60628	0.04886
820.32051	0.04882
819.03474	0.04881
817.74897	0.04874
816.46321	0.04855
815.17744	0.04831
813.89167	0.04816
812.60590	0.04820
811.32013	0.04838
810.03436	0.04858
808.74859	0.04869
807.46282	0.04867
806.17705	0.04858
804.89129	0.04846
803.60552	0.04834
802.31975	0.04825
801.03398	0.04820
799.74821	0.04820
798.46244	0.04819
797.17667	0.04817
795.89090	0.04815
794.60513	0.04815
793.31937	0.04815
792.03360	0.04811
790.74783	0.04804
789.46206	0.04798
788.17629	0.04796
786.89052	0.04804
785.60475	0.04821
784.31898	0.04839
783.03322	0.04855
781.74745	0.04865
780.46168	0.04872
779.17591	0.04874
777.89014	0.04866
776.60437	0.04849
775.31860	0.04829
774.03283	0.04816
772.74706	0.04817
771.46130	0.04834
770.17553	0.04858
768.88976	0.04877
767.60399	0.04889
766.31822	0.04898
765.03245	0.04909
763.74668	0.04924
762.46091	0.04941
761.17515	0.04958
759.88938	0.04972
758.60361	0.04981
757.31784	0.04990
756.03207	0.05006
754.74630	0.05028
753.46053	0.05050
752.17476	0.05064
750.88899	0.05068
749.60323	0.05066
748.31746	0.05062
747.03169	0.05062
745.74592	0.05072
744.46015	0.05088
743.17438	0.05102
741.88861	0.05103
740.60284	0.05094
739.31708	0.05082
738.03131	0.05076
736.74554	0.05077
735.45977	0.05085
734.17400	0.05095
732.88823	0.05106
731.60246	0.05121
730.31669	0.05136
729.03092	0.05152
727.74516	0.05169
726.45939	0.05190
725.17362	0.05215
723.88785	0.05239
722.60208	0.05272
721.31631	0.05302
720.03054	0.05318
718.74477	0.05317
717.45901	0.05309
716.17324	0.05303
714.88747	0.05305
713.60170	0.05313
712.31593	0.05323
711.03016	0.05338
709.74439	0.05361
708.45862	0.05392
707.17285	0.05425
705.88709	0.05453
704.60132	0.05473
703.31555	0.05485
702.02978	0.05493
700.74401	0.05500
699.45824	0.05507
698.17247	0.05514
696.88670	0.05518
695.60094	0.05517
694.31517	0.05512
693.02940	0.05507
691.74363	0.05507
690.45786	0.05512
689.17209	0.05520
687.88632	0.05528
686.60055	0.05534
685.31478	0.05540
684.02902	0.05549
682.74325	0.05559
681.45748	0.05567
680.17171	0.05568
678.88594	0.05566
677.60017	0.05570
676.31440	0.05582
675.02863	0.05603
673.74287	0.05625
672.45710	0.05643
671.17133	0.05653
669.88556	0.05659
668.59979	0.05666
667.31402	0.05678
666.02825	0.05688
664.74248	0.05694
663.45671	0.05695
662.17095	0.05690
660.88518	0.05683
659.59941	0.05677
658.31364	0.05677
657.02787	0.05682
655.74210	0.05690
654.45633	0.05695
653.17056	0.05697
651.88480	0.05698
650.59903	0.05698
649.31326	0.05695
648.02749	0.05688
646.74172	0.05680
645.45595	0.05674
644.17018	0.05674
642.88441	0.05678
641.59864	0.05679
640.31288	0.05673
639.02711	0.05660
637.74134	0.05645
636.45557	0.05633
635.16980	0.05626
633.88403	0.05628
632.59826	0.05641
631.31249	0.05657
630.02673	0.05655
628.74096	0.05628
627.45519	0.05617
626.16942	0.05529
624.88365	0.05399
623.59788	0.05317
622.31211	0.05345
621.02634	0.05484
619.74057	0.05663
618.45481	0.05805
617.16904	0.05850
615.88327	0.05782
614.59750	0.05650
613.31173	0.05565
612.02596	0.05638
610.74019	0.05896
609.45442	0.06226
608.16866	0.06455
606.88289	0.06508
605.59712	0.06461
604.31135	0.06431
603.02558	0.06454
601.73981	0.06482
600.45404	0.06467
599.16827	0.06414
597.88250	0.06358
596.59674	0.06327
595.31097	0.06326
594.02520	0.06346
592.73943	0.06377
591.45366	0.06408
590.16789	0.06431
588.88212	0.06448
587.59635	0.06463
586.31059	0.06483
585.02482	0.06508
583.73905	0.06539
582.45328	0.06584
581.16751	0.06647
579.88174	0.06723
578.59597	0.06798
577.31020	0.06858
576.02443	0.06904
574.73867	0.06944
573.45290	0.06983
572.16713	0.07019
570.88136	0.07054
569.59559	0.07100
568.30982	0.07164
567.02405	0.07246
565.73828	0.07329
564.45251	0.07394
563.16675	0.07435
561.88098	0.07454
560.59521	0.07458
559.30944	0.07447
558.02367	0.07414
556.73790	0.07363
555.45213	0.07310
554.16636	0.07274
552.88060	0.07268
551.59483	0.07284
550.30906	0.07305
549.02329	0.07320
547.73752	0.07329
546.45175	0.07331
545.16598	0.07330
543.88021	0.07330
542.59444	0.07337
541.30868	0.07354
540.02291	0.07378
538.73714	0.07404
537.45137	0.07432
536.16560	0.07457
534.87983	0.07477
533.59406	0.07494
532.30829	0.07512
531.02253	0.07536
529.73676	0.07561
528.45099	0.07580
527.16522	0.07591
525.87945	0.07600
524.59368	0.07615
523.30791	0.07634
522.02214	0.07644
520.73637	0.07630
519.45061	0.07598
518.16484	0.07563
516.87907	0.07542
515.59330	0.07537
514.30753	0.07540
513.02176	0.07545
511.73599	0.07548
510.45022	0.07545
509.16446	0.07527
507.87869	0.07488
506.59292	0.07430
505.30715	0.07366
504.02138	0.07306
502.73561	0.07256
501.44984	0.07209
500.16407	0.07157
498.87830	0.07097
497.59254	0.07034
496.30677	0.06977
495.02100	0.06927
493.73523	0.06878
492.44946	0.06822
491.16369	0.06755
489.87792	0.06678
488.59215	0.06599
487.30639	0.06526
486.02062	0.06463
484.73485	0.06409
483.44908	0.06355
482.16331	0.06295
480.87754	0.06231
479.59177	0.06166
478.30600	0.06107
477.02023	0.06051
475.73447	0.06000
474.44870	0.05955
473.16293	0.05918
471.87716	0.05883
470.59139	0.05849
469.30562	0.05819
468.01985	0.05794
466.73408	0.05772
465.44832	0.05742
464.16255	0.05699
462.87678	0.05649
461.59101	0.05601
460.30524	0.05560
459.01947	0.05526
457.73370	0.05496
456.44793	0.05469
455.16216	0.05448
453.87640	0.05432
452.59063	0.05412
451.30486	0.05382
450.01909	0.05344
448.73332	0.05306
447.44755	0.05275
446.16178	0.05252
444.87601	0.05236
443.59025	0.05221
442.30448	0.05205
441.01871	0.05186
439.73294	0.05162
438.44717	0.05136
437.16140	0.05114
435.87563	0.05099
434.58986	0.05091
433.30409	0.05083
432.01833	0.05073
430.73256	0.05059
429.44679	0.05045
428.16102	0.05030
426.87525	0.05014
425.58948	0.04993
424.30371	0.04969
423.01794	0.04946
421.73218	0.04932
420.44641	0.04926
419.16064	0.04920
417.87487	0.04904
416.58910	0.04880
415.30333	0.04857
414.01756	0.04839
412.73179	0.04824
411.44602	0.04807
410.16026	0.04786
408.87449	0.04765
407.58872	0.04742
406.30295	0.04717
405.01718	0.04689
403.73141	0.04659
402.44564	0.04632
401.15987	0.04606
399.87411	0.04581
