3997.45528	0.07102
3996.16951	0.07068
3994.88374	0.07032
3993.59798	0.07019
3992.31221	0.07029
3991.02644	0.07027
3989.74067	0.06988
3988.45490	0.06932
3987.16913	0.06904
3985.88336	0.06916
3984.59759	0.06934
3983.31183	0.06925
3982.02606	0.06890
3980.74029	0.06847
3979.45452	0.06807
3978.16875	0.06776
3976.88298	0.06761
3975.59721	0.06765
3974.31144	0.06773
3973.02567	0.06770
3971.73991	0.06754
3970.45414	0.06739
3969.16837	0.06743
3967.88260	0.06771
3966.59683	0.06804
3965.31106	0.06813
3964.02529	0.06782
3962.73952	0.06730
3961.45376	0.06694
3960.16799	0.06693
3958.88222	0.06715
3957.59645	0.06735
3956.31068	0.06735
3955.02491	0.06710
3953.73914	0.06674
3952.45337	0.06649
3951.16760	0.06643
3949.88184	0.06644
3948.59607	0.06632
3947.31030	0.06606
3946.02453	0.06584
3944.73876	0.06576
3943.45299	0.06579
3942.16722	0.06588
3940.88145	0.06607
3939.59569	0.06650
3938.30992	0.06716
3937.02415	0.06780
3935.73838	0.06798
3934.45261	0.06754
3933.16684	0.06675
3931.88107	0.06613
3930.59530	0.06587
3929.30953	0.06575
3928.02377	0.06551
3926.73800	0.06519
3925.45223	0.06515
3924.16646	0.06562
3922.88069	0.06636
3921.59492	0.06694
3920.30915	0.06712
3919.02338	0.06686
3917.73762	0.06626
3916.45185	0.06554
3915.16608	0.06494
3913.88031	0.06460
3912.59454	0.06460
3911.30877	0.06492
3910.02300	0.06535
3908.73723	0.06553
3907.45146	0.06518
3906.16570	0.06444
3904.87993	0.06381
3903.59416	0.06366
3902.30839	0.06388
3901.02262	0.06408
3899.73685	0.06408
3898.45108	0.06396
3897.16531	0.06376
3895.87955	0.06356
3894.59378	0.06351
3893.30801	0.06365
3892.02224	0.06390
3890.73647	0.06423
3889.45070	0.06452
3888.16493	0.06443
3886.87916	0.06395
3885.59339	0.06358
3884.30763	0.06375
3883.02186	0.06440
3881.73609	0.06515
3880.45032	0.06572
3879.16455	0.06579
3877.87878	0.06508
3876.59301	0.06384
3875.30724	0.06282
3874.02148	0.06255
3872.73571	0.06274
3871.44994	0.06287
3870.16417	0.06307
3868.87840	0.06362
3867.59263	0.06404
3866.30686	0.06369
3865.02109	0.06283
3863.73532	0.06224
3862.44956	0.06233
3861.16379	0.06288
3859.87802	0.06347
3858.59225	0.06378
3857.30648	0.06361
3856.02071	0.06297
3854.73494	0.06230
3853.44917	0.06230
3852.16341	0.06305
3850.87764	0.06380
3849.59187	0.06395
3848.30610	0.06351
3847.02033	0.06286
3845.73456	0.06236
3844.44879	0.06222
3843.16302	0.06246
3841.87725	0.06286
3840.59149	0.06309
3839.30572	0.06299
3838.01995	0.06269
3836.73418	0.06234
3835.44841	0.06185
3834.16264	0.06126
3832.87687	0.06094
3831.59110	0.06113
3830.30534	0.06156
3829.01957	0.06173
3827.73380	0.06153
3826.44803	0.06141
3825.16226	0.06186
3823.87649	0.06278
3822.59072	0.06375
3821.30495	0.06447
3820.01918	0.06464
3818.73342	0.06384
3817.44765	0.06221
3816.16188	0.06080
3814.87611	0.06043
3813.59034	0.06071
3812.30457	0.06101
3811.01880	0.06116
3809.73303	0.06103
3808.44726	0.06046
3807.16150	0.05990
3805.87573	0.05993
3804.58996	0.06040
3803.30419	0.06072
3802.01842	0.06089
3800.73265	0.06126
3799.44688	0.06157
3798.16111	0.06126
3796.87535	0.06053
3795.58958	0.06004
3794.30381	0.06005
3793.01804	0.06040
3791.73227	0.06084
3790.44650	0.06116
3789.16073	0.06118
3787.87496	0.06088
3786.58919	0.06036
3785.30343	0.05976
3784.01766	0.05919
3782.73189	0.05873
3781.44612	0.05846
3780.16035	0.05848
3778.87458	0.05866
3777.58881	0.05875
3776.30304	0.05862
3775.01728	0.05853
3773.73151	0.05865
3772.44574	0.05879
3771.15997	0.05875
3769.87420	0.05878
3768.58843	0.05908
3767.30266	0.05949
3766.01689	0.05977
3764.73112	0.05987
3763.44536	0.05971
3762.15959	0.05917
3760.87382	0.05845
3759.58805	0.05803
3758.30228	0.05814
3757.01651	0.05869
3755.73074	0.05929
3754.44497	0.05949
3753.15921	0.05913
3751.87344	0.05849
3750.58767	0.05799
3749.30190	0.05804
3748.01613	0.05856
3746.73036	0.05879
3745.44459	0.05845
3744.15882	0.05833
3742.87305	0.05872
3741.58729	0.05890
3740.30152	0.05845
3739.01575	0.05777
3737.72998	0.05727
3736.44421	0.05700
3735.15844	0.05681
3733.87267	0.05652
3732.58690	0.05640
3731.30114	0.05695
3730.01537	0.05803
3728.72960	0.05892
3727.44383	0.05920
3726.15806	0.05905
3724.87229	0.05870
3723.58652	0.05818
3722.30075	0.05752
3721.01498	0.05683
3719.72922	0.05615
3718.44345	0.05549
3717.15768	0.05487
3715.87191	0.05429
3714.58614	0.05372
3713.30037	0.05330
3712.01460	0.05325
3710.72883	0.05359
3709.44307	0.05404
3708.15730	0.05433
3706.87153	0.05446
3705.58576	0.05459
3704.29999	0.05477
3703.01422	0.05492
3701.72845	0.05495
3700.44268	0.05484
3699.15691	0.05472
3697.87115	0.05481
3696.58538	0.05532
3695.29961	0.05605
3694.01384	0.05644
3692.72807	0.05609
3691.44230	0.05515
3690.15653	0.05424
3688.87076	0.05401
3687.58500	0.05454
3686.29923	0.05509
3685.01346	0.05504
3683.72769	0.05465
3682.44192	0.05448
3681.15615	0.05465
3679.87038	0.05496
3678.58461	0.05518
3677.29884	0.05522
3676.01308	0.05550
3674.72731	0.05637
3673.44154	0.05734
3672.15577	0.05765
3670.87000	0.05745
3669.58423	0.05750
3668.29846	0.05782
3667.01269	0.05776
3665.72693	0.05706
3664.44116	0.05612
3663.15539	0.05547
3661.86962	0.05530
3660.58385	0.05542
3659.29808	0.05541
3658.01231	0.05501
3656.72654	0.05450
3655.44077	0.05448
3654.15501	0.05512
3652.86924	0.05604
3651.58347	0.05685
3650.29770	0.05745
3649.01193	0.05788
3647.72616	0.05818
3646.44039	0.05841
3645.15462	0.05867
3643.86886	0.05899
3642.58309	0.05929
3641.29732	0.05936
3640.01155	0.05909
3638.72578	0.05860
3637.44001	0.05819
3636.15424	0.05810
3634.86847	0.05841
3633.58270	0.05895
3632.29694	0.05924
3631.01117	0.05899
3629.72540	0.05866
3628.43963	0.05907
3627.15386	0.06026
3625.86809	0.06144
3624.58232	0.06207
3623.29655	0.06220
3622.01079	0.06199
3620.72502	0.06152
3619.43925	0.06098
3618.15348	0.06058
3616.86771	0.06037
3615.58194	0.06036
3614.29617	0.06074
3613.01040	0.06169
3611.72463	0.06295
3610.43887	0.06399
3609.15310	0.06464
3607.86733	0.06520
3606.58156	0.06589
3605.29579	0.06663
3604.01002	0.06721
3602.72425	0.06758
3601.43848	0.06780
3600.15272	0.06799
3598.86695	0.06834
3597.58118	0.06896
3596.29541	0.06979
3595.00964	0.07057
3593.72387	0.07103
3592.43810	0.07112
3591.15233	0.07104
3589.86656	0.07101
3588.58080	0.07118
3587.29503	0.07147
3586.00926	0.07169
3584.72349	0.07177
3583.43772	0.07192
3582.15195	0.07244
3580.86618	0.07343
3579.58041	0.07466
3578.29464	0.07570
3577.00888	0.07632
3575.72311	0.07649
3574.43734	0.07644
3573.15157	0.07653
3571.86580	0.07700
3570.58003	0.07773
3569.29426	0.07830
3568.00849	0.07847
3566.72273	0.07847
3565.43696	0.07869
3564.15119	0.07915
3562.86542	0.07952
3561.57965	0.07956
3560.29388	0.07945
3559.00811	0.07965
3557.72234	0.08038
3556.43657	0.08136
3555.15081	0.08205
3553.86504	0.08223
3552.57927	0.08217
3551.29350	0.08235
3550.00773	0.08291
3548.72196	0.08359
3547.43619	0.08408
3546.15042	0.08431
3544.86466	0.08448
3543.57889	0.08478
3542.29312	0.08522
3541.00735	0.08569
3539.72158	0.08616
3538.43581	0.08673
3537.15004	0.08752
3535.86427	0.08850
3534.57850	0.08945
3533.29274	0.09017
3532.00697	0.09062
3530.72120	0.09099
3529.43543	0.09149
3528.14966	0.09212
3526.86389	0.09266
3525.57812	0.09294
3524.29235	0.09312
3523.00659	0.09351
3521.72082	0.09413
3520.43505	0.09472
3519.14928	0.09507
3517.86351	0.09531
3516.57774	0.09563
3515.29197	0.09605
3514.00620	0.09639
3512.72043	0.09654
3511.43467	0.09650
3510.14890	0.09632
3508.86313	0.09621
3507.57736	0.09639
3506.29159	0.09698
3505.00582	0.09786
3503.72005	0.09877
3502.43428	0.09949
3501.14852	0.09998
3499.86275	0.10029
3498.57698	0.10051
3497.29121	0.10074
3496.00544	0.10104
3494.71967	0.10139
3493.43390	0.10171
3492.14813	0.10200
3490.86236	0.10232
3489.57660	0.10275
3488.29083	0.10320
3487.00506	0.10356
3485.71929	0.10388
3484.43352	0.10438
3483.14775	0.10521
3481.86198	0.10614
3480.57621	0.10674
3479.29045	0.10676
3478.00468	0.10641
3476.71891	0.10613
3475.43314	0.10620
3474.14737	0.10662
3472.86160	0.10727
3471.57583	0.10803
3470.29006	0.10880
3469.00429	0.10947
3467.71853	0.11002
3466.43276	0.11051
3465.14699	0.11095
3463.86122	0.11126
3462.57545	0.11136
3461.28968	0.11129
3460.00391	0.11122
3458.71814	0.11135
3457.43238	0.11184
3456.14661	0.11260
3454.86084	0.11328
3453.57507	0.11362
3452.28930	0.11367
3451.00353	0.11379
3449.71776	0.11427
3448.43199	0.11507
3447.14622	0.11591
3445.86046	0.11648
3444.57469	0.11669
3443.28892	0.11670
3442.00315	0.11679
3440.71738	0.11708
3439.43161	0.11743
3438.14584	0.11766
3436.86007	0.11780
3435.57431	0.11805
3434.28854	0.11846
3433.00277	0.11888
3431.71700	0.11913
3430.43123	0.11928
3429.14546	0.11956
3427.85969	0.12014
3426.57392	0.12086
3425.28815	0.12140
3424.00239	0.12162
3422.71662	0.12172
3421.43085	0.12204
3420.14508	0.12268
3418.85931	0.12339
3417.57354	0.12389
3416.28777	0.12418
3415.00200	0.12450
3413.71624	0.12498
3412.43047	0.12554
3411.14470	0.12607
3409.85893	0.12658
3408.57316	0.12709
3407.28739	0.12753
3406.00162	0.12796
3404.71585	0.12851
3403.43008	0.12923
3402.14432	0.12983
3400.85855	0.13002
3399.57278	0.12988
3398.28701	0.12974
3397.00124	0.12992
3395.71547	0.13044
3394.42970	0.13109
3393.14393	0.13162
3391.85817	0.13190
3390.57240	0.13195
3389.28663	0.13190
3388.00086	0.13195
3386.71509	0.13228
3385.42932	0.13293
3384.14355	0.13375
3382.85778	0.13458
3381.57201	0.13538
3380.28625	0.13618
3379.00048	0.13697
3377.71471	0.13770
3376.42894	0.13831
3375.14317	0.13876
3373.85740	0.13911
3372.57163	0.13947
3371.28586	0.13992
3370.00010	0.14045
3368.71433	0.14106
3367.42856	0.14190
3366.14279	0.14306
3364.85702	0.14435
3363.57125	0.14535
3362.28548	0.14586
3360.99971	0.14607
3359.71394	0.14640
3358.42818	0.14700
3357.14241	0.14778
3355.85664	0.14862
3354.57087	0.14952
3353.28510	0.15045
3351.99933	0.15127
3350.71356	0.15188
3349.42779	0.15238
3348.14202	0.15296
3346.85626	0.15360
3345.57049	0.15411
3344.28472	0.15437
3342.99895	0.15455
3341.71318	0.15496
3340.42741	0.15572
3339.14164	0.15671
3337.85587	0.15765
3336.57011	0.15838
3335.28434	0.15898
3333.99857	0.15962
3332.71280	0.16035
3331.42703	0.16105
3330.14126	0.16160
3328.85549	0.16203
3327.56972	0.16251
3326.28395	0.16317
3324.99819	0.16391
3323.71242	0.16456
3322.42665	0.16511
3321.14088	0.16573
3319.85511	0.16653
3318.56934	0.16735
3317.28357	0.16793
3315.99780	0.16819
3314.71204	0.16828
3313.42627	0.16840
3312.14050	0.16866
3310.85473	0.16914
3309.56896	0.16988
3308.28319	0.17082
3306.99742	0.17178
3305.71165	0.17253
3304.42588	0.17292
3303.14012	0.17298
3301.85435	0.17290
3300.56858	0.17293
3299.28281	0.17317
3297.99704	0.17352
3296.71127	0.17380
3295.42550	0.17403
3294.13973	0.17436
3292.85397	0.17490
3291.56820	0.17555
3290.28243	0.17606
3288.99666	0.17628
3287.71089	0.17626
3286.42512	0.17616
3285.13935	0.17605
3283.85358	0.17593
3282.56781	0.17580
3281.28205	0.17568
3279.99628	0.17562
3278.71051	0.17558
3277.42474	0.17556
3276.13897	0.17556
3274.85320	0.17558
3273.56743	0.17553
3272.28166	0.17530
3270.99590	0.17490
3269.71013	0.17444
3268.42436	0.17400
3267.13859	0.17351
3265.85282	0.17290
3264.56705	0.17224
3263.28128	0.17172
3261.99551	0.17148
3260.70974	0.17142
3259.42398	0.17127
3258.13821	0.17079
3256.85244	0.16996
3255.56667	0.16900
3254.28090	0.16814
3252.99513	0.16752
3251.70936	0.16714
3250.42359	0.16692
3249.13783	0.16674
3247.85206	0.16646
3246.56629	0.16597
3245.28052	0.16525
3243.99475	0.16441
3242.70898	0.16363
3241.42321	0.16302
3240.13744	0.16263
3238.85167	0.16241
3237.56591	0.16223
3236.28014	0.16192
3234.99437	0.16135
3233.70860	0.16059
3232.42283	0.15982
3231.13706	0.15915
3229.85129	0.15854
3228.56552	0.15794
3227.27976	0.15727
3225.99399	0.15656
3224.70822	0.15595
3223.42245	0.15567
3222.13668	0.15578
3220.85091	0.15602
3219.56514	0.15606
3218.27937	0.15580
3216.99360	0.15543
3215.70784	0.15512
3214.42207	0.15495
3213.13630	0.15489
3211.85053	0.15485
3210.56476	0.15470
3209.27899	0.15440
3207.99322	0.15402
3206.70745	0.15364
3205.42169	0.15324
3204.13592	0.15276
3202.85015	0.15220
3201.56438	0.15164
3200.27861	0.15109
3198.99284	0.15054
3197.70707	0.14995
3196.42130	0.14937
3195.13553	0.14889
3193.84977	0.14853
3192.56400	0.14817
3191.27823	0.14770
3189.99246	0.14710
3188.70669	0.14650
3187.42092	0.14604
3186.13515	0.14573
3184.84938	0.14544
3183.56362	0.14502
3182.27785	0.14444
3180.99208	0.14384
3179.70631	0.14342
3178.42054	0.14319
3177.13477	0.14297
3175.84900	0.14257
3174.56323	0.14196
3173.27746	0.14133
3171.99170	0.14086
3170.70593	0.14053
3169.42016	0.14008
3168.13439	0.13928
3166.84862	0.13813
3165.56285	0.13696
3164.27708	0.13622
3162.99131	0.13608
3161.70555	0.13630
3160.41978	0.13648
3159.13401	0.13634
3157.84824	0.13587
3156.56247	0.13526
3155.27670	0.13464
3153.99093	0.13402
3152.70516	0.13335
3151.41939	0.13261
3150.13363	0.13185
3148.84786	0.13110
3147.56209	0.13039
3146.27632	0.12975
3144.99055	0.12923
3143.70478	0.12877
3142.41901	0.12823
3141.13324	0.12754
3139.84748	0.12681
3138.56171	0.12627
3137.27594	0.12598
3135.99017	0.12580
3134.70440	0.12561
3133.41863	0.12542
3132.13286	0.12529
3130.84709	0.12513
3129.56132	0.12479
3128.27556	0.12416
3126.98979	0.12338
3125.70402	0.12268
3124.41825	0.12225
3123.13248	0.12211
3121.84671	0.12207
3120.56094	0.12195
3119.27517	0.12175
3117.98940	0.12161
3116.70364	0.12163
3115.41787	0.12172
3114.13210	0.12175
3112.84633	0.12171
3111.56056	0.12169
3110.27479	0.12172
3108.98902	0.12173
3107.70325	0.12165
3106.41749	0.12157
3105.13172	0.12164
3103.84595	0.12198
3102.56018	0.12246
3101.27441	0.12284
3099.98864	0.12300
3098.70287	0.12304
3097.41710	0.12311
3096.13133	0.12325
3094.84557	0.12339
3093.55980	0.12341
3092.27403	0.12331
3090.98826	0.12315
3089.70249	0.12306
3088.41672	0.12309
3087.13095	0.12323
3085.84518	0.12338
3084.55942	0.12349
3083.27365	0.12360
3081.98788	0.12380
3080.70211	0.12404
3079.41634	0.12417
3078.13057	0.12411
3076.84480	0.12394
3075.55903	0.12381
3074.27326	0.12383
3072.98750	0.12397
3071.70173	0.12414
3070.41596	0.12416
3069.13019	0.12404
3067.84442	0.12399
3066.55865	0.12429
3065.27288	0.12490
3063.98711	0.12538
3062.70135	0.12531
3061.41558	0.12464
3060.12981	0.12369
3058.84404	0.12274
3057.55827	0.12188
3056.27250	0.12112
3054.98673	0.12055
3053.70096	0.12031
3052.41519	0.12043
3051.12943	0.12065
3049.84366	0.12061
3048.55789	0.12016
3047.27212	0.11944
3045.98635	0.11871
3044.70058	0.11817
3043.41481	0.11784
3042.12904	0.11765
3040.84328	0.11750
3039.55751	0.11727
3038.27174	0.11683
3036.98597	0.11613
3035.70020	0.11530
3034.41443	0.11453
3033.12866	0.11395
3031.84289	0.11350
3030.55712	0.11309
3029.27136	0.11267
3027.98559	0.11225
3026.69982	0.11187
3025.41405	0.11154
3024.12828	0.11122
3022.84251	0.11083
3021.55674	0.11035
3020.27097	0.10981
3018.98521	0.10926
3017.69944	0.10876
3016.41367	0.10838
3015.12790	0.10815
3013.84213	0.10802
3012.55636	0.10791
3011.27059	0.10775
3009.98482	0.10756
3008.69905	0.10737
3007.41329	0.10718
3006.12752	0.10692
3004.84175	0.10658
3003.55598	0.10621
3002.27021	0.10593
3000.98444	0.10590
2999.69867	0.10620
2998.41290	0.10678
2997.12714	0.10737
2995.84137	0.10771
2994.55560	0.10777
2993.26983	0.10770
2991.98406	0.10767
2990.69829	0.10778
2989.41252	0.10803
2988.12675	0.10839
2986.84098	0.10875
2985.55522	0.10915
2984.26945	0.10971
2982.98368	0.11047
2981.69791	0.11131
2980.41214	0.11210
2979.12637	0.11281
2977.84060	0.11355
2976.55483	0.11432
2975.26907	0.11495
2973.98330	0.11529
2972.69753	0.11547
2971.41176	0.11583
2970.12599	0.11656
2968.84022	0.11747
2967.55445	0.11822
2966.26868	0.11873
2964.98291	0.11926
2963.69715	0.12005
2962.41138	0.12104
2961.12561	0.12203
2959.83984	0.12282
2958.55407	0.12331
2957.26830	0.12346
2955.98253	0.12332
2954.69676	0.12309
2953.41100	0.12298
2952.12523	0.12306
2950.83946	0.12317
2949.55369	0.12316
2948.26792	0.12306
2946.98215	0.12302
2945.69638	0.12316
2944.41061	0.12344
2943.12484	0.12383
2941.83908	0.12430
2940.55331	0.12491
2939.26754	0.12567
2937.98177	0.12655
2936.69600	0.12743
2935.41023	0.12817
2934.12446	0.12877
2932.83869	0.12934
2931.55293	0.12995
2930.26716	0.13051
2928.98139	0.13091
2927.69562	0.13115
2926.40985	0.13132
2925.12408	0.13142
2923.83831	0.13134
2922.55254	0.13091
2921.26677	0.13018
2919.98101	0.12931
2918.69524	0.12851
2917.40947	0.12784
2916.12370	0.12715
2914.83793	0.12627
2913.55216	0.12514
2912.26639	0.12388
2910.98062	0.12274
2909.69486	0.12184
2908.40909	0.12114
2907.12332	0.12048
2905.83755	0.11970
2904.55178	0.11873
2903.26601	0.11768
2901.98024	0.11673
2900.69447	0.11598
2899.40870	0.11539
2898.12294	0.11488
2896.83717	0.11447
2895.55140	0.11421
2894.26563	0.11399
2892.97986	0.11370
2891.69409	0.11339
2890.40832	0.11314
2889.12255	0.11289
2887.83678	0.11251
2886.55102	0.11203
2885.26525	0.11165
2883.97948	0.11153
2882.69371	0.11161
2881.40794	0.11169
2880.12217	0.11165
2878.83640	0.11155
2877.55063	0.11157
2876.26487	0.11179
2874.97910	0.11212
2873.69333	0.11234
2872.40756	0.11228
2871.12179	0.11189
2869.83602	0.11127
2868.55025	0.11059
2867.26448	0.10997
2865.97871	0.10951
2864.69295	0.10922
2863.40718	0.10907
2862.12141	0.10899
2860.83564	0.10897
2859.54987	0.10905
2858.26410	0.10930
2856.97833	0.10964
2855.69256	0.10992
2854.40680	0.10999
2853.12103	0.10978
2851.83526	0.10929
2850.54949	0.10861
2849.26372	0.10787
2847.97795	0.10711
2846.69218	0.10625
2845.40641	0.10521
2844.12064	0.10403
2842.83488	0.10290
2841.54911	0.10192
2840.26334	0.10109
2838.97757	0.10034
2837.69180	0.09960
2836.40603	0.09886
2835.12026	0.09817
2833.83449	0.09762
2832.54873	0.09728
2831.26296	0.09709
2829.97719	0.09697
2828.69142	0.09685
2827.40565	0.09666
2826.11988	0.09639
2824.83411	0.09604
2823.54834	0.09567
2822.26257	0.09529
2820.97681	0.09485
2819.69104	0.09437
2818.40527	0.09394
2817.11950	0.09360
2815.83373	0.09333
2814.54796	0.09307
2813.26219	0.09279
2811.97642	0.09257
2810.69066	0.09245
2809.40489	0.09237
2808.11912	0.09223
2806.83335	0.09200
2805.54758	0.09170
2804.26181	0.09140
2802.97604	0.09115
2801.69027	0.09097
2800.40450	0.09080
2799.11874	0.09058
2797.83297	0.09030
2796.54720	0.08997
2795.26143	0.08967
2793.97566	0.08945
2792.68989	0.08931
2791.40412	0.08913
2790.11835	0.08883
2788.83259	0.08837
2787.54682	0.08789
2786.26105	0.08757
2784.97528	0.08753
2783.68951	0.08771
2782.40374	0.08793
2781.11797	0.08800
2779.83220	0.08785
2778.54643	0.08755
2777.26067	0.08725
2775.97490	0.08703
2774.68913	0.08686
2773.40336	0.08661
2772.11759	0.08624
2770.83182	0.08581
2769.54605	0.08548
2768.26028	0.08530
2766.97452	0.08520
2765.68875	0.08505
2764.40298	0.08482
2763.11721	0.08457
2761.83144	0.08442
2760.54567	0.08442
2759.25990	0.08450
2757.97413	0.08449
2756.68836	0.08431
2755.40260	0.08401
2754.11683	0.08367
2752.83106	0.08336
2751.54529	0.08310
2750.25952	0.08291
2748.97375	0.08282
2747.68798	0.08281
2746.40221	0.08281
2745.11645	0.08273
2743.83068	0.08260
2742.54491	0.08245
2741.25914	0.08232
2739.97337	0.08217
2738.68760	0.08198
2737.40183	0.08174
2736.11606	0.08147
2734.83029	0.08120
2733.54453	0.08100
2732.25876	0.08091
2730.97299	0.08095
2729.68722	0.08102
2728.40145	0.08097
2727.11568	0.08073
2725.82991	0.08036
2724.54414	0.07999
2723.25838	0.07970
2721.97261	0.07946
2720.68684	0.07926
2719.40107	0.07905
2718.11530	0.07880
2716.82953	0.07852
2715.54376	0.07826
2714.25799	0.07813
2712.97222	0.07818
2711.68646	0.07826
2710.40069	0.07822
2709.11492	0.07798
2707.82915	0.07768
2706.54338	0.07745
2705.25761	0.07735
2703.97184	0.07733
2702.68607	0.07735
2701.40031	0.07741
2700.11454	0.07743
2698.82877	0.07733
2697.54300	0.07712
2696.25723	0.07690
2694.97146	0.07679
2693.68569	0.07679
2692.39992	0.07683
2691.11415	0.07680
2689.82839	0.07664
2688.54262	0.07640
2687.25685	0.07621
2685.97108	0.07618
2684.68531	0.07629
2683.39954	0.07636
2682.11377	0.07624
2680.82800	0.07596
2679.54224	0.07571
2678.25647	0.07566
2676.97070	0.07578
2675.68493	0.07590
2674.39916	0.07591
2673.11339	0.07582
2671.82762	0.07572
2670.54185	0.07563
2669.25608	0.07553
2667.97032	0.07539
2666.68455	0.07525
2665.39878	0.07522
2664.11301	0.07532
2662.82724	0.07549
2661.54147	0.07562
2660.25570	0.07562
2658.96993	0.07545
2657.68417	0.07515
2656.39840	0.07473
2655.11263	0.07424
2653.82686	0.07373
2652.54109	0.07329
2651.25532	0.07301
2649.96955	0.07287
2648.68378	0.07274
2647.39801	0.07248
2646.11225	0.07218
2644.82648	0.07201
2643.54071	0.07202
2642.25494	0.07204
2640.96917	0.07184
2639.68340	0.07137
2638.39763	0.07077
2637.11186	0.07018
2635.82609	0.06975
2634.54033	0.06953
2633.25456	0.06946
2631.96879	0.06941
2630.68302	0.06932
2629.39725	0.06922
2628.11148	0.06917
2626.82571	0.06911
2625.53994	0.06893
2624.25418	0.06859
2622.96841	0.06819
2621.68264	0.06780
2620.39687	0.06747
2619.11110	0.06718
2617.82533	0.06692
2616.53956	0.06675
2615.25379	0.06667
2613.96802	0.06666
2612.68226	0.06664
2611.39649	0.06655
2610.11072	0.06630
2608.82495	0.06587
2607.53918	0.06541
2606.25341	0.06516
2604.96764	0.06517
2603.68187	0.06521
2602.39611	0.06506
2601.11034	0.06477
2599.82457	0.06450
2598.53880	0.06432
2597.25303	0.06424
2595.96726	0.06431
2594.68149	0.06447
2593.39572	0.06459
2592.10995	0.06455
2590.82419	0.06440
2589.53842	0.06428
2588.25265	0.06413
2586.96688	0.06378
2585.68111	0.06320
2584.39534	0.06259
2583.10957	0.06219
2581.82380	0.06206
2580.53804	0.06210
2579.25227	0.06217
2577.96650	0.06218
2576.68073	0.06213
2575.39496	0.06215
2574.10919	0.06229
2572.82342	0.06242
2571.53765	0.06235
2570.25188	0.06202
2568.96612	0.06157
2567.68035	0.06122
2566.39458	0.06103
2565.10881	0.06097
2563.82304	0.06099
2562.53727	0.06108
2561.25150	0.06109
2559.96573	0.06083
2558.67997	0.06020
2557.39420	0.05943
2556.10843	0.05885
2554.82266	0.05863
2553.53689	0.05868
2552.25112	0.05878
2550.96535	0.05883
2549.67958	0.05884
2548.39381	0.05886
2547.10805	0.05887
2545.82228	0.05884
2544.53651	0.05875
2543.25074	0.05854
2541.96497	0.05811
2540.67920	0.05746
2539.39343	0.05673
2538.10766	0.05617
2536.82190	0.05597
2535.53613	0.05610
2534.25036	0.05639
2532.96459	0.05661
2531.67882	0.05665
2530.39305	0.05660
2529.10728	0.05659
2527.82151	0.05670
2526.53574	0.05686
2525.24998	0.05698
2523.96421	0.05700
2522.67844	0.05689
2521.39267	0.05676
2520.10690	0.05673
2518.82113	0.05689
2517.53536	0.05715
2516.24959	0.05732
2514.96383	0.05720
2513.67806	0.05679
2512.39229	0.05624
2511.10652	0.05577
2509.82075	0.05551
2508.53498	0.05546
2507.24921	0.05554
2505.96344	0.05567
2504.67767	0.05571
2503.39191	0.05554
2502.10614	0.05519
2500.82037	0.05488
2499.53460	0.05476
2498.24883	0.05476
2496.96306	0.05462
2495.67729	0.05429
2494.39152	0.05397
2493.10576	0.05391
2491.81999	0.05411
2490.53422	0.05431
2489.24845	0.05430
2487.96268	0.05405
2486.67691	0.05365
2485.39114	0.05325
2484.10537	0.05304
2482.81960	0.05314
2481.53384	0.05350
2480.24807	0.05389
2478.96230	0.05409
2477.67653	0.05406
2476.39076	0.05387
2475.10499	0.05357
2473.81922	0.05323
2472.53345	0.05302
2471.24769	0.05306
2469.96192	0.05322
2468.67615	0.05316
2467.39038	0.05271
2466.10461	0.05210
2464.81884	0.05178
2463.53307	0.05196
2462.24730	0.05242
2460.96153	0.05275
2459.67577	0.05278
2458.39000	0.05268
2457.10423	0.05271
2455.81846	0.05296
2454.53269	0.05323
2453.24692	0.05330
2451.96115	0.05306
2450.67538	0.05266
2449.38962	0.05229
2448.10385	0.05200
2446.81808	0.05170
2445.53231	0.05139
2444.24654	0.05117
2442.96077	0.05116
2441.67500	0.05135
2440.38923	0.05157
2439.10346	0.05170
2437.81770	0.05173
2436.53193	0.05172
2435.24616	0.05174
2433.96039	0.05178
2432.67462	0.05177
2431.38885	0.05170
2430.10308	0.05162
2428.81731	0.05156
2427.53155	0.05153
2426.24578	0.05153
2424.96001	0.05157
2423.67424	0.05157
2422.38847	0.05150
2421.10270	0.05141
2419.81693	0.05139
2418.53116	0.05147
2417.24539	0.05162
2415.95963	0.05174
2414.67386	0.05177
2413.38809	0.05170
2412.10232	0.05153
2410.81655	0.05127
2409.53078	0.05094
2408.24501	0.05058
2406.95924	0.05034
2405.67347	0.05033
2404.38771	0.05059
2403.10194	0.05098
2401.81617	0.05132
2400.53040	0.05140
2399.24463	0.05108
2397.95886	0.05065
2396.67309	0.05035
2395.38732	0.05031
2394.10156	0.05046
2392.81579	0.05060
2391.53002	0.05063
2390.24425	0.05059
2388.95848	0.05060
2387.67271	0.05065
2386.38694	0.05069
2385.10117	0.05069
2383.81540	0.05074
2382.52964	0.05088
2381.24387	0.05102
2379.95810	0.05100
2378.67233	0.05081
2377.38656	0.05062
2376.10079	0.05063
2374.81502	0.05086
2373.52925	0.05114
2372.24349	0.05133
2370.95772	0.05139
2369.67195	0.05139
2368.38618	0.05139
2367.10041	0.05146
2365.81464	0.05160
2364.52887	0.05178
2363.24310	0.05196
2361.95733	0.05210
2360.67157	0.05221
2359.38580	0.05222
2358.10003	0.05211
2356.81426	0.05189
2355.52849	0.05169
2354.24272	0.05159
2352.95695	0.05157
2351.67118	0.05156
2350.38542	0.05159
2349.09965	0.05168
2347.81388	0.05179
2346.52811	0.05179
2345.24234	0.05165
2343.95657	0.05146
2342.67080	0.05136
2341.38503	0.05140
2340.09926	0.05152
2338.81350	0.05158
2337.52773	0.05153
2336.24196	0.05143
2334.95619	0.05133
2333.67042	0.05122
2332.38465	0.05106
2331.09888	0.05094
2329.81311	0.05100
2328.52735	0.05131
2327.24158	0.05181
2325.95581	0.05228
2324.67004	0.05248
2323.38427	0.05235
2322.09850	0.05198
2320.81273	0.05154
2319.52696	0.05114
2318.24119	0.05080
2316.95543	0.05046
2315.66966	0.05003
2314.38389	0.04950
2313.09812	0.04892
2311.81235	0.04839
2310.52658	0.04799
2309.24081	0.04777
2307.95504	0.04772
2306.66928	0.04775
2305.38351	0.04782
2304.09774	0.04787
2302.81197	0.04780
2301.52620	0.04751
2300.24043	0.04701
2298.95466	0.04647
2297.66889	0.04604
2296.38312	0.04577
2295.09736	0.04559
2293.81159	0.04545
2292.52582	0.04532
2291.24005	0.04518
2289.95428	0.04502
2288.66851	0.04490
2287.38274	0.04489
2286.09697	0.04493
2284.81121	0.04485
2283.52544	0.04455
2282.23967	0.04414
2280.95390	0.04379
2279.66813	0.04354
2278.38236	0.04333
2277.09659	0.04309
2275.81082	0.04275
2274.52505	0.04225
2273.23929	0.04161
2271.95352	0.04095
2270.66775	0.04042
2269.38198	0.03989
2268.09621	0.03916
2266.81044	0.03826
2265.52467	0.03754
2264.23890	0.03735
2262.95314	0.03770
2261.66737	0.03835
2260.38160	0.03910
2259.09583	0.03974
2257.81006	0.04004
2256.52429	0.03976
2255.23852	0.03895
2253.95275	0.03802
2252.66698	0.03733
2251.38122	0.03699
2250.09545	0.03698
2248.80968	0.03724
2247.52391	0.03741
2246.23814	0.03777
2244.95237	0.03822
2243.66660	0.03851
2242.38083	0.03840
2241.09507	0.03796
2239.80930	0.03749
2238.52353	0.03720
2237.23776	0.03694
2235.95199	0.03648
2234.66622	0.03584
2233.38045	0.03530
2232.09468	0.03506
2230.80891	0.03508
2229.52315	0.03518
2228.23738	0.03518
2226.95161	0.03496
2225.66584	0.03449
2224.38007	0.03389
2223.09430	0.03344
2221.80853	0.03331
2220.52276	0.03345
2219.23700	0.03364
2217.95123	0.03357
2216.66546	0.03304
2215.37969	0.03219
2214.09392	0.03150
2212.80815	0.03149
2211.52238	0.03230
2210.23661	0.03355
2208.95084	0.03464
2207.66508	0.03500
2206.37931	0.03448
2205.09354	0.03350
2203.80777	0.03268
2202.52200	0.03216
2201.23623	0.03153
2199.95046	0.03056
2198.66469	0.02956
2197.37893	0.02902
2196.09316	0.02900
2194.80739	0.02924
2193.52162	0.02960
2192.23585	0.02999
2190.95008	0.03008
2189.66431	0.02943
2188.37854	0.02813
2187.09277	0.02689
2185.80701	0.02631
2184.52124	0.02632
2183.23547	0.02655
2181.94970	0.02695
2180.66393	0.02766
2179.37816	0.02848
2178.09239	0.02889
2176.80662	0.02871
2175.52085	0.02825
2174.23509	0.02786
2172.94932	0.02758
2171.66355	0.02716
2170.37778	0.02649
2169.09201	0.02569
2167.80624	0.02492
2166.52047	0.02416
2165.23470	0.02319
2163.94894	0.02199
2162.66317	0.02086
2161.37740	0.02016
2160.09163	0.02013
2158.80586	0.02077
2157.52009	0.02179
2156.23432	0.02278
2154.94855	0.02357
2153.66278	0.02429
2152.37702	0.02495
2151.09125	0.02520
2149.80548	0.02490
2148.51971	0.02451
2147.23394	0.02465
2145.94817	0.02543
2144.66240	0.02642
2143.37663	0.02708
2142.09087	0.02719
2140.80510	0.02683
2139.51933	0.02629
2138.23356	0.02591
2136.94779	0.02589
2135.66202	0.02627
2134.37625	0.02694
2133.09048	0.02774
2131.80471	0.02854
2130.51895	0.02932
2129.23318	0.02997
2127.94741	0.03036
2126.66164	0.03052
2125.37587	0.03070
2124.09010	0.03112
2122.80433	0.03177
2121.51856	0.03253
2120.23280	0.03336
2118.94703	0.03424
2117.66126	0.03502
2116.37549	0.03540
2115.08972	0.03520
2113.80395	0.03448
2112.51818	0.03346
2111.23241	0.03241
2109.94664	0.03163
2108.66088	0.03130
2107.37511	0.03150
2106.08934	0.03206
2104.80357	0.03265
2103.51780	0.03292
2102.23203	0.03278
2100.94626	0.03247
2099.66049	0.03214
2098.37473	0.03197
2097.08896	0.03177
2095.80319	0.03141
2094.51742	0.03099
2093.23165	0.03078
2091.94588	0.03087
2090.66011	0.03112
2089.37434	0.03122
2088.08857	0.03108
2086.80281	0.03086
2085.51704	0.03069
2084.23127	0.03052
2082.94550	0.03024
2081.65973	0.02997
2080.37396	0.02993
2079.08819	0.03015
2077.80242	0.03038
2076.51666	0.03049
2075.23089	0.03055
2073.94512	0.03066
2072.65935	0.03064
2071.37358	0.03022
2070.08781	0.02934
2068.80204	0.02839
2067.51627	0.02788
2066.23050	0.02800
2064.94474	0.02848
2063.65897	0.02876
2062.37320	0.02852
2061.08743	0.02786
2059.80166	0.02716
2058.51589	0.02678
2057.23012	0.02676
2055.94435	0.02690
2054.65859	0.02701
2053.37282	0.02706
2052.08705	0.02696
2050.80128	0.02645
2049.51551	0.02533
2048.22974	0.02375
2046.94397	0.02224
2045.65820	0.02145
2044.37243	0.02163
2043.08667	0.02244
2041.80090	0.02306
2040.51513	0.02288
2039.22936	0.02197
2037.94359	0.02110
2036.65782	0.02088
2035.37205	0.02128
2034.08628	0.02163
2032.80052	0.02138
2031.51475	0.02057
2030.22898	0.01979
2028.94321	0.01954
2027.65744	0.01987
2026.37167	0.02057
2025.08590	0.02155
2023.80013	0.02272
2022.51436	0.02361
2021.22860	0.02352
2019.94283	0.02226
2018.65706	0.02051
2017.37129	0.01928
2016.08552	0.01900
2014.79975	0.01944
2013.51398	0.02017
2012.22821	0.02097
2010.94245	0.02167
2009.65668	0.02198
2008.37091	0.02173
2007.08514	0.02105
2005.79937	0.02032
2004.51360	0.01992
2003.22783	0.02011
2001.94206	0.02088
2000.65629	0.02187
1999.37053	0.02264
1998.08476	0.02301
1996.79899	0.02326
1995.51322	0.02373
1994.22745	0.02434
1992.94168	0.02473
1991.65591	0.02464
1990.37014	0.02424
1989.08438	0.02394
1987.79861	0.02398
1986.51284	0.02421
1985.22707	0.02431
1983.94130	0.02413
1982.65553	0.02379
1981.36976	0.02343
1980.08399	0.02296
1978.79822	0.02219
1977.51246	0.02117
1976.22669	0.02033
1974.94092	0.02017
1973.65515	0.02076
1972.36938	0.02179
1971.08361	0.02278
1969.79784	0.02338
1968.51207	0.02339
1967.22631	0.02293
1965.94054	0.02234
1964.65477	0.02200
1963.36900	0.02204
1962.08323	0.02236
1960.79746	0.02267
1959.51169	0.02280
1958.22592	0.02284
1956.94015	0.02309
1955.65439	0.02370
1954.36862	0.02445
1953.08285	0.02495
1951.79708	0.02504
1950.51131	0.02487
1949.22554	0.02464
1947.93977	0.02450
1946.65400	0.02455
1945.36823	0.02476
1944.08247	0.02506
1942.79670	0.02530
1941.51093	0.02542
1940.22516	0.02544
1938.93939	0.02536
1937.65362	0.02525
1936.36785	0.02517
1935.08208	0.02516
1933.79632	0.02521
1932.51055	0.02529
1931.22478	0.02540
1929.93901	0.02559
1928.65324	0.02591
1927.36747	0.02632
1926.08170	0.02672
1924.79593	0.02707
1923.51016	0.02738
1922.22440	0.02765
1920.93863	0.02778
1919.65286	0.02776
1918.36709	0.02772
1917.08132	0.02779
1915.79555	0.02790
1914.50978	0.02786
1913.22401	0.02765
1911.93825	0.02739
1910.65248	0.02717
1909.36671	0.02700
1908.08094	0.02687
1906.79517	0.02682
1905.50940	0.02690
1904.22363	0.02711
1902.93786	0.02736
1901.65209	0.02754
1900.36633	0.02765
1899.08056	0.02776
1897.79479	0.02790
1896.50902	0.02804
1895.22325	0.02812
1893.93748	0.02813
1892.65171	0.02811
1891.36594	0.02807
1890.08018	0.02803
1888.79441	0.02804
1887.50864	0.02807
1886.22287	0.02801
1884.93710	0.02788
1883.65133	0.02775
1882.36556	0.02770
1881.07979	0.02767
1879.79402	0.02758
1878.50826	0.02741
1877.22249	0.02722
1875.93672	0.02710
1874.65095	0.02710
1873.36518	0.02728
1872.07941	0.02757
1870.79364	0.02779
1869.50787	0.02778
1868.22211	0.02757
1866.93634	0.02725
1865.65057	0.02695
1864.36480	0.02674
1863.07903	0.02663
1861.79326	0.02661
1860.50749	0.02670
1859.22172	0.02685
1857.93595	0.02702
1856.65019	0.02709
1855.36442	0.02698
1854.07865	0.02675
1852.79288	0.02659
1851.50711	0.02662
1850.22134	0.02685
1848.93557	0.02710
1847.64980	0.02720
1846.36404	0.02706
1845.07827	0.02677
1843.79250	0.02658
1842.50673	0.02658
1841.22096	0.02663
1839.93519	0.02660
1838.64942	0.02648
1837.36365	0.02634
1836.07788	0.02621
1834.79212	0.02620
1833.50635	0.02633
1832.22058	0.02648
1830.93481	0.02655
1829.64904	0.02656
1828.36327	0.02658
1827.07750	0.02659
1825.79173	0.02658
1824.50597	0.02655
1823.22020	0.02646
1821.93443	0.02624
1820.64866	0.02597
1819.36289	0.02576
1818.07712	0.02572
1816.79135	0.02586
1815.50558	0.02612
1814.21981	0.02637
1812.93405	0.02648
1811.64828	0.02642
1810.36251	0.02627
1809.07674	0.02615
1807.79097	0.02611
1806.50520	0.02611
1805.21943	0.02608
1803.93366	0.02599
1802.64790	0.02589
1801.36213	0.02585
1800.07636	0.02588
1798.79059	0.02590
1797.50482	0.02588
1796.21905	0.02583
1794.93328	0.02581
1793.64751	0.02582
1792.36174	0.02594
1791.07598	0.02614
1789.79021	0.02627
1788.50444	0.02621
1787.21867	0.02597
1785.93290	0.02571
1784.64713	0.02557
1783.36136	0.02554
1782.07559	0.02552
1780.78983	0.02548
1779.50406	0.02547
1778.21829	0.02550
1776.93252	0.02555
1775.64675	0.02554
1774.36098	0.02545
1773.07521	0.02537
1771.78944	0.02548
1770.50367	0.02569
1769.21791	0.02580
1767.93214	0.02580
1766.64637	0.02579
1765.36060	0.02578
1764.07483	0.02568
1762.78906	0.02555
1761.50329	0.02554
1760.21752	0.02570
1758.93176	0.02591
1757.64599	0.02614
1756.36022	0.02649
1755.07445	0.02696
1753.78868	0.02739
1752.50291	0.02768
1751.21714	0.02798
1749.93137	0.02842
1748.64560	0.02893
1747.35984	0.02941
1746.07407	0.02985
1744.78830	0.03034
1743.50253	0.03090
1742.21676	0.03148
1740.93099	0.03206
1739.64522	0.03273
1738.35945	0.03354
1737.07369	0.03428
1735.78792	0.03473
1734.50215	0.03506
1733.21638	0.03560
1731.93061	0.03628
1730.64484	0.03682
1729.35907	0.03716
1728.07330	0.03748
1726.78753	0.03790
1725.50177	0.03843
1724.21600	0.03904
1722.93023	0.03968
1721.64446	0.04025
1720.35869	0.04065
1719.07292	0.04092
1717.78715	0.04132
1716.50138	0.04197
1715.21561	0.04273
1713.92985	0.04346
1712.64408	0.04422
1711.35831	0.04511
1710.07254	0.04617
1708.78677	0.04736
1707.50100	0.04865
1706.21523	0.05010
1704.92946	0.05180
1703.64370	0.05366
1702.35793	0.05551
1701.07216	0.05746
1699.78639	0.05985
1698.50062	0.06250
1697.21485	0.06502
1695.92908	0.06749
1694.64331	0.07029
1693.35754	0.07326
1692.07178	0.07599
1690.78601	0.07855
1689.50024	0.08125
1688.21447	0.08415
1686.92870	0.08703
1685.64293	0.08988
1684.35716	0.09297
1683.07139	0.09637
1681.78563	0.09979
1680.49986	0.10305
1679.21409	0.10635
1677.92832	0.10979
1676.64255	0.11333
1675.35678	0.11702
1674.07101	0.12093
1672.78524	0.12490
1671.49947	0.12878
1670.21371	0.13263
1668.92794	0.13659
1667.64217	0.14062
1666.35640	0.14453
1665.07063	0.14823
1663.78486	0.15182
1662.49909	0.15548
1661.21332	0.15918
1659.92756	0.16277
1658.64179	0.16620
1657.35602	0.16950
1656.07025	0.17252
1654.78448	0.17517
1653.49871	0.17770
1652.21294	0.18042
1650.92717	0.18305
1649.64140	0.18504
1648.35564	0.18635
1647.06987	0.18751
1645.78410	0.18888
1644.49833	0.19039
1643.21256	0.19181
1641.92679	0.19306
1640.64102	0.19426
1639.35525	0.19543
1638.06949	0.19641
1636.78372	0.19718
1635.49795	0.19792
1634.21218	0.19869
1632.92641	0.19926
1631.64064	0.19935
1630.35487	0.19895
1629.06910	0.19820
1627.78333	0.19718
1626.49757	0.19583
1625.21180	0.19403
1623.92603	0.19177
1622.64026	0.18918
1621.35449	0.18630
1620.06872	0.18302
1618.78295	0.17924
1617.49718	0.17518
1616.21142	0.17121
1614.92565	0.16740
1613.63988	0.16349
1612.35411	0.15936
1611.06834	0.15510
1609.78257	0.15085
1608.49680	0.14666
1607.21103	0.14260
1605.92526	0.13873
1604.63950	0.13501
1603.35373	0.13144
1602.06796	0.12802
1600.78219	0.12479
1599.49642	0.12178
1598.21065	0.11901
1596.92488	0.11645
1595.63911	0.11406
1594.35335	0.11181
1593.06758	0.10973
1591.78181	0.10786
1590.49604	0.10627
1589.21027	0.10494
1587.92450	0.10384
1586.63873	0.10292
1585.35296	0.10216
1584.06719	0.10159
1582.78143	0.10123
1581.49566	0.10110
1580.20989	0.10120
1578.92412	0.10144
1577.63835	0.10178
1576.35258	0.10244
1575.06681	0.10363
1573.78104	0.10515
1572.49528	0.10661
1571.20951	0.10798
1569.92374	0.10952
1568.63797	0.11140
1567.35220	0.11350
1566.06643	0.11568
1564.78066	0.11796
1563.49489	0.12039
1562.20912	0.12277
1560.92336	0.12502
1559.63759	0.12735
1558.35182	0.13004
1557.06605	0.13288
1555.78028	0.13546
1554.49451	0.13775
1553.20874	0.14000
1551.92297	0.14227
1550.63721	0.14446
1549.35144	0.14655
1548.06567	0.14854
1546.77990	0.15034
1545.49413	0.15199
1544.20836	0.15354
1542.92259	0.15496
1541.63682	0.15617
1540.35105	0.15725
1539.06529	0.15838
1537.77952	0.15952
1536.49375	0.16033
1535.20798	0.16070
1533.92221	0.16090
1532.63644	0.16119
1531.35067	0.16151
1530.06490	0.16165
1528.77914	0.16158
1527.49337	0.16145
1526.20760	0.16136
1524.92183	0.16130
1523.63606	0.16111
1522.35029	0.16076
1521.06452	0.16044
1519.77875	0.16022
1518.49298	0.15989
1517.20722	0.15932
1515.92145	0.15848
1514.63568	0.15732
1513.34991	0.15580
1512.06414	0.15403
1510.77837	0.15214
1509.49260	0.15004
1508.20683	0.14762
1506.92107	0.14503
1505.63530	0.14254
1504.34953	0.14009
1503.06376	0.13744
1501.77799	0.13460
1500.49222	0.13174
1499.20645	0.12896
1497.92068	0.12617
1496.63491	0.12335
1495.34915	0.12054
1494.06338	0.11775
1492.77761	0.11489
1491.49184	0.11200
1490.20607	0.10925
1488.92030	0.10672
1487.63453	0.10440
1486.34876	0.10226
1485.06299	0.10028
1483.77723	0.09849
1482.49146	0.09695
1481.20569	0.09575
1479.91992	0.09492
1478.63415	0.09442
1477.34838	0.09420
1476.06261	0.09428
1474.77684	0.09462
1473.49108	0.09523
1472.20531	0.09616
1470.91954	0.09735
1469.63377	0.09855
1468.34800	0.09956
1467.06223	0.10036
1465.77646	0.10111
1464.49069	0.10200
1463.20492	0.10307
1461.91916	0.10422
1460.63339	0.10532
1459.34762	0.10628
1458.06185	0.10718
1456.77608	0.10825
1455.49031	0.10951
1454.20454	0.11062
1452.91877	0.11135
1451.63301	0.11176
1450.34724	0.11201
1449.06147	0.11214
1447.77570	0.11214
1446.48993	0.11201
1445.20416	0.11173
1443.91839	0.11129
1442.63262	0.11074
1441.34685	0.11013
1440.06109	0.10941
1438.77532	0.10849
1437.48955	0.10742
1436.20378	0.10636
1434.91801	0.10536
1433.63224	0.10428
1432.34647	0.10308
1431.06070	0.10191
1429.77494	0.10091
1428.48917	0.10010
1427.20340	0.09944
1425.91763	0.09888
1424.63186	0.09844
1423.34609	0.09816
1422.06032	0.09797
1420.77455	0.09783
1419.48878	0.09782
1418.20302	0.09799
1416.91725	0.09820
1415.63148	0.09829
1414.34571	0.09830
1413.05994	0.09831
1411.77417	0.09837
1410.48840	0.09843
1409.20263	0.09846
1407.91687	0.09844
1406.63110	0.09838
1405.34533	0.09834
1404.05956	0.09834
1402.77379	0.09832
1401.48802	0.09822
1400.20225	0.09804
1398.91648	0.09786
1397.63071	0.09773
1396.34495	0.09761
1395.05918	0.09750
1393.77341	0.09747
1392.48764	0.09753
1391.20187	0.09758
1389.91610	0.09753
1388.63033	0.09742
1387.34456	0.09734
1386.05880	0.09731
1384.77303	0.09724
1383.48726	0.09705
1382.20149	0.09678
1380.91572	0.09648
1379.62995	0.09616
1378.34418	0.09580
1377.05841	0.09539
1375.77264	0.09492
1374.48688	0.09442
1373.20111	0.09391
1371.91534	0.09337
1370.62957	0.09278
1369.34380	0.09215
1368.05803	0.09148
1366.77226	0.09075
1365.48649	0.08993
1364.20073	0.08908
1362.91496	0.08828
1361.62919	0.08760
1360.34342	0.08702
1359.05765	0.08650
1357.77188	0.08604
1356.48611	0.08566
1355.20034	0.08543
1353.91457	0.08535
1352.62881	0.08539
1351.34304	0.08552
1350.05727	0.08570
1348.77150	0.08596
1347.48573	0.08629
1346.19996	0.08668
1344.91419	0.08710
1343.62842	0.08753
1342.34266	0.08796
1341.05689	0.08834
1339.77112	0.08867
1338.48535	0.08890
1337.19958	0.08900
1335.91381	0.08895
1334.62804	0.08875
1333.34227	0.08843
1332.05650	0.08803
1330.77074	0.08758
1329.48497	0.08712
1328.19920	0.08664
1326.91343	0.08617
1325.62766	0.08575
1324.34189	0.08538
1323.05612	0.08507
1321.77035	0.08479
1320.48459	0.08456
1319.19882	0.08437
1317.91305	0.08421
1316.62728	0.08405
1315.34151	0.08387
1314.05574	0.08369
1312.76997	0.08353
1311.48420	0.08342
1310.19843	0.08333
1308.91267	0.08317
1307.62690	0.08293
1306.34113	0.08263
1305.05536	0.08237
1303.76959	0.08220
1302.48382	0.08213
1301.19805	0.08208
1299.91228	0.08202
1298.62652	0.08195
1297.34075	0.08189
1296.05498	0.08190
1294.76921	0.08201
1293.48344	0.08221
1292.19767	0.08245
1290.91190	0.08272
1289.62613	0.08301
1288.34036	0.08334
1287.05460	0.08372
1285.76883	0.08414
1284.48306	0.08457
1283.19729	0.08497
1281.91152	0.08531
1280.62575	0.08557
1279.33998	0.08580
1278.05421	0.08605
1276.76845	0.08632
1275.48268	0.08657
1274.19691	0.08674
1272.91114	0.08686
1271.62537	0.08698
1270.33960	0.08717
1269.05383	0.08744
1267.76806	0.08777
1266.48229	0.08817
1265.19653	0.08863
1263.91076	0.08914
1262.62499	0.08967
1261.33922	0.09021
1260.05345	0.09076
1258.76768	0.09134
1257.48191	0.09192
1256.19614	0.09253
1254.91037	0.09317
1253.62461	0.09385
1252.33884	0.09455
1251.05307	0.09530
1249.76730	0.09613
1248.48153	0.09705
1247.19576	0.09802
1245.90999	0.09900
1244.62422	0.09997
1243.33846	0.10092
1242.05269	0.10183
1240.76692	0.10265
1239.48115	0.10334
1238.19538	0.10391
1236.90961	0.10439
1235.62384	0.10479
1234.33807	0.10508
1233.05230	0.10524
1231.76654	0.10526
1230.48077	0.10519
1229.19500	0.10502
1227.90923	0.10471
1226.62346	0.10421
1225.33769	0.10355
1224.05192	0.10278
1222.76615	0.10198
1221.48039	0.10119
1220.19462	0.10042
1218.90885	0.09965
1217.62308	0.09886
1216.33731	0.09805
1215.05154	0.09732
1213.76577	0.09672
1212.48000	0.09629
1211.19423	0.09599
1209.90847	0.09576
1208.62270	0.09558
1207.33693	0.09544
1206.05116	0.09533
1204.76539	0.09523
1203.47962	0.09508
1202.19385	0.09482
1200.90808	0.09445
1199.62232	0.09400
1198.33655	0.09343
1197.05078	0.09274
1195.76501	0.09196
1194.47924	0.09116
1193.19347	0.09039
1191.90770	0.08967
1190.62193	0.08900
1189.33616	0.08838
1188.05040	0.08783
1186.76463	0.08738
1185.47886	0.08700
1184.19309	0.08663
1182.90732	0.08626
1181.62155	0.08592
1180.33578	0.08570
1179.05001	0.08560
1177.76425	0.08555
1176.47848	0.08543
1175.19271	0.08527
1173.90694	0.08513
1172.62117	0.08510
1171.33540	0.08515
1170.04963	0.08521
1168.76386	0.08524
1167.47809	0.08521
1166.19233	0.08513
1164.90656	0.08501
1163.62079	0.08489
1162.33502	0.08478
1161.04925	0.08471
1159.76348	0.08461
1158.47771	0.08444
1157.19194	0.08416
1155.90618	0.08376
1154.62041	0.08326
1153.33464	0.08270
1152.04887	0.08211
1150.76310	0.08148
1149.47733	0.08079
1148.19156	0.08005
1146.90579	0.07933
1145.62002	0.07867
1144.33426	0.07810
1143.04849	0.07755
1141.76272	0.07700
1140.47695	0.07643
1139.19118	0.07586
1137.90541	0.07533
1136.61964	0.07488
1135.33387	0.07454
1134.04811	0.07433
1132.76234	0.07421
1131.47657	0.07407
1130.19080	0.07384
1128.90503	0.07355
1127.61926	0.07326
1126.33349	0.07304
1125.04772	0.07290
1123.76195	0.07279
1122.47619	0.07268
1121.19042	0.07255
1119.90465	0.07244
1118.61888	0.07235
1117.33311	0.07229
1116.04734	0.07225
1114.76157	0.07225
1113.47580	0.07230
1112.19004	0.07238
1110.90427	0.07247
1109.61850	0.07253
1108.33273	0.07257
1107.04696	0.07261
1105.76119	0.07268
1104.47542	0.07283
1103.18965	0.07309
1101.90388	0.07345
1100.61812	0.07387
1099.33235	0.07431
1098.04658	0.07473
1096.76081	0.07511
1095.47504	0.07544
1094.18927	0.07578
1092.90350	0.07621
1091.61773	0.07676
1090.33197	0.07744
1089.04620	0.07822
1087.76043	0.07909
1086.47466	0.08004
1085.18889	0.08100
1083.90312	0.08188
1082.61735	0.08260
1081.33158	0.08314
1080.04581	0.08356
1078.76005	0.08387
1077.47428	0.08409
1076.18851	0.08427
1074.90274	0.08445
1073.61697	0.08465
1072.33120	0.08481
1071.04543	0.08493
1069.75966	0.08501
1068.47390	0.08507
1067.18813	0.08514
1065.90236	0.08521
1064.61659	0.08529
1063.33082	0.08535
1062.04505	0.08536
1060.75928	0.08531
1059.47351	0.08524
1058.18774	0.08517
1056.90198	0.08512
1055.61621	0.08504
1054.33044	0.08495
1053.04467	0.08487
1051.75890	0.08477
1050.47313	0.08458
1049.18736	0.08433
1047.90159	0.08410
1046.61583	0.08394
1045.33006	0.08382
1044.04429	0.08365
1042.75852	0.08343
1041.47275	0.08322
1040.18698	0.08311
1038.90121	0.08311
1037.61544	0.08318
1036.32967	0.08319
1035.04391	0.08308
1033.75814	0.08291
1032.47237	0.08278
1031.18660	0.08273
1029.90083	0.08263
1028.61506	0.08237
1027.32929	0.08191
1026.04352	0.08131
1024.75775	0.08066
1023.47199	0.07998
1022.18622	0.07929
1020.90045	0.07860
1019.61468	0.07796
1018.32891	0.07740
1017.04314	0.07693
1015.75737	0.07649
1014.47160	0.07600
1013.18584	0.07541
1011.90007	0.07475
1010.61430	0.07406
1009.32853	0.07340
1008.04276	0.07282
1006.75699	0.07232
1005.47122	0.07182
1004.18545	0.07125
1002.89968	0.07056
1001.61392	0.06981
1000.32815	0.06907
999.04238	0.06841
997.75661	0.06787
996.47084	0.06743
995.18507	0.06703
993.89930	0.06661
992.61353	0.06613
991.32777	0.06562
990.04200	0.06509
988.75623	0.06460
987.47046	0.06414
986.18469	0.06372
984.89892	0.06333
983.61315	0.06295
982.32738	0.06261
981.04161	0.06234
979.75585	0.06219
978.47008	0.06214
977.18431	0.06214
975.89854	0.06216
974.61277	0.06215
973.32700	0.06209
972.04123	0.06194
970.75546	0.06166
969.46970	0.06129
968.18393	0.06084
966.89816	0.06037
965.61239	0.05996
964.32662	0.05964
963.04085	0.05944
961.75508	0.05933
960.46931	0.05923
959.18354	0.05906
957.89778	0.05881
956.61201	0.05851
955.32624	0.05825
954.04047	0.05804
952.75470	0.05787
951.46893	0.05771
950.18316	0.05757
948.89739	0.05749
947.61163	0.05746
946.32586	0.05740
945.04009	0.05727
943.75432	0.05711
942.46855	0.05698
941.18278	0.05687
939.89701	0.05675
938.61124	0.05663
937.32547	0.05657
936.03971	0.05655
934.75394	0.05647
933.46817	0.05629
932.18240	0.05607
930.89663	0.05589
929.61086	0.05575
928.32509	0.05563
927.03932	0.05554
925.75356	0.05548
924.46779	0.05541
923.18202	0.05529
921.89625	0.05509
920.61048	0.05484
919.32471	0.05461
918.03894	0.05441
916.75317	0.05421
915.46740	0.05397
914.18164	0.05366
912.89587	0.05330
911.61010	0.05297
910.32433	0.05271
909.03856	0.05251
907.75279	0.05231
906.46702	0.05206
905.18125	0.05180
903.89549	0.05157
902.60972	0.05140
901.32395	0.05123
900.03818	0.05101
898.75241	0.05074
897.46664	0.05045
896.18087	0.05016
894.89510	0.04994
893.60933	0.04980
892.32357	0.04969
891.03780	0.04952
889.75203	0.04926
888.46626	0.04897
887.18049	0.04874
885.89472	0.04859
884.60895	0.04849
883.32318	0.04843
882.03742	0.04837
880.75165	0.04826
879.46588	0.04810
878.18011	0.04798
876.89434	0.04795
875.60857	0.04797
874.32280	0.04794
873.03703	0.04781
871.75126	0.04765
870.46550	0.04756
869.17973	0.04751
867.89396	0.04743
866.60819	0.04726
865.32242	0.04704
864.03665	0.04685
862.75088	0.04671
861.46511	0.04658
860.17935	0.04643
858.89358	0.04628
857.60781	0.04613
856.32204	0.04603
855.03627	0.04600
853.75050	0.04602
852.46473	0.04606
851.17896	0.04607
849.89319	0.04602
848.60743	0.04592
847.32166	0.04577
846.03589	0.04562
844.75012	0.04551
843.46435	0.04548
842.17858	0.04551
840.89281	0.04551
839.60704	0.04544
838.32128	0.04532
837.03551	0.04521
835.74974	0.04519
834.46397	0.04525
833.17820	0.04531
831.89243	0.04534
830.60666	0.04532
829.32089	0.04531
828.03512	0.04535
826.74936	0.04546
825.46359	0.04560
824.17782	0.04569
822.89205	0.04575
821.60628	0.04581
820.32051	0.04590
819.03474	0.04601
817.74897	0.04611
816.46321	0.04623
815.17744	0.04636
813.89167	0.04645
812.60590	0.04648
811.32013	0.04649
810.03436	0.04657
808.74859	0.04675
807.46282	0.04698
806.17705	0.04717
804.89129	0.04729
803.60552	0.04733
802.31975	0.04732
801.03398	0.04731
799.74821	0.04733
798.46244	0.04740
797.17667	0.04749
795.89090	0.04759
794.60513	0.04770
793.31937	0.04787
792.03360	0.04808
790.74783	0.04831
789.46206	0.04850
788.17629	0.04861
786.89052	0.04869
785.60475	0.04878
784.31898	0.04884
783.03322	0.04884
781.74745	0.04878
780.46168	0.04876
779.17591	0.04885
777.89014	0.04903
776.60437	0.04924
775.31860	0.04945
774.03283	0.04970
772.74706	0.04999
771.46130	0.05025
770.17553	0.05039
768.88976	0.05044
767.60399	0.05050
766.31822	0.05066
765.03245	0.05088
763.74668	0.05109
762.46091	0.05124
761.17515	0.05134
759.88938	0.05143
758.60361	0.05154
757.31784	0.05171
756.03207	0.05193
754.74630	0.05217
753.46053	0.05242
752.17476	0.05266
750.88899	0.05289
749.60323	0.05309
748.31746	0.05325
747.03169	0.05341
745.74592	0.05362
744.46015	0.05390
743.17438	0.05421
741.88861	0.05449
740.60284	0.05471
739.31708	0.05484
738.03131	0.05494
736.74554	0.05504
735.45977	0.05511
734.17400	0.05514
732.88823	0.05517
731.60246	0.05526
730.31669	0.05549
729.03092	0.05587
727.74516	0.05632
726.45939	0.05673
725.17362	0.05704
723.88785	0.05724
722.60208	0.05756
721.31631	0.05790
720.03054	0.05815
718.74477	0.05829
717.45901	0.05833
716.17324	0.05834
714.88747	0.05835
713.60170	0.05841
712.31593	0.05854
711.03016	0.05875
709.74439	0.05905
708.45862	0.05940
707.17285	0.05979
705.88709	0.06020
704.60132	0.06061
703.31555	0.06099
702.02978	0.06131
700.74401	0.06158
699.45824	0.06182
698.17247	0.06201
696.88670	0.06218
695.60094	0.06232
694.31517	0.06243
693.02940	0.06249
691.74363	0.06248
690.45786	0.06243
689.17209	0.06241
687.88632	0.06247
686.60055	0.06260
685.31478	0.06278
684.02902	0.06297
682.74325	0.06312
681.45748	0.06324
680.17171	0.06337
678.88594	0.06352
677.60017	0.06367
676.31440	0.06381
675.02863	0.06394
673.74287	0.06409
672.45710	0.06427
671.17133	0.06444
669.88556	0.06458
668.59979	0.06469
667.31402	0.06478
666.02825	0.06490
664.74248	0.06505
663.45671	0.06519
662.17095	0.06528
660.88518	0.06533
659.59941	0.06538
658.31364	0.06549
657.02787	0.06566
655.74210	0.06585
654.45633	0.06604
653.17056	0.06621
651.88480	0.06636
650.59903	0.06648
649.31326	0.06657
648.02749	0.06662
646.74172	0.06665
645.45595	0.06670
644.17018	0.06680
642.88441	0.06689
641.59864	0.06694
640.31288	0.06695
639.02711	0.06696
637.74134	0.06698
636.45557	0.06698
635.16980	0.06691
633.88403	0.06682
632.59826	0.06676
631.31249	0.06676
630.02673	0.06670
628.74096	0.06655
627.45519	0.06652
626.16942	0.06588
624.88365	0.06459
623.59788	0.06296
622.31211	0.06142
621.02634	0.06059
619.74057	0.06102
618.45481	0.06277
617.16904	0.06518
615.88327	0.06708
614.59750	0.06748
613.31173	0.06618
612.02596	0.06385
610.74019	0.06180
609.45442	0.06122
608.16866	0.06226
606.88289	0.06393
605.59712	0.06511
604.31135	0.06543
603.02558	0.06535
601.73981	0.06549
600.45404	0.06604
599.16827	0.06676
597.88250	0.06737
596.59674	0.06782
595.31097	0.06819
594.02520	0.06851
592.73943	0.06872
591.45366	0.06875
590.16789	0.06866
588.88212	0.06859
587.59635	0.06860
586.31059	0.06870
585.02482	0.06885
583.73905	0.06902
582.45328	0.06922
581.16751	0.06944
579.88174	0.06962
578.59597	0.06967
577.31020	0.06962
576.02443	0.06953
574.73867	0.06947
573.45290	0.06936
572.16713	0.06915
570.88136	0.06890
569.59559	0.06882
568.30982	0.06908
567.02405	0.06960
565.73828	0.07008
564.45251	0.07027
563.16675	0.07020
561.88098	0.07007
560.59521	0.07003
559.30944	0.07010
558.02367	0.07028
556.73790	0.07055
555.45213	0.07085
554.16636	0.07109
552.88060	0.07120
551.59483	0.07122
550.30906	0.07120
549.02329	0.07114
547.73752	0.07101
546.45175	0.07080
545.16598	0.07055
543.88021	0.07030
542.59444	0.07010
541.30868	0.07002
540.02291	0.07006
538.73714	0.07020
537.45137	0.07039
536.16560	0.07055
534.87983	0.07062
533.59406	0.07056
532.30829	0.07041
531.02253	0.07027
529.73676	0.07024
528.45099	0.07041
527.16522	0.07068
525.87945	0.07085
524.59368	0.07078
523.30791	0.07049
522.02214	0.07014
520.73637	0.06987
519.45061	0.06966
518.16484	0.06948
516.87907	0.06933
515.59330	0.06927
514.30753	0.06927
513.02176	0.06926
511.73599	0.06920
510.45022	0.06914
509.16446	0.06913
507.87869	0.06910
506.59292	0.06897
505.30715	0.06874
504.02138	0.06850
502.73561	0.06827
501.44984	0.06802
500.16407	0.06769
498.87830	0.06734
497.59254	0.06702
496.30677	0.06676
495.02100	0.06652
493.73523	0.06625
492.44946	0.06591
491.16369	0.06552
489.87792	0.06514
488.59215	0.06482
487.30639	0.06459
486.02062	0.06444
484.73485	0.06433
483.44908	0.06423
482.16331	0.06408
480.87754	0.06390
479.59177	0.06371
478.30600	0.06356
477.02023	0.06348
475.73447	0.06344
474.44870	0.06337
473.16293	0.06320
471.87716	0.06294
470.59139	0.06266
469.30562	0.06246
468.01985	0.06235
466.73408	0.06231
465.44832	0.06226
464.16255	0.06208
462.87678	0.06176
461.59101	0.06131
460.30524	0.06083
459.01947	0.06041
457.73370	0.06013
456.44793	0.05998
455.16216	0.05986
453.87640	0.05967
452.59063	0.05940
451.30486	0.05910
450.01909	0.05878
448.73332	0.05843
447.44755	0.05804
446.16178	0.05765
444.87601	0.05728
443.59025	0.05697
442.30448	0.05672
441.01871	0.05652
439.73294	0.05631
438.44717	0.05605
437.16140	0.05575
435.87563	0.05550
434.58986	0.05534
433.30409	0.05529
432.01833	0.05531
430.73256	0.05534
429.44679	0.05530
428.16102	0.05516
426.87525	0.05491
425.58948	0.05458
424.30371	0.05426
423.01794	0.05400
421.73218	0.05380
420.44641	0.05361
419.16064	0.05343
417.87487	0.05327
416.58910	0.05309
415.30333	0.05285
414.01756	0.05259
412.73179	0.05236
411.44602	0.05216
410.16026	0.05195
408.87449	0.05169
407.58872	0.05137
406.30295	0.05104
405.01718	0.05075
403.73141	0.05052
402.44564	0.05035
401.15987	0.05021
399.87411	0.05004
