3997.45528	0.02675
3996.16951	0.02590
3994.88374	0.02528
3993.59798	0.02509
3992.31221	0.02528
3991.02644	0.02564
3989.74067	0.02608
3988.45490	0.02653
3987.16913	0.02692
3985.88336	0.02717
3984.59759	0.02724
3983.31183	0.02718
3982.02606	0.02702
3980.74029	0.02685
3979.45452	0.02668
3978.16875	0.02642
3976.88298	0.02590
3975.59721	0.02516
3974.31144	0.02448
3973.02567	0.02418
3971.73991	0.02437
3970.45414	0.02494
3969.16837	0.02562
3967.88260	0.02613
3966.59683	0.02627
3965.31106	0.02598
3964.02529	0.02535
3962.73952	0.02455
3961.45376	0.02379
3960.16799	0.02323
3958.88222	0.02299
3957.59645	0.02317
3956.31068	0.02364
3955.02491	0.02405
3953.73914	0.02408
3952.45337	0.02384
3951.16760	0.02379
3949.88184	0.02422
3948.59607	0.02499
3947.31030	0.02573
3946.02453	0.02618
3944.73876	0.02633
3943.45299	0.02638
3942.16722	0.02648
3940.88145	0.02665
3939.59569	0.02680
3938.30992	0.02687
3937.02415	0.02680
3935.73838	0.02654
3934.45261	0.02612
3933.16684	0.02573
3931.88107	0.02560
3930.59530	0.02569
3929.30953	0.02577
3928.02377	0.02575
3926.73800	0.02570
3925.45223	0.02568
3924.16646	0.02564
3922.88069	0.02546
3921.59492	0.02518
3920.30915	0.02497
3919.02338	0.02490
3917.73762	0.02487
3916.45185	0.02477
3915.16608	0.02466
3913.88031	0.02474
3912.59454	0.02509
3911.30877	0.02554
3910.02300	0.02583
3908.73723	0.02591
3907.45146	0.02593
3906.16570	0.02602
3904.87993	0.02618
3903.59416	0.02634
3902.30839	0.02638
3901.02262	0.02623
3899.73685	0.02588
3898.45108	0.02545
3897.16531	0.02510
3895.87955	0.02491
3894.59378	0.02489
3893.30801	0.02500
3892.02224	0.02525
3890.73647	0.02561
3889.45070	0.02597
3888.16493	0.02607
3886.87916	0.02585
3885.59339	0.02548
3884.30763	0.02511
3883.02186	0.02476
3881.73609	0.02449
3880.45032	0.02441
3879.16455	0.02451
3877.87878	0.02456
3876.59301	0.02447
3875.30724	0.02445
3874.02148	0.02470
3872.73571	0.02503
3871.44994	0.02507
3870.16417	0.02474
3868.87840	0.02430
3867.59263	0.02384
3866.30686	0.02335
3865.02109	0.02292
3863.73532	0.02272
3862.44956	0.02287
3861.16379	0.02338
3859.87802	0.02412
3858.59225	0.02476
3857.30648	0.02496
3856.02071	0.02459
3854.73494	0.02395
3853.44917	0.02347
3852.16341	0.02337
3850.87764	0.02345
3849.59187	0.02352
3848.30610	0.02356
3847.02033	0.02366
3845.73456	0.02382
3844.44879	0.02392
3843.16302	0.02385
3841.87725	0.02358
3840.59149	0.02322
3839.30572	0.02290
3838.01995	0.02271
3836.73418	0.02266
3835.44841	0.02264
3834.16264	0.02262
3832.87687	0.02262
3831.59110	0.02261
3830.30534	0.02259
3829.01957	0.02261
3827.73380	0.02284
3826.44803	0.02334
3825.16226	0.02392
3823.87649	0.02424
3822.59072	0.02419
3821.30495	0.02403
3820.01918	0.02400
3818.73342	0.02399
3817.44765	0.02379
3816.16188	0.02352
3814.87611	0.02338
3813.59034	0.02335
3812.30457	0.02342
3811.01880	0.02355
3809.73303	0.02348
3808.44726	0.02294
3807.16150	0.02218
3805.87573	0.02171
3804.58996	0.02175
3803.30419	0.02214
3802.01842	0.02266
3800.73265	0.02316
3799.44688	0.02341
3798.16111	0.02337
3796.87535	0.02335
3795.58958	0.02364
3794.30381	0.02403
3793.01804	0.02415
3791.73227	0.02389
3790.44650	0.02344
3789.16073	0.02303
3787.87496	0.02277
3786.58919	0.02269
3785.30343	0.02273
3784.01766	0.02281
3782.73189	0.02291
3781.44612	0.02305
3780.16035	0.02331
3778.87458	0.02367
3777.58881	0.02398
3776.30304	0.02415
3775.01728	0.02422
3773.73151	0.02428
3772.44574	0.02423
3771.15997	0.02386
3769.87420	0.02311
3768.58843	0.02221
3767.30266	0.02157
3766.01689	0.02152
3764.73112	0.02198
3763.44536	0.02252
3762.15959	0.02268
3760.87382	0.02244
3759.58805	0.02210
3758.30228	0.02184
3757.01651	0.02163
3755.73074	0.02147
3754.44497	0.02150
3753.15921	0.02195
3751.87344	0.02276
3750.58767	0.02348
3749.30190	0.02372
3748.01613	0.02336
3746.73036	0.02251
3745.44459	0.02153
3744.15882	0.02087
3742.87305	0.02059
3741.58729	0.02032
3740.30152	0.02006
3739.01575	0.02013
3737.72998	0.02068
3736.44421	0.02154
3735.15844	0.02243
3733.87267	0.02313
3732.58690	0.02356
3731.30114	0.02375
3730.01537	0.02365
3728.72960	0.02320
3727.44383	0.02262
3726.15806	0.02226
3724.87229	0.02232
3723.58652	0.02261
3722.30075	0.02281
3721.01498	0.02274
3719.72922	0.02252
3718.44345	0.02245
3717.15768	0.02266
3715.87191	0.02290
3714.58614	0.02286
3713.30037	0.02259
3712.01460	0.02250
3710.72883	0.02288
3709.44307	0.02356
3708.15730	0.02414
3706.87153	0.02431
3705.58576	0.02397
3704.29999	0.02317
3703.01422	0.02220
3701.72845	0.02145
3700.44268	0.02116
3699.15691	0.02121
3697.87115	0.02126
3696.58538	0.02116
3695.29961	0.02101
3694.01384	0.02101
3692.72807	0.02123
3691.44230	0.02152
3690.15653	0.02169
3688.87076	0.02167
3687.58500	0.02159
3686.29923	0.02152
3685.01346	0.02147
3683.72769	0.02148
3682.44192	0.02156
3681.15615	0.02164
3679.87038	0.02164
3678.58461	0.02150
3677.29884	0.02126
3676.01308	0.02122
3674.72731	0.02166
3673.44154	0.02242
3672.15577	0.02307
3670.87000	0.02352
3669.58423	0.02393
3668.29846	0.02421
3667.01269	0.02408
3665.72693	0.02350
3664.44116	0.02281
3663.15539	0.02234
3661.86962	0.02224
3660.58385	0.02250
3659.29808	0.02297
3658.01231	0.02351
3656.72654	0.02395
3655.44077	0.02417
3654.15501	0.02410
3652.86924	0.02368
3651.58347	0.02300
3650.29770	0.02230
3649.01193	0.02191
3647.72616	0.02205
3646.44039	0.02273
3645.15462	0.02371
3643.86886	0.02461
3642.58309	0.02512
3641.29732	0.02510
3640.01155	0.02468
3638.72578	0.02416
3637.44001	0.02380
3636.15424	0.02367
3634.86847	0.02382
3633.58270	0.02432
3632.29694	0.02508
3631.01117	0.02587
3629.72540	0.02652
3628.43963	0.02703
3627.15386	0.02736
3625.86809	0.02739
3624.58232	0.02718
3623.29655	0.02698
3622.01079	0.02693
3620.72502	0.02700
3619.43925	0.02708
3618.15348	0.02710
3616.86771	0.02701
3615.58194	0.02682
3614.29617	0.02662
3613.01040	0.02648
3611.72463	0.02636
3610.43887	0.02621
3609.15310	0.02606
3607.86733	0.02605
3606.58156	0.02630
3605.29579	0.02680
3604.01002	0.02745
3602.72425	0.02813
3601.43848	0.02872
3600.15272	0.02913
3598.86695	0.02930
3597.58118	0.02930
3596.29541	0.02929
3595.00964	0.02944
3593.72387	0.02979
3592.43810	0.03014
3591.15233	0.03024
3589.86656	0.03000
3588.58080	0.02968
3587.29503	0.02969
3586.00926	0.03018
3584.72349	0.03082
3583.43772	0.03116
3582.15195	0.03115
3580.86618	0.03111
3579.58041	0.03133
3578.29464	0.03170
3577.00888	0.03194
3575.72311	0.03196
3574.43734	0.03193
3573.15157	0.03205
3571.86580	0.03240
3570.58003	0.03295
3569.29426	0.03365
3568.00849	0.03445
3566.72273	0.03530
3565.43696	0.03601
3564.15119	0.03635
3562.86542	0.03627
3561.57965	0.03596
3560.29388	0.03563
3559.00811	0.03541
3557.72234	0.03531
3556.43657	0.03537
3555.15081	0.03568
3553.86504	0.03617
3552.57927	0.03660
3551.29350	0.03678
3550.00773	0.03676
3548.72196	0.03677
3547.43619	0.03699
3546.15042	0.03745
3544.86466	0.03806
3543.57889	0.03856
3542.29312	0.03870
3541.00735	0.03842
3539.72158	0.03796
3538.43581	0.03775
3537.15004	0.03800
3535.86427	0.03860
3534.57850	0.03921
3533.29274	0.03960
3532.00697	0.03976
3530.72120	0.03980
3529.43543	0.03983
3528.14966	0.03994
3526.86389	0.04020
3525.57812	0.04064
3524.29235	0.04116
3523.00659	0.04169
3521.72082	0.04216
3520.43505	0.04261
3519.14928	0.04301
3517.86351	0.04331
3516.57774	0.04342
3515.29197	0.04336
3514.00620	0.04333
3512.72043	0.04353
3511.43467	0.04401
3510.14890	0.04462
3508.86313	0.04512
3507.57736	0.04534
3506.29159	0.04533
3505.00582	0.04526
3503.72005	0.04529
3502.43428	0.04549
3501.14852	0.04585
3499.86275	0.04635
3498.57698	0.04690
3497.29121	0.04729
3496.00544	0.04737
3494.71967	0.04714
3493.43390	0.04684
3492.14813	0.04682
3490.86236	0.04722
3489.57660	0.04785
3488.29083	0.04839
3487.00506	0.04863
3485.71929	0.04862
3484.43352	0.04853
3483.14775	0.04852
3481.86198	0.04873
3480.57621	0.04920
3479.29045	0.04983
3478.00468	0.05033
3476.71891	0.05046
3475.43314	0.05027
3474.14737	0.05004
3472.86160	0.05006
3471.57583	0.05032
3470.29006	0.05060
3469.00429	0.05074
3467.71853	0.05075
3466.43276	0.05075
3465.14699	0.05082
3463.86122	0.05096
3462.57545	0.05113
3461.28968	0.05132
3460.00391	0.05156
3458.71814	0.05182
3457.43238	0.05206
3456.14661	0.05225
3454.86084	0.05240
3453.57507	0.05256
3452.28930	0.05269
3451.00353	0.05270
3449.71776	0.05260
3448.43199	0.05257
3447.14622	0.05278
3445.86046	0.05319
3444.57469	0.05352
3443.28892	0.05363
3442.00315	0.05360
3440.71738	0.05366
3439.43161	0.05389
3438.14584	0.05420
3436.86007	0.05444
3435.57431	0.05458
3434.28854	0.05476
3433.00277	0.05505
3431.71700	0.05532
3430.43123	0.05536
3429.14546	0.05519
3427.85969	0.05511
3426.57392	0.05535
3425.28815	0.05587
3424.00239	0.05645
3422.71662	0.05690
3421.43085	0.05725
3420.14508	0.05755
3418.85931	0.05783
3417.57354	0.05807
3416.28777	0.05826
3415.00200	0.05837
3413.71624	0.05835
3412.43047	0.05819
3411.14470	0.05806
3409.85893	0.05805
3408.57316	0.05812
3407.28739	0.05818
3406.00162	0.05834
3404.71585	0.05882
3403.43008	0.05964
3402.14432	0.06055
3400.85855	0.06125
3399.57278	0.06167
3398.28701	0.06198
3397.00124	0.06231
3395.71547	0.06265
3394.42970	0.06282
3393.14393	0.06276
3391.85817	0.06257
3390.57240	0.06248
3389.28663	0.06262
3388.00086	0.06303
3386.71509	0.06353
3385.42932	0.06383
3384.14355	0.06379
3382.85778	0.06361
3381.57201	0.06366
3380.28625	0.06419
3379.00048	0.06501
3377.71471	0.06570
3376.42894	0.06598
3375.14317	0.06587
3373.85740	0.06561
3372.57163	0.06541
3371.28586	0.06544
3370.00010	0.06577
3368.71433	0.06638
3367.42856	0.06707
3366.14279	0.06764
3364.85702	0.06803
3363.57125	0.06832
3362.28548	0.06856
3360.99971	0.06876
3359.71394	0.06897
3358.42818	0.06928
3357.14241	0.06970
3355.85664	0.07013
3354.57087	0.07053
3353.28510	0.07099
3351.99933	0.07160
3350.71356	0.07219
3349.42779	0.07245
3348.14202	0.07227
3346.85626	0.07194
3345.57049	0.07189
3344.28472	0.07230
3342.99895	0.07293
3341.71318	0.07343
3340.42741	0.07367
3339.14164	0.07388
3337.85587	0.07433
3336.57011	0.07508
3335.28434	0.07593
3333.99857	0.07663
3332.71280	0.07706
3331.42703	0.07732
3330.14126	0.07751
3328.85549	0.07769
3327.56972	0.07780
3326.28395	0.07784
3324.99819	0.07789
3323.71242	0.07804
3322.42665	0.07826
3321.14088	0.07847
3319.85511	0.07861
3318.56934	0.07869
3317.28357	0.07871
3315.99780	0.07869
3314.71204	0.07874
3313.42627	0.07901
3312.14050	0.07955
3310.85473	0.08022
3309.56896	0.08083
3308.28319	0.08132
3306.99742	0.08170
3305.71165	0.08198
3304.42588	0.08214
3303.14012	0.08225
3301.85435	0.08247
3300.56858	0.08288
3299.28281	0.08329
3297.99704	0.08347
3296.71127	0.08333
3295.42550	0.08305
3294.13973	0.08290
3292.85397	0.08299
3291.56820	0.08322
3290.28243	0.08343
3288.99666	0.08357
3287.71089	0.08366
3286.42512	0.08372
3285.13935	0.08371
3283.85358	0.08363
3282.56781	0.08353
3281.28205	0.08354
3279.99628	0.08371
3278.71051	0.08400
3277.42474	0.08427
3276.13897	0.08437
3274.85320	0.08423
3273.56743	0.08392
3272.28166	0.08352
3270.99590	0.08306
3269.71013	0.08258
3268.42436	0.08216
3267.13859	0.08187
3265.85282	0.08170
3264.56705	0.08157
3263.28128	0.08140
3261.99551	0.08113
3260.70974	0.08074
3259.42398	0.08028
3258.13821	0.07997
3256.85244	0.07994
3255.56667	0.08013
3254.28090	0.08030
3252.99513	0.08029
3251.70936	0.08014
3250.42359	0.07999
3249.13783	0.07989
3247.85206	0.07968
3246.56629	0.07925
3245.28052	0.07866
3243.99475	0.07816
3242.70898	0.07787
3241.42321	0.07771
3240.13744	0.07750
3238.85167	0.07714
3237.56591	0.07677
3236.28014	0.07655
3234.99437	0.07654
3233.70860	0.07651
3232.42283	0.07623
3231.13706	0.07572
3229.85129	0.07525
3228.56552	0.07507
3227.27976	0.07506
3225.99399	0.07495
3224.70822	0.07463
3223.42245	0.07434
3222.13668	0.07434
3220.85091	0.07469
3219.56514	0.07517
3218.27937	0.07546
3216.99360	0.07541
3215.70784	0.07508
3214.42207	0.07468
3213.13630	0.07437
3211.85053	0.07414
3210.56476	0.07390
3209.27899	0.07351
3207.99322	0.07295
3206.70745	0.07227
3205.42169	0.07163
3204.13592	0.07118
3202.85015	0.07101
3201.56438	0.07107
3200.27861	0.07124
3198.99284	0.07143
3197.70707	0.07154
3196.42130	0.07151
3195.13553	0.07128
3193.84977	0.07096
3192.56400	0.07070
3191.27823	0.07059
3189.99246	0.07055
3188.70669	0.07044
3187.42092	0.07018
3186.13515	0.06987
3184.84938	0.06958
3183.56362	0.06934
3182.27785	0.06914
3180.99208	0.06898
3179.70631	0.06888
3178.42054	0.06881
3177.13477	0.06871
3175.84900	0.06849
3174.56323	0.06814
3173.27746	0.06775
3171.99170	0.06747
3170.70593	0.06730
3169.42016	0.06714
3168.13439	0.06692
3166.84862	0.06674
3165.56285	0.06660
3164.27708	0.06636
3162.99131	0.06587
3161.70555	0.06525
3160.41978	0.06478
3159.13401	0.06465
3157.84824	0.06474
3156.56247	0.06477
3155.27670	0.06461
3153.99093	0.06430
3152.70516	0.06392
3151.41939	0.06355
3150.13363	0.06319
3148.84786	0.06290
3147.56209	0.06272
3146.27632	0.06261
3144.99055	0.06250
3143.70478	0.06234
3142.41901	0.06222
3141.13324	0.06220
3139.84748	0.06222
3138.56171	0.06209
3137.27594	0.06170
3135.99017	0.06113
3134.70440	0.06058
3133.41863	0.06014
3132.13286	0.05983
3130.84709	0.05957
3129.56132	0.05935
3128.27556	0.05919
3126.98979	0.05912
3125.70402	0.05911
3124.41825	0.05914
3123.13248	0.05915
3121.84671	0.05904
3120.56094	0.05874
3119.27517	0.05833
3117.98940	0.05803
3116.70364	0.05807
3115.41787	0.05841
3114.13210	0.05880
3112.84633	0.05893
3111.56056	0.05874
3110.27479	0.05842
3108.98902	0.05823
3107.70325	0.05827
3106.41749	0.05848
3105.13172	0.05872
3103.84595	0.05893
3102.56018	0.05909
3101.27441	0.05922
3099.98864	0.05936
3098.70287	0.05953
3097.41710	0.05969
3096.13133	0.05981
3094.84557	0.05987
3093.55980	0.05989
3092.27403	0.05995
3090.98826	0.06013
3089.70249	0.06043
3088.41672	0.06069
3087.13095	0.06075
3085.84518	0.06055
3084.55942	0.06015
3083.27365	0.05976
3081.98788	0.05955
3080.70211	0.05956
3079.41634	0.05977
3078.13057	0.06007
3076.84480	0.06035
3075.55903	0.06052
3074.27326	0.06052
3072.98750	0.06033
3071.70173	0.06008
3070.41596	0.05992
3069.13019	0.05990
3067.84442	0.05996
3066.55865	0.05996
3065.27288	0.05987
3063.98711	0.05971
3062.70135	0.05955
3061.41558	0.05945
3060.12981	0.05949
3058.84404	0.05969
3057.55827	0.05986
3056.27250	0.05981
3054.98673	0.05949
3053.70096	0.05910
3052.41519	0.05883
3051.12943	0.05862
3049.84366	0.05837
3048.55789	0.05801
3047.27212	0.05763
3045.98635	0.05731
3044.70058	0.05715
3043.41481	0.05718
3042.12904	0.05737
3040.84328	0.05759
3039.55751	0.05771
3038.27174	0.05769
3036.98597	0.05756
3035.70020	0.05732
3034.41443	0.05694
3033.12866	0.05643
3031.84289	0.05588
3030.55712	0.05537
3029.27136	0.05492
3027.98559	0.05452
3026.69982	0.05421
3025.41405	0.05397
3024.12828	0.05377
3022.84251	0.05362
3021.55674	0.05356
3020.27097	0.05360
3018.98521	0.05368
3017.69944	0.05372
3016.41367	0.05365
3015.12790	0.05349
3013.84213	0.05327
3012.55636	0.05301
3011.27059	0.05276
3009.98482	0.05253
3008.69905	0.05236
3007.41329	0.05226
3006.12752	0.05224
3004.84175	0.05226
3003.55598	0.05228
3002.27021	0.05226
3000.98444	0.05215
2999.69867	0.05196
2998.41290	0.05188
2997.12714	0.05193
2995.84137	0.05208
2994.55560	0.05224
2993.26983	0.05234
2991.98406	0.05233
2990.69829	0.05223
2989.41252	0.05214
2988.12675	0.05217
2986.84098	0.05239
2985.55522	0.05273
2984.26945	0.05311
2982.98368	0.05354
2981.69791	0.05409
2980.41214	0.05479
2979.12637	0.05552
2977.84060	0.05607
2976.55483	0.05631
2975.26907	0.05631
2973.98330	0.05623
2972.69753	0.05621
2971.41176	0.05630
2970.12599	0.05651
2968.84022	0.05680
2967.55445	0.05716
2966.26868	0.05757
2964.98291	0.05802
2963.69715	0.05842
2962.41138	0.05866
2961.12561	0.05871
2959.83984	0.05866
2958.55407	0.05867
2957.26830	0.05882
2955.98253	0.05907
2954.69676	0.05923
2953.41100	0.05919
2952.12523	0.05899
2950.83946	0.05886
2949.55369	0.05895
2948.26792	0.05928
2946.98215	0.05970
2945.69638	0.06000
2944.41061	0.06006
2943.12484	0.05989
2941.83908	0.05965
2940.55331	0.05953
2939.26754	0.05961
2937.98177	0.05989
2936.69600	0.06030
2935.41023	0.06072
2934.12446	0.06105
2932.83869	0.06128
2931.55293	0.06147
2930.26716	0.06163
2928.98139	0.06172
2927.69562	0.06172
2926.40985	0.06167
2925.12408	0.06160
2923.83831	0.06148
2922.55254	0.06130
2921.26677	0.06116
2919.98101	0.06107
2918.69524	0.06096
2917.40947	0.06071
2916.12370	0.06029
2914.83793	0.05976
2913.55216	0.05919
2912.26639	0.05863
2910.98062	0.05814
2909.69486	0.05771
2908.40909	0.05723
2907.12332	0.05660
2905.83755	0.05588
2904.55178	0.05527
2903.26601	0.05493
2901.98024	0.05478
2900.69447	0.05461
2899.40870	0.05436
2898.12294	0.05408
2896.83717	0.05385
2895.55140	0.05364
2894.26563	0.05339
2892.97986	0.05312
2891.69409	0.05290
2890.40832	0.05280
2889.12255	0.05281
2887.83678	0.05293
2886.55102	0.05309
2885.26525	0.05322
2883.97948	0.05324
2882.69371	0.05317
2881.40794	0.05307
2880.12217	0.05301
2878.83640	0.05302
2877.55063	0.05304
2876.26487	0.05303
2874.97910	0.05302
2873.69333	0.05309
2872.40756	0.05325
2871.12179	0.05338
2869.83602	0.05329
2868.55025	0.05294
2867.26448	0.05243
2865.97871	0.05196
2864.69295	0.05173
2863.40718	0.05182
2862.12141	0.05206
2860.83564	0.05218
2859.54987	0.05201
2858.26410	0.05160
2856.97833	0.05118
2855.69256	0.05094
2854.40680	0.05098
2853.12103	0.05117
2851.83526	0.05126
2850.54949	0.05108
2849.26372	0.05070
2847.97795	0.05031
2846.69218	0.05002
2845.40641	0.04976
2844.12064	0.04941
2842.83488	0.04897
2841.54911	0.04855
2840.26334	0.04819
2838.97757	0.04788
2837.69180	0.04757
2836.40603	0.04727
2835.12026	0.04704
2833.83449	0.04690
2832.54873	0.04676
2831.26296	0.04655
2829.97719	0.04631
2828.69142	0.04609
2827.40565	0.04589
2826.11988	0.04568
2824.83411	0.04545
2823.54834	0.04524
2822.26257	0.04514
2820.97681	0.04516
2819.69104	0.04521
2818.40527	0.04520
2817.11950	0.04511
2815.83373	0.04496
2814.54796	0.04476
2813.26219	0.04449
2811.97642	0.04418
2810.69066	0.04393
2809.40489	0.04381
2808.11912	0.04375
2806.83335	0.04365
2805.54758	0.04352
2804.26181	0.04347
2802.97604	0.04360
2801.69027	0.04386
2800.40450	0.04410
2799.11874	0.04415
2797.83297	0.04397
2796.54720	0.04363
2795.26143	0.04325
2793.97566	0.04296
2792.68989	0.04282
2791.40412	0.04279
2790.11835	0.04277
2788.83259	0.04269
2787.54682	0.04256
2786.26105	0.04249
2784.97528	0.04253
2783.68951	0.04259
2782.40374	0.04258
2781.11797	0.04249
2779.83220	0.04237
2778.54643	0.04226
2777.26067	0.04212
2775.97490	0.04191
2774.68913	0.04166
2773.40336	0.04148
2772.11759	0.04147
2770.83182	0.04160
2769.54605	0.04171
2768.26028	0.04168
2766.97452	0.04154
2765.68875	0.04144
2764.40298	0.04143
2763.11721	0.04141
2761.83144	0.04123
2760.54567	0.04089
2759.25990	0.04053
2757.97413	0.04027
2756.68836	0.04011
2755.40260	0.04002
2754.11683	0.04004
2752.83106	0.04022
2751.54529	0.04050
2750.25952	0.04071
2748.97375	0.04069
2747.68798	0.04046
2746.40221	0.04016
2745.11645	0.03989
2743.83068	0.03967
2742.54491	0.03945
2741.25914	0.03920
2739.97337	0.03896
2738.68760	0.03874
2737.40183	0.03859
2736.11606	0.03848
2734.83029	0.03841
2733.54453	0.03840
2732.25876	0.03847
2730.97299	0.03862
2729.68722	0.03880
2728.40145	0.03895
2727.11568	0.03901
2725.82991	0.03895
2724.54414	0.03880
2723.25838	0.03869
2721.97261	0.03868
2720.68684	0.03867
2719.40107	0.03850
2718.11530	0.03815
2716.82953	0.03779
2715.54376	0.03759
2714.25799	0.03755
2712.97222	0.03758
2711.68646	0.03755
2710.40069	0.03744
2709.11492	0.03734
2707.82915	0.03735
2706.54338	0.03746
2705.25761	0.03756
2703.97184	0.03756
2702.68607	0.03748
2701.40031	0.03738
2700.11454	0.03730
2698.82877	0.03721
2697.54300	0.03707
2696.25723	0.03689
2694.97146	0.03672
2693.68569	0.03662
2692.39992	0.03659
2691.11415	0.03657
2689.82839	0.03650
2688.54262	0.03641
2687.25685	0.03634
2685.97108	0.03627
2684.68531	0.03616
2683.39954	0.03601
2682.11377	0.03593
2680.82800	0.03597
2679.54224	0.03606
2678.25647	0.03604
2676.97070	0.03583
2675.68493	0.03553
2674.39916	0.03525
2673.11339	0.03505
2671.82762	0.03496
2670.54185	0.03503
2669.25608	0.03528
2667.97032	0.03564
2666.68455	0.03589
2665.39878	0.03588
2664.11301	0.03563
2662.82724	0.03533
2661.54147	0.03513
2660.25570	0.03506
2658.96993	0.03503
2657.68417	0.03504
2656.39840	0.03514
2655.11263	0.03530
2653.82686	0.03536
2652.54109	0.03527
2651.25532	0.03509
2649.96955	0.03490
2648.68378	0.03465
2647.39801	0.03427
2646.11225	0.03384
2644.82648	0.03357
2643.54071	0.03355
2642.25494	0.03370
2640.96917	0.03383
2639.68340	0.03382
2638.39763	0.03370
2637.11186	0.03358
2635.82609	0.03349
2634.54033	0.03334
2633.25456	0.03305
2631.96879	0.03267
2630.68302	0.03238
2629.39725	0.03229
2628.11148	0.03235
2626.82571	0.03246
2625.53994	0.03260
2624.25418	0.03272
2622.96841	0.03276
2621.68264	0.03264
2620.39687	0.03238
2619.11110	0.03206
2617.82533	0.03181
2616.53956	0.03173
2615.25379	0.03180
2613.96802	0.03183
2612.68226	0.03168
2611.39649	0.03139
2610.11072	0.03112
2608.82495	0.03096
2607.53918	0.03085
2606.25341	0.03079
2604.96764	0.03085
2603.68187	0.03104
2602.39611	0.03119
2601.11034	0.03107
2599.82457	0.03072
2598.53880	0.03036
2597.25303	0.03019
2595.96726	0.03020
2594.68149	0.03020
2593.39572	0.03009
2592.10995	0.02994
2590.82419	0.02988
2589.53842	0.02991
2588.25265	0.02987
2586.96688	0.02967
2585.68111	0.02941
2584.39534	0.02929
2583.10957	0.02937
2581.82380	0.02956
2580.53804	0.02979
2579.25227	0.03002
2577.96650	0.03021
2576.68073	0.03038
2575.39496	0.03054
2574.10919	0.03053
2572.82342	0.03010
2571.53765	0.02931
2570.25188	0.02861
2568.96612	0.02844
2567.68035	0.02872
2566.39458	0.02895
2565.10881	0.02886
2563.82304	0.02855
2562.53727	0.02828
2561.25150	0.02817
2559.96573	0.02813
2558.67997	0.02810
2557.39420	0.02812
2556.10843	0.02821
2554.82266	0.02825
2553.53689	0.02806
2552.25112	0.02766
2550.96535	0.02725
2549.67958	0.02703
2548.39381	0.02703
2547.10805	0.02714
2545.82228	0.02725
2544.53651	0.02733
2543.25074	0.02736
2541.96497	0.02729
2540.67920	0.02707
2539.39343	0.02684
2538.10766	0.02682
2536.82190	0.02699
2535.53613	0.02708
2534.25036	0.02680
2532.96459	0.02626
2531.67882	0.02571
2530.39305	0.02534
2529.10728	0.02513
2527.82151	0.02511
2526.53574	0.02532
2525.24998	0.02569
2523.96421	0.02600
2522.67844	0.02604
2521.39267	0.02586
2520.10690	0.02574
2518.82113	0.02591
2517.53536	0.02635
2516.24959	0.02690
2514.96383	0.02737
2513.67806	0.02753
2512.39229	0.02726
2511.10652	0.02662
2509.82075	0.02590
2508.53498	0.02533
2507.24921	0.02499
2505.96344	0.02490
2504.67767	0.02506
2503.39191	0.02543
2502.10614	0.02590
2500.82037	0.02629
2499.53460	0.02644
2498.24883	0.02630
2496.96306	0.02599
2495.67729	0.02572
2494.39152	0.02563
2493.10576	0.02572
2491.81999	0.02585
2490.53422	0.02583
2489.24845	0.02548
2487.96268	0.02483
2486.67691	0.02409
2485.39114	0.02354
2484.10537	0.02335
2482.81960	0.02350
2481.53384	0.02387
2480.24807	0.02434
2478.96230	0.02481
2477.67653	0.02520
2476.39076	0.02548
2475.10499	0.02574
2473.81922	0.02609
2472.53345	0.02640
2471.24769	0.02639
2469.96192	0.02595
2468.67615	0.02538
2467.39038	0.02507
2466.10461	0.02508
2464.81884	0.02516
2463.53307	0.02514
2462.24730	0.02509
2460.96153	0.02510
2459.67577	0.02508
2458.39000	0.02498
2457.10423	0.02487
2455.81846	0.02487
2454.53269	0.02500
2453.24692	0.02512
2451.96115	0.02519
2450.67538	0.02522
2449.38962	0.02527
2448.10385	0.02530
2446.81808	0.02523
2445.53231	0.02500
2444.24654	0.02478
2442.96077	0.02478
2441.67500	0.02506
2440.38923	0.02539
2439.10346	0.02555
2437.81770	0.02555
2436.53193	0.02551
2435.24616	0.02552
2433.96039	0.02553
2432.67462	0.02544
2431.38885	0.02526
2430.10308	0.02508
2428.81731	0.02501
2427.53155	0.02506
2426.24578	0.02508
2424.96001	0.02498
2423.67424	0.02479
2422.38847	0.02464
2421.10270	0.02453
2419.81693	0.02438
2418.53116	0.02419
2417.24539	0.02409
2415.95963	0.02414
2414.67386	0.02421
2413.38809	0.02415
2412.10232	0.02394
2410.81655	0.02371
2409.53078	0.02355
2408.24501	0.02347
2406.95924	0.02337
2405.67347	0.02326
2404.38771	0.02326
2403.10194	0.02345
2401.81617	0.02373
2400.53040	0.02389
2399.24463	0.02378
2397.95886	0.02354
2396.67309	0.02330
2395.38732	0.02319
2394.10156	0.02330
2392.81579	0.02360
2391.53002	0.02392
2390.24425	0.02412
2388.95848	0.02420
2387.67271	0.02423
2386.38694	0.02424
2385.10117	0.02419
2383.81540	0.02405
2382.52964	0.02389
2381.24387	0.02379
2379.95810	0.02375
2378.67233	0.02372
2377.38656	0.02370
2376.10079	0.02372
2374.81502	0.02382
2373.52925	0.02399
2372.24349	0.02421
2370.95772	0.02444
2369.67195	0.02461
2368.38618	0.02469
2367.10041	0.02472
2365.81464	0.02481
2364.52887	0.02499
2363.24310	0.02521
2361.95733	0.02536
2360.67157	0.02541
2359.38580	0.02539
2358.10003	0.02532
2356.81426	0.02519
2355.52849	0.02503
2354.24272	0.02490
2352.95695	0.02483
2351.67118	0.02477
2350.38542	0.02467
2349.09965	0.02454
2347.81388	0.02451
2346.52811	0.02468
2345.24234	0.02504
2343.95657	0.02546
2342.67080	0.02576
2341.38503	0.02585
2340.09926	0.02574
2338.81350	0.02547
2337.52773	0.02510
2336.24196	0.02478
2334.95619	0.02464
2333.67042	0.02472
2332.38465	0.02490
2331.09888	0.02500
2329.81311	0.02495
2328.52735	0.02489
2327.24158	0.02498
2325.95581	0.02522
2324.67004	0.02540
2323.38427	0.02534
2322.09850	0.02505
2320.81273	0.02473
2319.52696	0.02456
2318.24119	0.02452
2316.95543	0.02446
2315.66966	0.02425
2314.38389	0.02388
2313.09812	0.02347
2311.81235	0.02318
2310.52658	0.02308
2309.24081	0.02310
2307.95504	0.02312
2306.66928	0.02300
2305.38351	0.02275
2304.09774	0.02250
2302.81197	0.02245
2301.52620	0.02264
2300.24043	0.02285
2298.95466	0.02284
2297.66889	0.02258
2296.38312	0.02222
2295.09736	0.02192
2293.81159	0.02169
2292.52582	0.02148
2291.24005	0.02132
2289.95428	0.02129
2288.66851	0.02141
2287.38274	0.02161
2286.09697	0.02186
2284.81121	0.02212
2283.52544	0.02233
2282.23967	0.02234
2280.95390	0.02201
2279.66813	0.02139
2278.38236	0.02066
2277.09659	0.02005
2275.81082	0.01972
2274.52505	0.01965
2273.23929	0.01962
2271.95352	0.01947
2270.66775	0.01918
2269.38198	0.01892
2268.09621	0.01877
2266.81044	0.01878
2265.52467	0.01890
2264.23890	0.01906
2262.95314	0.01912
2261.66737	0.01900
2260.38160	0.01877
2259.09583	0.01862
2257.81006	0.01867
2256.52429	0.01892
2255.23852	0.01925
2253.95275	0.01952
2252.66698	0.01962
2251.38122	0.01949
2250.09545	0.01921
2248.80968	0.01893
2247.52391	0.01864
2246.23814	0.01842
2244.95237	0.01823
2243.66660	0.01808
2242.38083	0.01802
2241.09507	0.01807
2239.80930	0.01812
2238.52353	0.01795
2237.23776	0.01750
2235.95199	0.01702
2234.66622	0.01685
2233.38045	0.01700
2232.09468	0.01724
2230.80891	0.01741
2229.52315	0.01750
2228.23738	0.01743
2226.95161	0.01703
2225.66584	0.01630
2224.38007	0.01551
2223.09430	0.01494
2221.80853	0.01461
2220.52276	0.01428
2219.23700	0.01389
2217.95123	0.01382
2216.66546	0.01439
2215.37969	0.01535
2214.09392	0.01597
2212.80815	0.01582
2211.52238	0.01519
2210.23661	0.01470
2208.95084	0.01473
2207.66508	0.01519
2206.37931	0.01564
2205.09354	0.01558
2203.80777	0.01492
2202.52200	0.01412
2201.23623	0.01377
2199.95046	0.01404
2198.66469	0.01463
2197.37893	0.01513
2196.09316	0.01529
2194.80739	0.01494
2193.52162	0.01403
2192.23585	0.01288
2190.95008	0.01211
2189.66431	0.01212
2188.37854	0.01268
2187.09277	0.01320
2185.80701	0.01327
2184.52124	0.01295
2183.23547	0.01261
2181.94970	0.01261
2180.66393	0.01316
2179.37816	0.01403
2178.09239	0.01455
2176.80662	0.01412
2175.52085	0.01290
2174.23509	0.01170
2172.94932	0.01110
2171.66355	0.01094
2170.37778	0.01066
2169.09201	0.00991
2167.80624	0.00889
2166.52047	0.00816
2165.23470	0.00823
2163.94894	0.00929
2162.66317	0.01076
2161.37740	0.01146
2160.09163	0.01054
2158.80586	0.00847
2157.52009	0.00675
2156.23432	0.00632
2154.94855	0.00698
2153.66278	0.00820
2152.37702	0.00968
2151.09125	0.01112
2149.80548	0.01202
2148.51971	0.01201
2147.23394	0.01129
2145.94817	0.01054
2144.66240	0.01031
2143.37663	0.01074
2142.09087	0.01156
2140.80510	0.01251
2139.51933	0.01345
2138.23356	0.01420
2136.94779	0.01450
2135.66202	0.01420
2134.37625	0.01347
2133.09048	0.01276
2131.80471	0.01245
2130.51895	0.01263
2129.23318	0.01313
2127.94741	0.01369
2126.66164	0.01420
2125.37587	0.01477
2124.09010	0.01551
2122.80433	0.01616
2121.51856	0.01637
2120.23280	0.01614
2118.94703	0.01589
2117.66126	0.01594
2116.37549	0.01616
2115.08972	0.01621
2113.80395	0.01595
2112.51818	0.01544
2111.23241	0.01487
2109.94664	0.01441
2108.66088	0.01417
2107.37511	0.01413
2106.08934	0.01420
2104.80357	0.01437
2103.51780	0.01479
2102.23203	0.01551
2100.94626	0.01648
2099.66049	0.01961
2098.37473	0.02109
2097.08896	0.02085
2095.80319	0.01988
2094.51742	0.01862
2093.23165	0.01729
2091.94588	0.01606
2090.66011	0.01504
2089.37434	0.01426
2088.08857	0.01383
2086.80281	0.01391
2085.51704	0.01452
2084.23127	0.01536
2082.94550	0.01599
2081.65973	0.01618
2080.37396	0.01619
2079.08819	0.01641
2077.80242	0.01706
2076.51666	0.01797
2075.23089	0.01873
2073.94512	0.01892
2072.65935	0.01844
2071.37358	0.01751
2070.08781	0.01648
2068.80204	0.01557
2067.51627	0.01484
2066.23050	0.01426
2064.94474	0.01380
2063.65897	0.01345
2062.37320	0.01325
2061.08743	0.01324
2059.80166	0.01329
2058.51589	0.01316
2057.23012	0.01259
2055.94435	0.01163
2054.65859	0.01068
2053.37282	0.01033
2052.08705	0.01105
2050.80128	0.01265
2049.51551	0.01440
2048.22974	0.01554
2046.94397	0.01587
2045.65820	0.01572
2044.37243	0.01550
2043.08667	0.01532
2041.80090	0.01506
2040.51513	0.01470
2039.22936	0.01452
2037.94359	0.01478
2036.65782	0.01537
2035.37205	0.01583
2034.08628	0.01580
2032.80052	0.01533
2031.51475	0.01470
2030.22898	0.01417
2028.94321	0.01392
2027.65744	0.01391
2026.37167	0.01377
2025.08590	0.01312
2023.80013	0.01213
2022.51436	0.01155
2021.22860	0.01191
2019.94283	0.01291
2018.65706	0.01365
2017.37129	0.01356
2016.08552	0.01279
2014.79975	0.01205
2013.51398	0.01189
2012.22821	0.01226
2010.94245	0.01274
2009.65668	0.01306
2008.37091	0.01334
2007.08514	0.01372
2005.79937	0.01403
2004.51360	0.01394
2003.22783	0.01331
2001.94206	0.01233
2000.65629	0.01136
1999.37053	0.01077
1998.08476	0.01078
1996.79899	0.01129
1995.51322	0.01194
1994.22745	0.01239
1992.94168	0.01255
1991.65591	0.01240
1990.37014	0.01195
1989.08438	0.01129
1987.79861	0.01070
1986.51284	0.01048
1985.22707	0.01070
1983.94130	0.01140
1982.65553	0.01275
1981.36976	0.01488
1980.08399	0.01749
1978.79822	0.01980
1977.51246	0.02098
1976.22669	0.02078
1974.94092	0.01977
1973.65515	0.01882
1972.36938	0.01835
1971.08361	0.01806
1969.79784	0.01734
1968.51207	0.01598
1967.22631	0.01451
1965.94054	0.01369
1964.65477	0.01378
1963.36900	0.01430
1962.08323	0.01457
1960.79746	0.01427
1959.51169	0.01362
1958.22592	0.01285
1956.94015	0.01206
1955.65439	0.01134
1954.36862	0.01101
1953.08285	0.01131
1951.79708	0.01211
1950.51131	0.01294
1949.22554	0.01346
1947.93977	0.01367
1946.65400	0.01379
1945.36823	0.01404
1944.08247	0.01447
1942.79670	0.01503
1941.51093	0.01557
1940.22516	0.01584
1938.93939	0.01573
1937.65362	0.01538
1936.36785	0.01505
1935.08208	0.01490
1933.79632	0.01484
1932.51055	0.01476
1931.22478	0.01463
1929.93901	0.01450
1928.65324	0.01434
1927.36747	0.01414
1926.08170	0.01398
1924.79593	0.01401
1923.51016	0.01429
1922.22440	0.01474
1920.93863	0.01517
1919.65286	0.01546
1918.36709	0.01568
1917.08132	0.01598
1915.79555	0.01633
1914.50978	0.01655
1913.22401	0.01649
1911.93825	0.01617
1910.65248	0.01578
1909.36671	0.01550
1908.08094	0.01539
1906.79517	0.01541
1905.50940	0.01546
1904.22363	0.01543
1902.93786	0.01535
1901.65209	0.01536
1900.36633	0.01556
1899.08056	0.01585
1897.79479	0.01602
1896.50902	0.01599
1895.22325	0.01583
1893.93748	0.01566
1892.65171	0.01551
1891.36594	0.01538
1890.08018	0.01531
1888.79441	0.01538
1887.50864	0.01558
1886.22287	0.01578
1884.93710	0.01585
1883.65133	0.01575
1882.36556	0.01553
1881.07979	0.01529
1879.79402	0.01509
1878.50826	0.01497
1877.22249	0.01492
1875.93672	0.01493
1874.65095	0.01492
1873.36518	0.01488
1872.07941	0.01485
1870.79364	0.01483
1869.50787	0.01483
1868.22211	0.01485
1866.93634	0.01488
1865.65057	0.01494
1864.36480	0.01502
1863.07903	0.01511
1861.79326	0.01515
1860.50749	0.01507
1859.22172	0.01489
1857.93595	0.01470
1856.65019	0.01461
1855.36442	0.01463
1854.07865	0.01469
1852.79288	0.01469
1851.50711	0.01461
1850.22134	0.01448
1848.93557	0.01438
1847.64980	0.01436
1846.36404	0.01437
1845.07827	0.01435
1843.79250	0.01428
1842.50673	0.01418
1841.22096	0.01406
1839.93519	0.01399
1838.64942	0.01397
1837.36365	0.01398
1836.07788	0.01399
1834.79212	0.01400
1833.50635	0.01399
1832.22058	0.01399
1830.93481	0.01403
1829.64904	0.01413
1828.36327	0.01427
1827.07750	0.01442
1825.79173	0.01457
1824.50597	0.01479
1823.22020	0.01511
1821.93443	0.01546
1820.64866	0.01571
1819.36289	0.01572
1818.07712	0.01538
1816.79135	0.01477
1815.50558	0.01404
1814.21981	0.01340
1812.93405	0.01297
1811.64828	0.01278
1810.36251	0.01274
1809.07674	0.01274
1807.79097	0.01271
1806.50520	0.01271
1805.21943	0.01279
1803.93366	0.01294
1802.64790	0.01310
1801.36213	0.01324
1800.07636	0.01336
1798.79059	0.01347
1797.50482	0.01358
1796.21905	0.01362
1794.93328	0.01354
1793.64751	0.01340
1792.36174	0.01334
1791.07598	0.01346
1789.79021	0.01369
1788.50444	0.01392
1787.21867	0.01405
1785.93290	0.01409
1784.64713	0.01408
1783.36136	0.01406
1782.07559	0.01401
1780.78983	0.01393
1779.50406	0.01384
1778.21829	0.01374
1776.93252	0.01364
1775.64675	0.01355
1774.36098	0.01346
1773.07521	0.01333
1771.78944	0.01319
1770.50367	0.01305
1769.21791	0.01291
1767.93214	0.01283
1766.64637	0.01282
1765.36060	0.01282
1764.07483	0.01282
1762.78906	0.01281
1761.50329	0.01284
1760.21752	0.01287
1758.93176	0.01290
1757.64599	0.01295
1756.36022	0.01305
1755.07445	0.01317
1753.78868	0.01322
1752.50291	0.01322
1751.21714	0.01327
1749.93137	0.01341
1748.64560	0.01359
1747.35984	0.01376
1746.07407	0.01391
1744.78830	0.01406
1743.50253	0.01422
1742.21676	0.01438
1740.93099	0.01457
1739.64522	0.01482
1738.35945	0.01507
1737.07369	0.01522
1735.78792	0.01521
1734.50215	0.01518
1733.21638	0.01527
1731.93061	0.01544
1730.64484	0.01555
1729.35907	0.01559
1728.07330	0.01566
1726.78753	0.01582
1725.50177	0.01604
1724.21600	0.01628
1722.93023	0.01656
1721.64446	0.01682
1720.35869	0.01700
1719.07292	0.01707
1717.78715	0.01715
1716.50138	0.01738
1715.21561	0.01779
1713.92985	0.01835
1712.64408	0.01897
1711.35831	0.01962
1710.07254	0.02029
1708.78677	0.02102
1707.50100	0.02184
1706.21523	0.02275
1704.92946	0.02376
1703.64370	0.02479
1702.35793	0.02582
1701.07216	0.02692
1699.78639	0.02823
1698.50062	0.02968
1697.21485	0.03108
1695.92908	0.03245
1694.64331	0.03390
1693.35754	0.03537
1692.07178	0.03672
1690.78601	0.03798
1689.50024	0.03926
1688.21447	0.04064
1686.92870	0.04206
1685.64293	0.04349
1684.35716	0.04501
1683.07139	0.04663
1681.78563	0.04826
1680.49986	0.04987
1679.21409	0.05154
1677.92832	0.05327
1676.64255	0.05501
1675.35678	0.05676
1674.07101	0.05853
1672.78524	0.06031
1671.49947	0.06204
1670.21371	0.06378
1668.92794	0.06559
1667.64217	0.06745
1666.35640	0.06928
1665.07063	0.07100
1663.78486	0.07267
1662.49909	0.07435
1661.21332	0.07603
1659.92756	0.07766
1658.64179	0.07916
1657.35602	0.08052
1656.07025	0.08171
1654.78448	0.08272
1653.49871	0.08371
1652.21294	0.08483
1650.92717	0.08598
1649.64140	0.08694
1648.35564	0.08769
1647.06987	0.08841
1645.78410	0.08919
1644.49833	0.08995
1643.21256	0.09057
1641.92679	0.09105
1640.64102	0.09151
1639.35525	0.09202
1638.06949	0.09251
1636.78372	0.09291
1635.49795	0.09323
1634.21218	0.09349
1632.92641	0.09363
1631.64064	0.09361
1630.35487	0.09341
1629.06910	0.09306
1627.78333	0.09256
1626.49757	0.09191
1625.21180	0.09110
1623.92603	0.09014
1622.64026	0.08904
1621.35449	0.08780
1620.06872	0.08635
1618.78295	0.08467
1617.49718	0.08289
1616.21142	0.08116
1614.92565	0.07953
1613.63988	0.07790
1612.35411	0.07621
1611.06834	0.07450
1609.78257	0.07281
1608.49680	0.07114
1607.21103	0.06951
1605.92526	0.06793
1604.63950	0.06641
1603.35373	0.06498
1602.06796	0.06363
1600.78219	0.06236
1599.49642	0.06117
1598.21065	0.06007
1596.92488	0.05906
1595.63911	0.05813
1594.35335	0.05729
1593.06758	0.05655
1591.78181	0.05591
1590.49604	0.05535
1589.21027	0.05489
1587.92450	0.05451
1586.63873	0.05422
1585.35296	0.05401
1584.06719	0.05386
1582.78143	0.05374
1581.49566	0.05369
1580.20989	0.05371
1578.92412	0.05380
1577.63835	0.05394
1576.35258	0.05424
1575.06681	0.05476
1573.78104	0.05543
1572.49528	0.05610
1571.20951	0.05674
1569.92374	0.05743
1568.63797	0.05822
1567.35220	0.05910
1566.06643	0.06003
1564.78066	0.06101
1563.49489	0.06203
1562.20912	0.06301
1560.92336	0.06393
1559.63759	0.06491
1558.35182	0.06605
1557.06605	0.06729
1555.78028	0.06844
1554.49451	0.06946
1553.20874	0.07041
1551.92297	0.07134
1550.63721	0.07224
1549.35144	0.07314
1548.06567	0.07402
1546.77990	0.07484
1545.49413	0.07556
1544.20836	0.07620
1542.92259	0.07674
1541.63682	0.07715
1540.35105	0.07749
1539.06529	0.07786
1537.77952	0.07829
1536.49375	0.07868
1535.20798	0.07894
1533.92221	0.07913
1532.63644	0.07932
1531.35067	0.07950
1530.06490	0.07958
1528.77914	0.07956
1527.49337	0.07948
1526.20760	0.07941
1524.92183	0.07937
1523.63606	0.07930
1522.35029	0.07919
1521.06452	0.07911
1519.77875	0.07908
1518.49298	0.07901
1517.20722	0.07883
1515.92145	0.07854
1514.63568	0.07815
1513.34991	0.07766
1512.06414	0.07711
1510.77837	0.07645
1509.49260	0.07561
1508.20683	0.07452
1506.92107	0.07330
1505.63530	0.07216
1504.34953	0.07114
1503.06376	0.07010
1501.77799	0.06895
1500.49222	0.06769
1499.20645	0.06638
1497.92068	0.06505
1496.63491	0.06373
1495.34915	0.06246
1494.06338	0.06121
1492.77761	0.05991
1491.49184	0.05855
1490.20607	0.05721
1488.92030	0.05595
1487.63453	0.05478
1486.34876	0.05372
1485.06299	0.05278
1483.77723	0.05197
1482.49146	0.05128
1481.20569	0.05072
1479.91992	0.05031
1478.63415	0.05005
1477.34838	0.04990
1476.06261	0.04982
1474.77684	0.04979
1473.49108	0.04985
1472.20531	0.05005
1470.91954	0.05038
1469.63377	0.05081
1468.34800	0.05127
1467.06223	0.05175
1465.77646	0.05222
1464.49069	0.05270
1463.20492	0.05319
1461.91916	0.05368
1460.63339	0.05421
1459.34762	0.05475
1458.06185	0.05532
1456.77608	0.05597
1455.49031	0.05668
1454.20454	0.05733
1452.91877	0.05783
1451.63301	0.05814
1450.34724	0.05832
1449.06147	0.05837
1447.77570	0.05835
1446.48993	0.05827
1445.20416	0.05814
1443.91839	0.05792
1442.63262	0.05762
1441.34685	0.05728
1440.06109	0.05690
1438.77532	0.05644
1437.48955	0.05590
1436.20378	0.05534
1434.91801	0.05479
1433.63224	0.05425
1432.34647	0.05371
1431.06070	0.05320
1429.77494	0.05276
1428.48917	0.05238
1427.20340	0.05202
1425.91763	0.05170
1424.63186	0.05145
1423.34609	0.05129
1422.06032	0.05118
1420.77455	0.05107
1419.48878	0.05101
1418.20302	0.05104
1416.91725	0.05116
1415.63148	0.05130
1414.34571	0.05141
1413.05994	0.05148
1411.77417	0.05152
1410.48840	0.05156
1409.20263	0.05164
1407.91687	0.05175
1406.63110	0.05185
1405.34533	0.05194
1404.05956	0.05203
1402.77379	0.05212
1401.48802	0.05217
1400.20225	0.05219
1398.91648	0.05218
1397.63071	0.05218
1396.34495	0.05216
1395.05918	0.05213
1393.77341	0.05212
1392.48764	0.05211
1391.20187	0.05210
1389.91610	0.05209
1388.63033	0.05206
1387.34456	0.05203
1386.05880	0.05199
1384.77303	0.05191
1383.48726	0.05178
1382.20149	0.05162
1380.91572	0.05143
1379.62995	0.05120
1378.34418	0.05092
1377.05841	0.05062
1375.77264	0.05030
1374.48688	0.04998
1373.20111	0.04966
1371.91534	0.04930
1370.62957	0.04890
1369.34380	0.04847
1368.05803	0.04804
1366.77226	0.04763
1365.48649	0.04724
1364.20073	0.04685
1362.91496	0.04642
1361.62919	0.04598
1360.34342	0.04557
1359.05765	0.04523
1357.77188	0.04496
1356.48611	0.04477
1355.20034	0.04466
1353.91457	0.04461
1352.62881	0.04460
1351.34304	0.04463
1350.05727	0.04468
1348.77150	0.04475
1347.48573	0.04486
1346.19996	0.04500
1344.91419	0.04516
1343.62842	0.04534
1342.34266	0.04553
1341.05689	0.04574
1339.77112	0.04594
1338.48535	0.04610
1337.19958	0.04618
1335.91381	0.04620
1334.62804	0.04618
1333.34227	0.04613
1332.05650	0.04603
1330.77074	0.04584
1329.48497	0.04558
1328.19920	0.04530
1326.91343	0.04502
1325.62766	0.04479
1324.34189	0.04460
1323.05612	0.04444
1321.77035	0.04429
1320.48459	0.04416
1319.19882	0.04407
1317.91305	0.04402
1316.62728	0.04400
1315.34151	0.04398
1314.05574	0.04395
1312.76997	0.04388
1311.48420	0.04378
1310.19843	0.04365
1308.91267	0.04351
1307.62690	0.04339
1306.34113	0.04328
1305.05536	0.04319
1303.76959	0.04310
1302.48382	0.04301
1301.19805	0.04292
1299.91228	0.04282
1298.62652	0.04272
1297.34075	0.04262
1296.05498	0.04254
1294.76921	0.04253
1293.48344	0.04257
1292.19767	0.04265
1290.91190	0.04275
1289.62613	0.04286
1288.34036	0.04302
1287.05460	0.04325
1285.76883	0.04352
1284.48306	0.04377
1283.19729	0.04393
1281.91152	0.04400
1280.62575	0.04400
1279.33998	0.04398
1278.05421	0.04399
1276.76845	0.04405
1275.48268	0.04418
1274.19691	0.04435
1272.91114	0.04453
1271.62537	0.04470
1270.33960	0.04484
1269.05383	0.04497
1267.76806	0.04510
1266.48229	0.04526
1265.19653	0.04544
1263.91076	0.04566
1262.62499	0.04592
1261.33922	0.04621
1260.05345	0.04654
1258.76768	0.04686
1257.48191	0.04715
1256.19614	0.04742
1254.91037	0.04770
1253.62461	0.04800
1252.33884	0.04832
1251.05307	0.04868
1249.76730	0.04906
1248.48153	0.04947
1247.19576	0.04992
1245.90999	0.05038
1244.62422	0.05086
1243.33846	0.05133
1242.05269	0.05178
1240.76692	0.05217
1239.48115	0.05249
1238.19538	0.05274
1236.90961	0.05296
1235.62384	0.05317
1234.33807	0.05335
1233.05230	0.05348
1231.76654	0.05358
1230.48077	0.05362
1229.19500	0.05358
1227.90923	0.05342
1226.62346	0.05315
1225.33769	0.05281
1224.05192	0.05241
1222.76615	0.05198
1221.48039	0.05154
1220.19462	0.05108
1218.90885	0.05063
1217.62308	0.05018
1216.33731	0.04975
1215.05154	0.04938
1213.76577	0.04907
1212.48000	0.04882
1211.19423	0.04863
1209.90847	0.04850
1208.62270	0.04844
1207.33693	0.04843
1206.05116	0.04843
1204.76539	0.04844
1203.47962	0.04846
1202.19385	0.04844
1200.90808	0.04820
1199.62232	0.04763
1198.33655	0.04729
1197.05078	0.04687
1195.76501	0.04645
1194.47924	0.04610
1193.19347	0.04580
1191.90770	0.04549
1190.62193	0.04509
1189.33616	0.04462
1188.05040	0.04415
1186.76463	0.04378
1185.47886	0.04351
1184.19309	0.04331
1182.90732	0.04312
1181.62155	0.04294
1180.33578	0.04282
1179.05001	0.04276
1177.76425	0.04273
1176.47848	0.04266
1175.19271	0.04253
1173.90694	0.04239
1172.62117	0.04226
1171.33540	0.04218
1170.04963	0.04216
1168.76386	0.04219
1167.47809	0.04226
1166.19233	0.04235
1164.90656	0.04239
1163.62079	0.04235
1162.33502	0.04223
1161.04925	0.04212
1159.76348	0.04205
1158.47771	0.04203
1157.19194	0.04198
1155.90618	0.04184
1154.62041	0.04159
1153.33464	0.04129
1152.04887	0.04099
1150.76310	0.04069
1149.47733	0.04037
1148.19156	0.04007
1146.90579	0.03979
1145.62002	0.03956
1144.33426	0.03938
1143.04849	0.03921
1141.76272	0.03902
1140.47695	0.03880
1139.19118	0.03858
1137.90541	0.03836
1136.61964	0.03814
1135.33387	0.03796
1134.04811	0.03784
1132.76234	0.03779
1131.47657	0.03778
1130.19080	0.03783
1128.90503	0.03793
1127.61926	0.03808
1126.33349	0.03822
1125.04772	0.03832
1123.76195	0.03838
1122.47619	0.03846
1121.19042	0.03857
1119.90465	0.03869
1118.61888	0.03881
1117.33311	0.03895
1116.04734	0.03915
1114.76157	0.03941
1113.47580	0.03968
1112.19004	0.03989
1110.90427	0.04001
1109.61850	0.04014
1108.33273	0.04035
1107.04696	0.04065
1105.76119	0.04098
1104.47542	0.04128
1103.18965	0.04154
1101.90388	0.04175
1100.61812	0.04197
1099.33235	0.04224
1098.04658	0.04254
1096.76081	0.04282
1095.47504	0.04301
1094.18927	0.04312
1092.90350	0.04320
1091.61773	0.04337
1090.33197	0.04366
1089.04620	0.04404
1087.76043	0.04442
1086.47466	0.04473
1085.18889	0.04499
1083.90312	0.04530
1082.61735	0.04570
1081.33158	0.04610
1080.04581	0.04640
1078.76005	0.04656
1077.47428	0.04666
1076.18851	0.04679
1074.90274	0.04697
1073.61697	0.04716
1072.33120	0.04730
1071.04543	0.04736
1069.75966	0.04735
1068.47390	0.04732
1067.18813	0.04730
1065.90236	0.04732
1064.61659	0.04739
1063.33082	0.04750
1062.04505	0.04761
1060.75928	0.04773
1059.47351	0.04783
1058.18774	0.04787
1056.90198	0.04789
1055.61621	0.04794
1054.33044	0.04803
1053.04467	0.04810
1051.75890	0.04806
1050.47313	0.04793
1049.18736	0.04778
1047.90159	0.04768
1046.61583	0.04767
1045.33006	0.04771
1044.04429	0.04775
1042.75852	0.04777
1041.47275	0.04779
1040.18698	0.04785
1038.90121	0.04797
1037.61544	0.04815
1036.32967	0.04838
1035.04391	0.04865
1033.75814	0.04890
1032.47237	0.04911
1031.18660	0.04926
1029.90083	0.04931
1028.61506	0.04923
1027.32929	0.04902
1026.04352	0.04866
1024.75775	0.04817
1023.47199	0.04757
1022.18622	0.04693
1020.90045	0.04631
1019.61468	0.04574
1018.32891	0.04523
1017.04314	0.04475
1015.75737	0.04426
1014.47160	0.04374
1013.18584	0.04320
1011.90007	0.04270
1010.61430	0.04224
1009.32853	0.04181
1008.04276	0.04141
1006.75699	0.04102
1005.47122	0.04062
1004.18545	0.04019
1002.89968	0.03974
1001.61392	0.03928
1000.32815	0.03886
999.04238	0.03845
997.75661	0.03802
996.47084	0.03756
995.18507	0.03713
993.89930	0.03679
992.61353	0.03656
991.32777	0.03640
990.04200	0.03624
988.75623	0.03605
987.47046	0.03585
986.18469	0.03564
984.89892	0.03543
983.61315	0.03521
982.32738	0.03501
981.04161	0.03484
979.75585	0.03472
978.47008	0.03464
977.18431	0.03456
975.89854	0.03445
974.61277	0.03430
973.32700	0.03412
972.04123	0.03395
970.75546	0.03385
969.46970	0.03381
968.18393	0.03382
966.89816	0.03379
965.61239	0.03368
964.32662	0.03345
963.04085	0.03315
961.75508	0.03290
960.46931	0.03277
959.18354	0.03272
957.89778	0.03260
956.61201	0.03235
955.32624	0.03202
954.04047	0.03174
952.75470	0.03159
951.46893	0.03155
950.18316	0.03149
948.89739	0.03136
947.61163	0.03118
946.32586	0.03105
945.04009	0.03097
943.75432	0.03088
942.46855	0.03075
941.18278	0.03061
939.89701	0.03052
938.61124	0.03050
937.32547	0.03048
936.03971	0.03044
934.75394	0.03034
933.46817	0.03019
932.18240	0.03004
930.89663	0.02992
929.61086	0.02983
928.32509	0.02973
927.03932	0.02958
925.75356	0.02946
924.46779	0.02943
923.18202	0.02947
921.89625	0.02949
920.61048	0.02942
919.32471	0.02925
918.03894	0.02903
916.75317	0.02876
915.46740	0.02846
914.18164	0.02818
912.89587	0.02803
911.61010	0.02806
910.32433	0.02815
909.03856	0.02816
907.75279	0.02803
906.46702	0.02784
905.18125	0.02772
903.89549	0.02768
902.60972	0.02765
901.32395	0.02754
900.03818	0.02737
898.75241	0.02717
897.46664	0.02696
896.18087	0.02675
894.89510	0.02655
893.60933	0.02641
892.32357	0.02638
891.03780	0.02639
889.75203	0.02638
888.46626	0.02630
887.18049	0.02617
885.89472	0.02605
884.60895	0.02599
883.32318	0.02605
882.03742	0.02621
880.75165	0.02641
879.46588	0.02657
878.18011	0.02659
876.89434	0.02644
875.60857	0.02615
874.32280	0.02586
873.03703	0.02567
871.75126	0.02559
870.46550	0.02557
869.17973	0.02555
867.89396	0.02552
866.60819	0.02550
865.32242	0.02548
864.03665	0.02541
862.75088	0.02529
861.46511	0.02517
860.17935	0.02510
858.89358	0.02512
857.60781	0.02517
856.32204	0.02521
855.03627	0.02522
853.75050	0.02523
852.46473	0.02524
851.17896	0.02521
849.89319	0.02514
848.60743	0.02503
847.32166	0.02492
846.03589	0.02482
844.75012	0.02472
843.46435	0.02461
842.17858	0.02451
840.89281	0.02444
839.60704	0.02441
838.32128	0.02446
837.03551	0.02457
835.74974	0.02466
834.46397	0.02467
833.17820	0.02459
831.89243	0.02449
830.60666	0.02441
829.32089	0.02437
828.03512	0.02438
826.74936	0.02447
825.46359	0.02462
824.17782	0.02483
822.89205	0.02501
821.60628	0.02511
820.32051	0.02508
819.03474	0.02496
817.74897	0.02485
816.46321	0.02484
815.17744	0.02493
813.89167	0.02509
812.60590	0.02526
811.32013	0.02537
810.03436	0.02538
808.74859	0.02525
807.46282	0.02509
806.17705	0.02504
804.89129	0.02515
803.60552	0.02539
802.31975	0.02566
801.03398	0.02586
799.74821	0.02594
798.46244	0.02589
797.17667	0.02575
795.89090	0.02560
794.60513	0.02553
793.31937	0.02559
792.03360	0.02572
790.74783	0.02586
789.46206	0.02598
788.17629	0.02610
786.89052	0.02623
785.60475	0.02635
784.31898	0.02640
783.03322	0.02634
781.74745	0.02621
780.46168	0.02611
779.17591	0.02614
777.89014	0.02626
776.60437	0.02638
775.31860	0.02645
774.03283	0.02648
772.74706	0.02652
771.46130	0.02656
770.17553	0.02657
768.88976	0.02660
767.60399	0.02670
766.31822	0.02687
765.03245	0.02706
763.74668	0.02724
762.46091	0.02737
761.17515	0.02746
759.88938	0.02751
758.60361	0.02757
757.31784	0.02765
756.03207	0.02775
754.74630	0.02780
753.46053	0.02782
752.17476	0.02783
750.88899	0.02793
749.60323	0.02815
748.31746	0.02845
747.03169	0.02872
745.74592	0.02885
744.46015	0.02888
743.17438	0.02891
741.88861	0.02900
740.60284	0.02908
739.31708	0.02905
738.03131	0.02893
736.74554	0.02882
735.45977	0.02878
734.17400	0.02882
732.88823	0.02890
731.60246	0.02901
730.31669	0.02915
729.03092	0.02928
727.74516	0.02942
726.45939	0.02956
725.17362	0.02970
723.88785	0.02980
722.60208	0.02992
721.31631	0.03008
720.03054	0.03026
718.74477	0.03045
717.45901	0.03061
716.17324	0.03068
714.88747	0.03068
713.60170	0.03066
712.31593	0.03067
711.03016	0.03075
709.74439	0.03090
708.45862	0.03110
707.17285	0.03132
705.88709	0.03151
704.60132	0.03164
703.31555	0.03174
702.02978	0.03184
700.74401	0.03197
699.45824	0.03209
698.17247	0.03215
696.88670	0.03213
695.60094	0.03209
694.31517	0.03208
693.02940	0.03212
691.74363	0.03219
690.45786	0.03227
689.17209	0.03237
687.88632	0.03247
686.60055	0.03255
685.31478	0.03260
684.02902	0.03263
682.74325	0.03268
681.45748	0.03277
680.17171	0.03287
678.88594	0.03294
677.60017	0.03295
676.31440	0.03292
675.02863	0.03291
673.74287	0.03295
672.45710	0.03305
671.17133	0.03318
669.88556	0.03331
668.59979	0.03342
667.31402	0.03352
666.02825	0.03364
664.74248	0.03379
663.45671	0.03394
662.17095	0.03405
660.88518	0.03408
659.59941	0.03406
658.31364	0.03403
657.02787	0.03404
655.74210	0.03411
654.45633	0.03420
653.17056	0.03422
651.88480	0.03418
650.59903	0.03414
649.31326	0.03418
648.02749	0.03431
646.74172	0.03444
645.45595	0.03451
644.17018	0.03447
642.88441	0.03436
641.59864	0.03424
640.31288	0.03416
639.02711	0.03414
637.74134	0.03420
636.45557	0.03430
635.16980	0.03443
633.88403	0.03452
632.59826	0.03448
631.31249	0.03462
630.02673	0.03635
628.74096	0.03908
627.45519	0.03728
626.16942	0.04046
624.88365	0.04680
623.59788	0.05227
622.31211	0.05525
621.02634	0.05529
619.74057	0.05263
618.45481	0.04825
617.16904	0.04360
615.88327	0.03972
614.59750	0.03689
613.31173	0.03517
612.02596	0.03503
610.74019	0.03689
609.45442	0.04020
608.16866	0.04365
606.88289	0.04628
605.59712	0.04779
604.31135	0.04812
603.02558	0.04739
601.73981	0.04606
600.45404	0.04465
599.16827	0.04344
597.88250	0.04245
596.59674	0.04159
595.31097	0.04084
594.02520	0.04024
592.73943	0.03980
591.45366	0.03947
590.16789	0.03919
588.88212	0.03904
587.59635	0.03908
586.31059	0.03932
585.02482	0.03964
583.73905	0.03990
582.45328	0.04001
581.16751	0.03999
579.88174	0.03990
578.59597	0.03988
577.31020	0.04006
576.02443	0.04044
574.73867	0.04088
573.45290	0.04128
572.16713	0.04167
570.88136	0.04212
569.59559	0.04268
568.30982	0.04328
567.02405	0.04376
565.73828	0.04399
564.45251	0.04394
563.16675	0.04370
561.88098	0.04339
560.59521	0.04309
559.30944	0.04279
558.02367	0.04247
556.73790	0.04212
555.45213	0.04174
554.16636	0.04130
552.88060	0.04084
551.59483	0.04044
550.30906	0.04020
549.02329	0.04012
547.73752	0.04010
546.45175	0.04002
545.16598	0.03980
543.88021	0.03951
542.59444	0.03925
541.30868	0.03913
540.02291	0.03915
538.73714	0.03921
537.45137	0.03919
536.16560	0.03906
534.87983	0.03888
533.59406	0.03877
532.30829	0.03877
531.02253	0.03883
529.73676	0.03885
528.45099	0.03877
527.16522	0.03865
525.87945	0.03857
524.59368	0.03858
523.30791	0.03868
522.02214	0.03881
520.73637	0.03893
519.45061	0.03892
518.16484	0.03873
516.87907	0.03839
515.59330	0.03801
514.30753	0.03770
513.02176	0.03749
511.73599	0.03739
510.45022	0.03739
509.16446	0.03741
507.87869	0.03740
506.59292	0.03730
505.30715	0.03710
504.02138	0.03684
502.73561	0.03658
501.44984	0.03636
500.16407	0.03616
498.87830	0.03598
497.59254	0.03580
496.30677	0.03564
495.02100	0.03557
493.73523	0.03559
492.44946	0.03566
491.16369	0.03569
489.87792	0.03562
488.59215	0.03540
487.30639	0.03506
486.02062	0.03466
484.73485	0.03430
483.44908	0.03403
482.16331	0.03386
480.87754	0.03376
479.59177	0.03369
478.30600	0.03364
477.02023	0.03361
475.73447	0.03361
474.44870	0.03359
473.16293	0.03352
471.87716	0.03338
470.59139	0.03322
469.30562	0.03309
468.01985	0.03299
466.73408	0.03291
465.44832	0.03284
464.16255	0.03277
462.87678	0.03270
461.59101	0.03262
460.30524	0.03248
459.01947	0.03228
457.73370	0.03206
456.44793	0.03183
455.16216	0.03159
453.87640	0.03136
452.59063	0.03115
451.30486	0.03096
450.01909	0.03075
448.73332	0.03054
447.44755	0.03038
446.16178	0.03028
444.87601	0.03018
443.59025	0.03004
442.30448	0.02982
441.01871	0.02960
439.73294	0.02944
438.44717	0.02936
437.16140	0.02934
435.87563	0.02933
434.58986	0.02934
433.30409	0.02937
432.01833	0.02937
430.73256	0.02932
429.44679	0.02919
428.16102	0.02901
426.87525	0.02884
425.58948	0.02872
424.30371	0.02862
423.01794	0.02854
421.73218	0.02846
420.44641	0.02836
419.16064	0.02826
417.87487	0.02813
416.58910	0.02798
415.30333	0.02783
414.01756	0.02771
412.73179	0.02762
411.44602	0.02750
410.16026	0.02733
408.87449	0.02711
407.58872	0.02691
406.30295	0.02678
405.01718	0.02672
403.73141	0.02670
402.44564	0.02668
401.15987	0.02665
399.87411	0.02661
