3997.45528	0.05812
3996.16951	0.05764
3994.88374	0.05733
3993.59798	0.05749
3992.31221	0.05822
3991.02644	0.05924
3989.74067	0.06009
3988.45490	0.06047
3987.16913	0.06039
3985.88336	0.05996
3984.59759	0.05931
3983.31183	0.05867
3982.02606	0.05836
3980.74029	0.05847
3979.45452	0.05876
3978.16875	0.05897
3976.88298	0.05914
3975.59721	0.05947
3974.31144	0.05994
3973.02567	0.06022
3971.73991	0.06001
3970.45414	0.05940
3969.16837	0.05878
3967.88260	0.05852
3966.59683	0.05866
3965.31106	0.05896
3964.02529	0.05914
3962.73952	0.05916
3961.45376	0.05910
3960.16799	0.05901
3958.88222	0.05889
3957.59645	0.05876
3956.31068	0.05864
3955.02491	0.05841
3953.73914	0.05801
3952.45337	0.05766
3951.16760	0.05765
3949.88184	0.05795
3948.59607	0.05811
3947.31030	0.05772
3946.02453	0.05689
3944.73876	0.05615
3943.45299	0.05590
3942.16722	0.05622
3940.88145	0.05695
3939.59569	0.05783
3938.30992	0.05849
3937.02415	0.05852
3935.73838	0.05789
3934.45261	0.05701
3933.16684	0.05644
3931.88107	0.05638
3930.59530	0.05659
3929.30953	0.05679
3928.02377	0.05691
3926.73800	0.05705
3925.45223	0.05728
3924.16646	0.05757
3922.88069	0.05778
3921.59492	0.05786
3920.30915	0.05777
3919.02338	0.05740
3917.73762	0.05660
3916.45185	0.05552
3915.16608	0.05463
3913.88031	0.05437
3912.59454	0.05479
3911.30877	0.05552
3910.02300	0.05610
3908.73723	0.05625
3907.45146	0.05590
3906.16570	0.05529
3904.87993	0.05489
3903.59416	0.05505
3902.30839	0.05572
3901.02262	0.05648
3899.73685	0.05698
3898.45108	0.05707
3897.16531	0.05675
3895.87955	0.05618
3894.59378	0.05566
3893.30801	0.05542
3892.02224	0.05545
3890.73647	0.05569
3889.45070	0.05595
3888.16493	0.05595
3886.87916	0.05567
3885.59339	0.05538
3884.30763	0.05532
3883.02186	0.05545
3881.73609	0.05566
3880.45032	0.05598
3879.16455	0.05638
3877.87878	0.05664
3876.59301	0.05659
3875.30724	0.05629
3874.02148	0.05593
3872.73571	0.05556
3871.44994	0.05526
3870.16417	0.05529
3868.87840	0.05570
3867.59263	0.05600
3866.30686	0.05571
3865.02109	0.05518
3863.73532	0.05508
3862.44956	0.05565
3861.16379	0.05646
3859.87802	0.05695
3858.59225	0.05684
3857.30648	0.05621
3856.02071	0.05533
3854.73494	0.05456
3853.44917	0.05428
3852.16341	0.05454
3850.87764	0.05497
3849.59187	0.05524
3848.30610	0.05526
3847.02033	0.05509
3845.73456	0.05490
3844.44879	0.05483
3843.16302	0.05498
3841.87725	0.05527
3840.59149	0.05552
3839.30572	0.05561
3838.01995	0.05555
3836.73418	0.05531
3835.44841	0.05473
3834.16264	0.05393
3832.87687	0.05332
3831.59110	0.05320
3830.30534	0.05339
3829.01957	0.05347
3827.73380	0.05323
3826.44803	0.05297
3825.16226	0.05307
3823.87649	0.05356
3822.59072	0.05417
3821.30495	0.05469
3820.01918	0.05495
3818.73342	0.05482
3817.44765	0.05443
3816.16188	0.05425
3814.87611	0.05443
3813.59034	0.05457
3812.30457	0.05435
3811.01880	0.05388
3809.73303	0.05329
3808.44726	0.05255
3807.16150	0.05185
3805.87573	0.05153
3804.58996	0.05158
3803.30419	0.05175
3802.01842	0.05191
3800.73265	0.05209
3799.44688	0.05211
3798.16111	0.05176
3796.87535	0.05121
3795.58958	0.05085
3794.30381	0.05083
3793.01804	0.05108
3791.73227	0.05146
3790.44650	0.05174
3789.16073	0.05175
3787.87496	0.05156
3786.58919	0.05138
3785.30343	0.05136
3784.01766	0.05146
3782.73189	0.05158
3781.44612	0.05164
3780.16035	0.05160
3778.87458	0.05142
3777.58881	0.05106
3776.30304	0.05061
3775.01728	0.05023
3773.73151	0.05008
3772.44574	0.05010
3771.15997	0.05010
3769.87420	0.04998
3768.58843	0.04980
3767.30266	0.04972
3766.01689	0.04984
3764.73112	0.05001
3763.44536	0.04993
3762.15959	0.04953
3760.87382	0.04919
3759.58805	0.04934
3758.30228	0.04990
3757.01651	0.05037
3755.73074	0.05029
3754.44497	0.04963
3753.15921	0.04898
3751.87344	0.04906
3750.58767	0.05003
3749.30190	0.05143
3748.01613	0.05259
3746.73036	0.05296
3745.44459	0.05269
3744.15882	0.05244
3742.87305	0.05245
3741.58729	0.05229
3740.30152	0.05170
3739.01575	0.05092
3737.72998	0.05017
3736.44421	0.04949
3735.15844	0.04884
3733.87267	0.04823
3732.58690	0.04794
3731.30114	0.04829
3730.01537	0.04912
3728.72960	0.04971
3727.44383	0.04951
3726.15806	0.04866
3724.87229	0.04766
3723.58652	0.04693
3722.30075	0.04669
3721.01498	0.04699
3719.72922	0.04770
3718.44345	0.04850
3717.15768	0.04890
3715.87191	0.04856
3714.58614	0.04749
3713.30037	0.04616
3712.01460	0.04525
3710.72883	0.04513
3709.44307	0.04566
3708.15730	0.04634
3706.87153	0.04680
3705.58576	0.04697
3704.29999	0.04713
3703.01422	0.04753
3701.72845	0.04810
3700.44268	0.04850
3699.15691	0.04852
3697.87115	0.04833
3696.58538	0.04837
3695.29961	0.04888
3694.01384	0.04956
3692.72807	0.04992
3691.44230	0.04968
3690.15653	0.04891
3688.87076	0.04797
3687.58500	0.04713
3686.29923	0.04635
3685.01346	0.04562
3683.72769	0.04528
3682.44192	0.04570
3681.15615	0.04675
3679.87038	0.04785
3678.58461	0.04839
3677.29884	0.04825
3676.01308	0.04796
3674.72731	0.04811
3673.44154	0.04865
3672.15577	0.04914
3670.87000	0.04945
3669.58423	0.04979
3668.29846	0.05009
3667.01269	0.05013
3665.72693	0.04989
3664.44116	0.04947
3663.15539	0.04900
3661.86962	0.04859
3660.58385	0.04828
3659.29808	0.04802
3658.01231	0.04768
3656.72654	0.04736
3655.44077	0.04729
3654.15501	0.04756
3652.86924	0.04804
3651.58347	0.04863
3650.29770	0.04931
3649.01193	0.04991
3647.72616	0.05024
3646.44039	0.05025
3645.15462	0.05003
3643.86886	0.04979
3642.58309	0.04971
3641.29732	0.04990
3640.01155	0.05031
3638.72578	0.05082
3637.44001	0.05135
3636.15424	0.05184
3634.86847	0.05216
3633.58270	0.05219
3632.29694	0.05196
3631.01117	0.05171
3629.72540	0.05182
3628.43963	0.05255
3627.15386	0.05358
3625.86809	0.05435
3624.58232	0.05469
3623.29655	0.05483
3622.01079	0.05498
3620.72502	0.05523
3619.43925	0.05568
3618.15348	0.05636
3616.86771	0.05714
3615.58194	0.05771
3614.29617	0.05783
3613.01040	0.05763
3611.72463	0.05751
3610.43887	0.05779
3609.15310	0.05860
3607.86733	0.05980
3606.58156	0.06110
3605.29579	0.06221
3604.01002	0.06297
3602.72425	0.06329
3601.43848	0.06314
3600.15272	0.06265
3598.86695	0.06217
3597.58118	0.06208
3596.29541	0.06256
3595.00964	0.06335
3593.72387	0.06408
3592.43810	0.06459
3591.15233	0.06506
3589.86656	0.06562
3588.58080	0.06610
3587.29503	0.06615
3586.00926	0.06569
3584.72349	0.06513
3583.43772	0.06500
3582.15195	0.06549
3580.86618	0.06641
3579.58041	0.06740
3578.29464	0.06820
3577.00888	0.06870
3575.72311	0.06892
3574.43734	0.06904
3573.15157	0.06936
3571.86580	0.07004
3570.58003	0.07090
3569.29426	0.07157
3568.00849	0.07189
3566.72273	0.07215
3565.43696	0.07265
3564.15119	0.07337
3562.86542	0.07394
3561.57965	0.07407
3560.29388	0.07382
3559.00811	0.07356
3557.72234	0.07357
3556.43657	0.07381
3555.15081	0.07407
3553.86504	0.07427
3552.57927	0.07462
3551.29350	0.07531
3550.00773	0.07634
3548.72196	0.07744
3547.43619	0.07833
3546.15042	0.07889
3544.86466	0.07921
3543.57889	0.07945
3542.29312	0.07972
3541.00735	0.08011
3539.72158	0.08057
3538.43581	0.08107
3537.15004	0.08160
3535.86427	0.08223
3534.57850	0.08302
3533.29274	0.08388
3532.00697	0.08456
3530.72120	0.08494
3529.43543	0.08510
3528.14966	0.08517
3526.86389	0.08523
3525.57812	0.08535
3524.29235	0.08569
3523.00659	0.08638
3521.72082	0.08727
3520.43505	0.08805
3519.14928	0.08862
3517.86351	0.08917
3516.57774	0.08987
3515.29197	0.09062
3514.00620	0.09107
3512.72043	0.09099
3511.43467	0.09038
3510.14890	0.08960
3508.86313	0.08916
3507.57736	0.08940
3506.29159	0.09025
3505.00582	0.09136
3503.72005	0.09233
3502.43428	0.09294
3501.14852	0.09321
3499.86275	0.09333
3498.57698	0.09344
3497.29121	0.09358
3496.00544	0.09370
3494.71967	0.09388
3493.43390	0.09421
3492.14813	0.09467
3490.86236	0.09512
3489.57660	0.09556
3488.29083	0.09609
3487.00506	0.09676
3485.71929	0.09750
3484.43352	0.09819
3483.14775	0.09883
3481.86198	0.09943
3480.57621	0.09989
3479.29045	0.10010
3478.00468	0.10013
3476.71891	0.10027
3475.43314	0.10069
3474.14737	0.10129
3472.86160	0.10179
3471.57583	0.10210
3470.29006	0.10227
3469.00429	0.10238
3467.71853	0.10243
3466.43276	0.10248
3465.14699	0.10265
3463.86122	0.10301
3462.57545	0.10349
3461.28968	0.10388
3460.00391	0.10411
3458.71814	0.10432
3457.43238	0.10478
3456.14661	0.10548
3454.86084	0.10608
3453.57507	0.10628
3452.28930	0.10620
3451.00353	0.10624
3449.71776	0.10668
3448.43199	0.10741
3447.14622	0.10814
3445.86046	0.10862
3444.57469	0.10880
3443.28892	0.10884
3442.00315	0.10896
3440.71738	0.10927
3439.43161	0.10971
3438.14584	0.11011
3436.86007	0.11048
3435.57431	0.11097
3434.28854	0.11161
3433.00277	0.11219
3431.71700	0.11250
3430.43123	0.11261
3429.14546	0.11272
3427.85969	0.11296
3426.57392	0.11327
3425.28815	0.11347
3424.00239	0.11350
3422.71662	0.11351
3421.43085	0.11369
3420.14508	0.11414
3418.85931	0.11470
3417.57354	0.11517
3416.28777	0.11554
3415.00200	0.11599
3413.71624	0.11670
3412.43047	0.11761
3411.14470	0.11853
3409.85893	0.11923
3408.57316	0.11961
3407.28739	0.11978
3406.00162	0.12000
3404.71585	0.12049
3403.43008	0.12122
3402.14432	0.12193
3400.85855	0.12231
3399.57278	0.12226
3398.28701	0.12193
3397.00124	0.12165
3395.71547	0.12165
3394.42970	0.12199
3393.14393	0.12255
3391.85817	0.12315
3390.57240	0.12359
3389.28663	0.12375
3388.00086	0.12371
3386.71509	0.12376
3385.42932	0.12411
3384.14355	0.12477
3382.85778	0.12555
3381.57201	0.12629
3380.28625	0.12696
3379.00048	0.12754
3377.71471	0.12799
3376.42894	0.12828
3375.14317	0.12849
3373.85740	0.12873
3372.57163	0.12904
3371.28586	0.12942
3370.00010	0.12988
3368.71433	0.13050
3367.42856	0.13133
3366.14279	0.13232
3364.85702	0.13327
3363.57125	0.13399
3362.28548	0.13450
3360.99971	0.13504
3359.71394	0.13587
3358.42818	0.13696
3357.14241	0.13796
3355.85664	0.13859
3354.57087	0.13887
3353.28510	0.13910
3351.99933	0.13955
3350.71356	0.14026
3349.42779	0.14114
3348.14202	0.14200
3346.85626	0.14267
3345.57049	0.14306
3344.28472	0.14327
3342.99895	0.14353
3341.71318	0.14403
3340.42741	0.14477
3339.14164	0.14563
3337.85587	0.14648
3336.57011	0.14726
3335.28434	0.14796
3333.99857	0.14856
3332.71280	0.14897
3331.42703	0.14921
3330.14126	0.14942
3328.85549	0.14976
3327.56972	0.15029
3326.28395	0.15093
3324.99819	0.15162
3323.71242	0.15236
3322.42665	0.15323
3321.14088	0.15416
3319.85511	0.15494
3318.56934	0.15533
3317.28357	0.15529
3315.99780	0.15512
3314.71204	0.15525
3313.42627	0.15587
3312.14050	0.15677
3310.85473	0.15750
3309.56896	0.15778
3308.28319	0.15771
3306.99742	0.15769
3305.71165	0.15804
3304.42588	0.15875
3303.14012	0.15953
3301.85435	0.16003
3300.56858	0.16018
3299.28281	0.16022
3297.99704	0.16046
3296.71127	0.16100
3295.42550	0.16167
3294.13973	0.16221
3292.85397	0.16254
3291.56820	0.16265
3290.28243	0.16259
3288.99666	0.16243
3287.71089	0.16237
3286.42512	0.16257
3285.13935	0.16285
3283.85358	0.16288
3282.56781	0.16256
3281.28205	0.16214
3279.99628	0.16197
3278.71051	0.16214
3277.42474	0.16245
3276.13897	0.16263
3274.85320	0.16254
3273.56743	0.16216
3272.28166	0.16165
3270.99590	0.16118
3269.71013	0.16082
3268.42436	0.16057
3267.13859	0.16030
3265.85282	0.15988
3264.56705	0.15923
3263.28128	0.15845
3261.99551	0.15771
3260.70974	0.15719
3259.42398	0.15686
3258.13821	0.15658
3256.85244	0.15625
3255.56667	0.15587
3254.28090	0.15541
3252.99513	0.15482
3251.70936	0.15416
3250.42359	0.15361
3249.13783	0.15336
3247.85206	0.15337
3246.56629	0.15338
3245.28052	0.15314
3243.99475	0.15256
3242.70898	0.15184
3241.42321	0.15124
3240.13744	0.15089
3238.85167	0.15071
3237.56591	0.15052
3236.28014	0.15017
3234.99437	0.14962
3233.70860	0.14897
3232.42283	0.14832
3231.13706	0.14777
3229.85129	0.14730
3228.56552	0.14684
3227.27976	0.14631
3225.99399	0.14570
3224.70822	0.14517
3223.42245	0.14497
3222.13668	0.14508
3220.85091	0.14521
3219.56514	0.14505
3218.27937	0.14460
3216.99360	0.14411
3215.70784	0.14385
3214.42207	0.14391
3213.13630	0.14419
3211.85053	0.14436
3210.56476	0.14415
3209.27899	0.14364
3207.99322	0.14314
3206.70745	0.14292
3205.42169	0.14288
3204.13592	0.14282
3202.85015	0.14258
3201.56438	0.14209
3200.27861	0.14132
3198.99284	0.14036
3197.70707	0.13940
3196.42130	0.13863
3195.13553	0.13814
3193.84977	0.13784
3192.56400	0.13755
3191.27823	0.13706
3189.99246	0.13640
3188.70669	0.13578
3187.42092	0.13543
3186.13515	0.13539
3184.84938	0.13542
3183.56362	0.13518
3182.27785	0.13454
3180.99208	0.13362
3179.70631	0.13274
3178.42054	0.13217
3177.13477	0.13186
3175.84900	0.13156
3174.56323	0.13104
3173.27746	0.13035
3171.99170	0.12971
3170.70593	0.12924
3169.42016	0.12885
3168.13439	0.12833
3166.84862	0.12760
3165.56285	0.12684
3164.27708	0.12635
3162.99131	0.12625
3161.70555	0.12641
3160.41978	0.12651
3159.13401	0.12632
3157.84824	0.12582
3156.56247	0.12511
3155.27670	0.12431
3153.99093	0.12346
3152.70516	0.12257
3151.41939	0.12165
3150.13363	0.12077
3148.84786	0.12001
3147.56209	0.11937
3146.27632	0.11885
3144.99055	0.11843
3143.70478	0.11805
3142.41901	0.11764
3141.13324	0.11717
3139.84748	0.11671
3138.56171	0.11641
3137.27594	0.11623
3135.99017	0.11608
3134.70440	0.11588
3133.41863	0.11569
3132.13286	0.11550
3130.84709	0.11527
3129.56132	0.11494
3128.27556	0.11454
3126.98979	0.11408
3125.70402	0.11350
3124.41825	0.11285
3123.13248	0.11231
3121.84671	0.11199
3120.56094	0.11183
3119.27517	0.11172
3117.98940	0.11169
3116.70364	0.11183
3115.41787	0.11210
3114.13210	0.11232
3112.84633	0.11235
3111.56056	0.11220
3110.27479	0.11199
3108.98902	0.11179
3107.70325	0.11162
3106.41749	0.11154
3105.13172	0.11160
3103.84595	0.11182
3102.56018	0.11211
3101.27441	0.11234
3099.98864	0.11248
3098.70287	0.11258
3097.41710	0.11271
3096.13133	0.11290
3094.84557	0.11308
3093.55980	0.11317
3092.27403	0.11313
3090.98826	0.11304
3089.70249	0.11304
3088.41672	0.11321
3087.13095	0.11349
3085.84518	0.11376
3084.55942	0.11394
3083.27365	0.11409
3081.98788	0.11426
3080.70211	0.11446
3079.41634	0.11468
3078.13057	0.11491
3076.84480	0.11508
3075.55903	0.11513
3074.27326	0.11504
3072.98750	0.11486
3071.70173	0.11459
3070.41596	0.11422
3069.13019	0.11387
3067.84442	0.11372
3066.55865	0.11383
3065.27288	0.11408
3063.98711	0.11425
3062.70135	0.11414
3061.41558	0.11373
3060.12981	0.11305
3058.84404	0.11222
3057.55827	0.11141
3056.27250	0.11079
3054.98673	0.11048
3053.70096	0.11053
3052.41519	0.11089
3051.12943	0.11132
3049.84366	0.11153
3048.55789	0.11125
3047.27212	0.11049
3045.98635	0.10954
3044.70058	0.10869
3043.41481	0.10813
3042.12904	0.10784
3040.84328	0.10763
3039.55751	0.10729
3038.27174	0.10667
3036.98597	0.10580
3035.70020	0.10489
3034.41443	0.10423
3033.12866	0.10397
3031.84289	0.10403
3030.55712	0.10418
3029.27136	0.10423
3027.98559	0.10411
3026.69982	0.10382
3025.41405	0.10335
3024.12828	0.10274
3022.84251	0.10208
3021.55674	0.10141
3020.27097	0.10070
3018.98521	0.09994
3017.69944	0.09922
3016.41367	0.09869
3015.12790	0.09846
3013.84213	0.09847
3012.55636	0.09855
3011.27059	0.09854
3009.98482	0.09838
3008.69905	0.09809
3007.41329	0.09779
3006.12752	0.09757
3004.84175	0.09742
3003.55598	0.09727
3002.27021	0.09704
3000.98444	0.09679
2999.69867	0.09669
2998.41290	0.09685
2997.12714	0.09723
2995.84137	0.09763
2994.55560	0.09790
2993.26983	0.09803
2991.98406	0.09812
2990.69829	0.09830
2989.41252	0.09868
2988.12675	0.09926
2986.84098	0.09989
2985.55522	0.10040
2984.26945	0.10076
2982.98368	0.10109
2981.69791	0.10150
2980.41214	0.10202
2979.12637	0.10263
2977.84060	0.10331
2976.55483	0.10397
2975.26907	0.10453
2973.98330	0.10492
2972.69753	0.10525
2971.41176	0.10570
2970.12599	0.10641
2968.84022	0.10731
2967.55445	0.10814
2966.26868	0.10864
2964.98291	0.10884
2963.69715	0.10900
2962.41138	0.10936
2961.12561	0.10996
2959.83984	0.11062
2958.55407	0.11109
2957.26830	0.11121
2955.98253	0.11100
2954.69676	0.11064
2953.41100	0.11037
2952.12523	0.11029
2950.83946	0.11044
2949.55369	0.11075
2948.26792	0.11115
2946.98215	0.11159
2945.69638	0.11206
2944.41061	0.11252
2943.12484	0.11293
2941.83908	0.11332
2940.55331	0.11372
2939.26754	0.11417
2937.98177	0.11467
2936.69600	0.11513
2935.41023	0.11549
2934.12446	0.11572
2932.83869	0.11594
2931.55293	0.11629
2930.26716	0.11675
2928.98139	0.11717
2927.69562	0.11744
2926.40985	0.11759
2925.12408	0.11765
2923.83831	0.11756
2922.55254	0.11726
2921.26677	0.11675
2919.98101	0.11612
2918.69524	0.11550
2917.40947	0.11491
2916.12370	0.11424
2914.83793	0.11338
2913.55216	0.11231
2912.26639	0.11123
2910.98062	0.11032
2909.69486	0.10962
2908.40909	0.10900
2907.12332	0.10829
2905.83755	0.10741
2904.55178	0.10642
2903.26601	0.10552
2901.98024	0.10481
2900.69447	0.10426
2899.40870	0.10374
2898.12294	0.10317
2896.83717	0.10266
2895.55140	0.10231
2894.26563	0.10209
2892.97986	0.10191
2891.69409	0.10175
2890.40832	0.10162
2889.12255	0.10148
2887.83678	0.10128
2886.55102	0.10111
2885.26525	0.10109
2883.97948	0.10119
2882.69371	0.10123
2881.40794	0.10103
2880.12217	0.10070
2878.83640	0.10045
2877.55063	0.10041
2876.26487	0.10050
2874.97910	0.10060
2873.69333	0.10058
2872.40756	0.10036
2871.12179	0.09998
2869.83602	0.09953
2868.55025	0.09912
2867.26448	0.09875
2865.97871	0.09836
2864.69295	0.09795
2863.40718	0.09760
2862.12141	0.09743
2860.83564	0.09746
2859.54987	0.09763
2858.26410	0.09787
2856.97833	0.09815
2855.69256	0.09838
2854.40680	0.09844
2853.12103	0.09825
2851.83526	0.09779
2850.54949	0.09714
2849.26372	0.09636
2847.97795	0.09547
2846.69218	0.09451
2845.40641	0.09356
2844.12064	0.09268
2842.83488	0.09194
2841.54911	0.09135
2840.26334	0.09084
2838.97757	0.09029
2837.69180	0.08959
2836.40603	0.08875
2835.12026	0.08789
2833.83449	0.08723
2832.54873	0.08683
2831.26296	0.08662
2829.97719	0.08650
2828.69142	0.08642
2827.40565	0.08634
2826.11988	0.08617
2824.83411	0.08590
2823.54834	0.08560
2822.26257	0.08531
2820.97681	0.08499
2819.69104	0.08464
2818.40527	0.08429
2817.11950	0.08398
2815.83373	0.08370
2814.54796	0.08342
2813.26219	0.08313
2811.97642	0.08290
2810.69066	0.08277
2809.40489	0.08270
2808.11912	0.08262
2806.83335	0.08248
2805.54758	0.08230
2804.26181	0.08204
2802.97604	0.08170
2801.69027	0.08129
2800.40450	0.08095
2799.11874	0.08075
2797.83297	0.08064
2796.54720	0.08054
2795.26143	0.08039
2793.97566	0.08020
2792.68989	0.07997
2791.40412	0.07970
2790.11835	0.07938
2788.83259	0.07902
2787.54682	0.07866
2786.26105	0.07840
2784.97528	0.07834
2783.68951	0.07850
2782.40374	0.07876
2781.11797	0.07890
2779.83220	0.07879
2778.54643	0.07849
2777.26067	0.07815
2775.97490	0.07790
2774.68913	0.07774
2773.40336	0.07759
2772.11759	0.07740
2770.83182	0.07717
2769.54605	0.07694
2768.26028	0.07672
2766.97452	0.07650
2765.68875	0.07632
2764.40298	0.07616
2763.11721	0.07604
2761.83144	0.07599
2760.54567	0.07600
2759.25990	0.07598
2757.97413	0.07582
2756.68836	0.07554
2755.40260	0.07529
2754.11683	0.07512
2752.83106	0.07500
2751.54529	0.07486
2750.25952	0.07472
2748.97375	0.07459
2747.68798	0.07445
2746.40221	0.07424
2745.11645	0.07400
2743.83068	0.07384
2742.54491	0.07380
2741.25914	0.07375
2739.97337	0.07354
2738.68760	0.07316
2737.40183	0.07278
2736.11606	0.07251
2734.83029	0.07240
2733.54453	0.07238
2732.25876	0.07235
2730.97299	0.07222
2729.68722	0.07202
2728.40145	0.07182
2727.11568	0.07167
2725.82991	0.07155
2724.54414	0.07137
2723.25838	0.07108
2721.97261	0.07070
2720.68684	0.07029
2719.40107	0.06993
2718.11530	0.06966
2716.82953	0.06953
2715.54376	0.06953
2714.25799	0.06963
2712.97222	0.06977
2711.68646	0.06989
2710.40069	0.06995
2709.11492	0.06987
2707.82915	0.06964
2706.54338	0.06937
2705.25761	0.06922
2703.97184	0.06922
2702.68607	0.06925
2701.40031	0.06921
2700.11454	0.06911
2698.82877	0.06901
2697.54300	0.06888
2696.25723	0.06871
2694.97146	0.06853
2693.68569	0.06839
2692.39992	0.06830
2691.11415	0.06815
2689.82839	0.06791
2688.54262	0.06766
2687.25685	0.06754
2685.97108	0.06758
2684.68531	0.06768
2683.39954	0.06771
2682.11377	0.06764
2680.82800	0.06756
2679.54224	0.06755
2678.25647	0.06761
2676.97070	0.06764
2675.68493	0.06754
2674.39916	0.06735
2673.11339	0.06712
2671.82762	0.06692
2670.54185	0.06682
2669.25608	0.06686
2667.97032	0.06697
2666.68455	0.06706
2665.39878	0.06708
2664.11301	0.06709
2662.82724	0.06712
2661.54147	0.06709
2660.25570	0.06694
2658.96993	0.06672
2657.68417	0.06657
2656.39840	0.06652
2655.11263	0.06648
2653.82686	0.06633
2652.54109	0.06610
2651.25532	0.06589
2649.96955	0.06574
2648.68378	0.06550
2647.39801	0.06505
2646.11225	0.06446
2644.82648	0.06393
2643.54071	0.06360
2642.25494	0.06341
2640.96917	0.06320
2639.68340	0.06294
2638.39763	0.06270
2637.11186	0.06255
2635.82609	0.06247
2634.54033	0.06239
2633.25456	0.06227
2631.96879	0.06211
2630.68302	0.06192
2629.39725	0.06175
2628.11148	0.06167
2626.82571	0.06164
2625.53994	0.06150
2624.25418	0.06115
2622.96841	0.06068
2621.68264	0.06027
2620.39687	0.06003
2619.11110	0.05991
2617.82533	0.05982
2616.53956	0.05972
2615.25379	0.05958
2613.96802	0.05941
2612.68226	0.05925
2611.39649	0.05918
2610.11072	0.05914
2608.82495	0.05897
2607.53918	0.05866
2606.25341	0.05836
2604.96764	0.05818
2603.68187	0.05805
2602.39611	0.05791
2601.11034	0.05783
2599.82457	0.05783
2598.53880	0.05781
2597.25303	0.05767
2595.96726	0.05746
2594.68149	0.05716
2593.39572	0.05676
2592.10995	0.05642
2590.82419	0.05635
2589.53842	0.05661
2588.25265	0.05687
2586.96688	0.05682
2585.68111	0.05649
2584.39534	0.05617
2583.10957	0.05604
2581.82380	0.05600
2580.53804	0.05584
2579.25227	0.05546
2577.96650	0.05500
2576.68073	0.05470
2575.39496	0.05466
2574.10919	0.05480
2572.82342	0.05489
2571.53765	0.05478
2570.25188	0.05454
2568.96612	0.05434
2567.68035	0.05422
2566.39458	0.05414
2565.10881	0.05406
2563.82304	0.05401
2562.53727	0.05402
2561.25150	0.05400
2559.96573	0.05382
2558.67997	0.05341
2557.39420	0.05289
2556.10843	0.05246
2554.82266	0.05229
2553.53689	0.05232
2552.25112	0.05239
2550.96535	0.05241
2549.67958	0.05244
2548.39381	0.05254
2547.10805	0.05260
2545.82228	0.05249
2544.53651	0.05217
2543.25074	0.05180
2541.96497	0.05151
2540.67920	0.05131
2539.39343	0.05103
2538.10766	0.05060
2536.82190	0.05013
2535.53613	0.04986
2534.25036	0.04992
2532.96459	0.05015
2531.67882	0.05029
2530.39305	0.05020
2529.10728	0.05000
2527.82151	0.04992
2526.53574	0.05008
2525.24998	0.05038
2523.96421	0.05054
2522.67844	0.05033
2521.39267	0.04976
2520.10690	0.04906
2518.82113	0.04856
2517.53536	0.04846
2516.24959	0.04875
2514.96383	0.04924
2513.67806	0.04966
2512.39229	0.04981
2511.10652	0.04958
2509.82075	0.04908
2508.53498	0.04859
2507.24921	0.04836
2505.96344	0.04841
2504.67767	0.04857
2503.39191	0.04866
2502.10614	0.04860
2500.82037	0.04848
2499.53460	0.04842
2498.24883	0.04844
2496.96306	0.04847
2495.67729	0.04841
2494.39152	0.04830
2493.10576	0.04824
2491.81999	0.04822
2490.53422	0.04818
2489.24845	0.04811
2487.96268	0.04809
2486.67691	0.04807
2485.39114	0.04789
2484.10537	0.04750
2482.81960	0.04711
2481.53384	0.04701
2480.24807	0.04729
2478.96230	0.04774
2477.67653	0.04808
2476.39076	0.04814
2475.10499	0.04796
2473.81922	0.04773
2472.53345	0.04764
2471.24769	0.04773
2469.96192	0.04781
2468.67615	0.04768
2467.39038	0.04730
2466.10461	0.04691
2464.81884	0.04669
2463.53307	0.04665
2462.24730	0.04659
2460.96153	0.04638
2459.67577	0.04605
2458.39000	0.04581
2457.10423	0.04583
2455.81846	0.04614
2454.53269	0.04659
2453.24692	0.04698
2451.96115	0.04721
2450.67538	0.04732
2449.38962	0.04734
2448.10385	0.04725
2446.81808	0.04695
2445.53231	0.04639
2444.24654	0.04574
2442.96077	0.04527
2441.67500	0.04520
2440.38923	0.04550
2439.10346	0.04591
2437.81770	0.04613
2436.53193	0.04609
2435.24616	0.04592
2433.96039	0.04579
2432.67462	0.04577
2431.38885	0.04589
2430.10308	0.04612
2428.81731	0.04639
2427.53155	0.04653
2426.24578	0.04639
2424.96001	0.04599
2423.67424	0.04556
2422.38847	0.04533
2421.10270	0.04542
2419.81693	0.04566
2418.53116	0.04577
2417.24539	0.04562
2415.95963	0.04534
2414.67386	0.04518
2413.38809	0.04521
2412.10232	0.04532
2410.81655	0.04534
2409.53078	0.04516
2408.24501	0.04483
2406.95924	0.04449
2405.67347	0.04430
2404.38771	0.04429
2403.10194	0.04438
2401.81617	0.04453
2400.53040	0.04468
2399.24463	0.04468
2397.95886	0.04460
2396.67309	0.04452
2395.38732	0.04449
2394.10156	0.04453
2392.81579	0.04455
2391.53002	0.04453
2390.24425	0.04449
2388.95848	0.04451
2387.67271	0.04456
2386.38694	0.04456
2385.10117	0.04448
2383.81540	0.04443
2382.52964	0.04453
2381.24387	0.04474
2379.95810	0.04498
2378.67233	0.04500
2377.38656	0.04499
2376.10079	0.04524
2374.81502	0.04563
2373.52925	0.04557
2372.24349	0.04513
2370.95772	0.04481
2369.67195	0.04460
2368.38618	0.04449
2367.10041	0.04445
2365.81464	0.04457
2364.52887	0.04485
2363.24310	0.04517
2361.95733	0.04540
2360.67157	0.04550
2359.38580	0.04557
2358.10003	0.04554
2356.81426	0.04546
2355.52849	0.04556
2354.24272	0.04591
2352.95695	0.04625
2351.67118	0.04599
2350.38542	0.04562
2349.09965	0.04566
2347.81388	0.04584
2346.52811	0.04581
2345.24234	0.04582
2343.95657	0.04606
2342.67080	0.04670
2341.38503	0.04631
2340.09926	0.04527
2338.81350	0.04493
2337.52773	0.04513
2336.24196	0.04467
2334.95619	0.04430
2333.67042	0.04460
2332.38465	0.04529
2331.09888	0.04465
2329.81311	0.04458
2328.52735	0.04508
2327.24158	0.04523
2325.95581	0.04559
2324.67004	0.04601
2323.38427	0.04648
2322.09850	0.04619
2320.81273	0.04561
2319.52696	0.04497
2318.24119	0.04437
2316.95543	0.04382
2315.66966	0.04343
2314.38389	0.04334
2313.09812	0.04328
2311.81235	0.04310
2310.52658	0.04297
2309.24081	0.04290
2307.95504	0.04281
2306.66928	0.04272
2305.38351	0.04255
2304.09774	0.04232
2302.81197	0.04204
2301.52620	0.04174
2300.24043	0.04145
2298.95466	0.04118
2297.66889	0.04095
2296.38312	0.04078
2295.09736	0.04070
2293.81159	0.04065
2292.52582	0.04054
2291.24005	0.04034
2289.95428	0.04005
2288.66851	0.03972
2287.38274	0.03942
2286.09697	0.03915
2284.81121	0.03884
2283.52544	0.03839
2282.23967	0.03788
2280.95390	0.03755
2279.66813	0.03762
2278.38236	0.03800
2277.09659	0.03835
2275.81082	0.03829
2274.52505	0.03775
2273.23929	0.03696
2271.95352	0.03628
2270.66775	0.03586
2269.38198	0.03548
2268.09621	0.03479
2266.81044	0.03384
2265.52467	0.03311
2264.23890	0.03308
2262.95314	0.03378
2261.66737	0.03478
2260.38160	0.03556
2259.09583	0.03582
2257.81006	0.03556
2256.52429	0.03498
2255.23852	0.03434
2253.95275	0.03379
2252.66698	0.03340
2251.38122	0.03314
2250.09545	0.03303
2248.80968	0.03300
2247.52391	0.03275
2246.23814	0.03267
2244.95237	0.03296
2243.66660	0.03349
2242.38083	0.03385
2241.09507	0.03373
2239.80930	0.03326
2238.52353	0.03296
2237.23776	0.03315
2235.95199	0.03361
2234.66622	0.03383
2233.38045	0.03355
2232.09468	0.03297
2230.80891	0.03253
2229.52315	0.03248
2228.23738	0.03264
2226.95161	0.03258
2225.66584	0.03203
2224.38007	0.03116
2223.09430	0.03042
2221.80853	0.03009
2220.52276	0.03001
2219.23700	0.02975
2217.95123	0.02915
2216.66546	0.02856
2215.37969	0.02844
2214.09392	0.02880
2212.80815	0.02914
2211.52238	0.02907
2210.23661	0.02866
2208.95084	0.02827
2207.66508	0.02824
2206.37931	0.02871
2205.09354	0.02955
2203.80777	0.03030
2202.52200	0.03032
2201.23623	0.02928
2199.95046	0.02756
2198.66469	0.02599
2197.37893	0.02528
2196.09316	0.02545
2194.80739	0.02608
2193.52162	0.02673
2192.23585	0.02711
2190.95008	0.02697
2189.66431	0.02621
2188.37854	0.02520
2187.09277	0.02448
2185.80701	0.02431
2184.52124	0.02450
2183.23547	0.02486
2181.94970	0.02534
2180.66393	0.02581
2179.37816	0.02600
2178.09239	0.02580
2176.80662	0.02548
2175.52085	0.02537
2174.23509	0.02557
2172.94932	0.02571
2171.66355	0.02534
2170.37778	0.02432
2169.09201	0.02294
2167.80624	0.02162
2166.52047	0.02047
2165.23470	0.01941
2163.94894	0.01855
2162.66317	0.01805
2161.37740	0.01780
2160.09163	0.01755
2158.80586	0.01735
2157.52009	0.01755
2156.23432	0.01828
2154.94855	0.01938
2153.66278	0.02071
2152.37702	0.02217
2151.09125	0.02357
2149.80548	0.02466
2148.51971	0.02531
2147.23394	0.02542
2145.94817	0.02493
2144.66240	0.02399
2143.37663	0.02297
2142.09087	0.02216
2140.80510	0.02159
2139.51933	0.02133
2138.23356	0.02155
2136.94779	0.02230
2135.66202	0.02331
2134.37625	0.02420
2133.09048	0.02482
2131.80471	0.02538
2130.51895	0.02613
2129.23318	0.02707
2127.94741	0.02794
2126.66164	0.02845
2125.37587	0.02850
2124.09010	0.02822
2122.80433	0.02788
2121.51856	0.02780
2120.23280	0.02819
2118.94703	0.02900
2117.66126	0.02987
2116.37549	0.03039
2115.08972	0.03030
2113.80395	0.02969
2112.51818	0.02892
2111.23241	0.02843
2109.94664	0.02848
2108.66088	0.02901
2107.37511	0.02973
2106.08934	0.03032
2104.80357	0.03054
2103.51780	0.03035
2102.23203	0.02988
2100.94626	0.02926
2099.66049	0.02828
2098.37473	0.02747
2097.08896	0.02697
2095.80319	0.02674
2094.51742	0.02668
2093.23165	0.02675
2091.94588	0.02690
2090.66011	0.02704
2089.37434	0.02709
2088.08857	0.02709
2086.80281	0.02716
2085.51704	0.02729
2084.23127	0.02739
2082.94550	0.02742
2081.65973	0.02743
2080.37396	0.02748
2079.08819	0.02746
2077.80242	0.02721
2076.51666	0.02673
2075.23089	0.02621
2073.94512	0.02585
2072.65935	0.02557
2071.37358	0.02511
2070.08781	0.02437
2068.80204	0.02362
2067.51627	0.02336
2066.23050	0.02378
2064.94474	0.02451
2063.65897	0.02492
2062.37320	0.02467
2061.08743	0.02393
2059.80166	0.02311
2058.51589	0.02251
2057.23012	0.02221
2055.94435	0.02212
2054.65859	0.02209
2053.37282	0.02205
2052.08705	0.02202
2050.80128	0.02203
2049.51551	0.02200
2048.22974	0.02176
2046.94397	0.02114
2045.65820	0.02009
2044.37243	0.01892
2043.08667	0.01813
2041.80090	0.01796
2040.51513	0.01810
2039.22936	0.01803
2037.94359	0.01757
2036.65782	0.01704
2035.37205	0.01684
2034.08628	0.01704
2032.80052	0.01742
2031.51475	0.01772
2030.22898	0.01780
2028.94321	0.01765
2027.65744	0.01737
2026.37167	0.01719
2025.08590	0.01744
2023.80013	0.01822
2022.51436	0.01909
2021.22860	0.01939
2019.94283	0.01875
2018.65706	0.01751
2017.37129	0.01630
2016.08552	0.01563
2014.79975	0.01576
2013.51398	0.01670
2012.22821	0.01808
2010.94245	0.01917
2009.65668	0.01930
2008.37091	0.01844
2007.08514	0.01714
2005.79937	0.01619
2004.51360	0.01622
2003.22783	0.01729
2001.94206	0.01882
2000.65629	0.01994
1999.37053	0.02023
1998.08476	0.02007
1996.79899	0.02006
1995.51322	0.02041
1994.22745	0.02088
1992.94168	0.02120
1991.65591	0.02129
1990.37014	0.02121
1989.08438	0.02107
1987.79861	0.02097
1986.51284	0.02094
1985.22707	0.02094
1983.94130	0.02096
1982.65553	0.02090
1981.36976	0.02052
1980.08399	0.01962
1978.79822	0.01831
1977.51246	0.01706
1976.22669	0.01636
1974.94092	0.01637
1973.65515	0.01696
1972.36938	0.01793
1971.08361	0.01903
1969.79784	0.01986
1968.51207	0.02011
1967.22631	0.01981
1965.94054	0.01941
1964.65477	0.01939
1963.36900	0.01985
1962.08323	0.02049
1960.79746	0.02086
1959.51169	0.02078
1958.22592	0.02047
1956.94015	0.02038
1955.65439	0.02074
1954.36862	0.02135
1953.08285	0.02183
1951.79708	0.02197
1950.51131	0.02179
1949.22554	0.02146
1947.93977	0.02118
1946.65400	0.02113
1945.36823	0.02133
1944.08247	0.02166
1942.79670	0.02194
1941.51093	0.02211
1940.22516	0.02213
1938.93939	0.02205
1937.65362	0.02201
1936.36785	0.02215
1935.08208	0.02249
1933.79632	0.02293
1932.51055	0.02332
1931.22478	0.02358
1929.93901	0.02366
1928.65324	0.02361
1927.36747	0.02353
1926.08170	0.02350
1924.79593	0.02350
1923.51016	0.02347
1922.22440	0.02342
1920.93863	0.02339
1919.65286	0.02339
1918.36709	0.02343
1917.08132	0.02352
1915.79555	0.02366
1914.50978	0.02388
1913.22401	0.02419
1911.93825	0.02457
1910.65248	0.02488
1909.36671	0.02498
1908.08094	0.02482
1906.79517	0.02446
1905.50940	0.02413
1904.22363	0.02404
1902.93786	0.02429
1901.65209	0.02471
1900.36633	0.02499
1899.08056	0.02490
1897.79479	0.02452
1896.50902	0.02417
1895.22325	0.02411
1893.93748	0.02430
1892.65171	0.02449
1891.36594	0.02453
1890.08018	0.02443
1888.79441	0.02429
1887.50864	0.02412
1886.22287	0.02390
1884.93710	0.02368
1883.65133	0.02358
1882.36556	0.02361
1881.07979	0.02369
1879.79402	0.02372
1878.50826	0.02372
1877.22249	0.02379
1875.93672	0.02394
1874.65095	0.02415
1873.36518	0.02437
1872.07941	0.02451
1870.79364	0.02451
1869.50787	0.02441
1868.22211	0.02429
1866.93634	0.02418
1865.65057	0.02398
1864.36480	0.02364
1863.07903	0.02323
1861.79326	0.02295
1860.50749	0.02298
1859.22172	0.02324
1857.93595	0.02355
1856.65019	0.02373
1855.36442	0.02380
1854.07865	0.02386
1852.79288	0.02393
1851.50711	0.02391
1850.22134	0.02373
1848.93557	0.02349
1847.64980	0.02337
1846.36404	0.02348
1845.07827	0.02377
1843.79250	0.02408
1842.50673	0.02425
1841.22096	0.02418
1839.93519	0.02393
1838.64942	0.02369
1837.36365	0.02357
1836.07788	0.02358
1834.79212	0.02365
1833.50635	0.02373
1832.22058	0.02380
1830.93481	0.02386
1829.64904	0.02393
1828.36327	0.02393
1827.07750	0.02377
1825.79173	0.02347
1824.50597	0.02315
1823.22020	0.02291
1821.93443	0.02278
1820.64866	0.02273
1819.36289	0.02275
1818.07712	0.02282
1816.79135	0.02296
1815.50558	0.02317
1814.21981	0.02338
1812.93405	0.02346
1811.64828	0.02340
1810.36251	0.02325
1809.07674	0.02313
1807.79097	0.02305
1806.50520	0.02298
1805.21943	0.02292
1803.93366	0.02289
1802.64790	0.02294
1801.36213	0.02307
1800.07636	0.02321
1798.79059	0.02330
1797.50482	0.02332
1796.21905	0.02329
1794.93328	0.02324
1793.64751	0.02320
1792.36174	0.02321
1791.07598	0.02327
1789.79021	0.02329
1788.50444	0.02322
1787.21867	0.02306
1785.93290	0.02293
1784.64713	0.02289
1783.36136	0.02295
1782.07559	0.02301
1780.78983	0.02299
1779.50406	0.02292
1778.21829	0.02285
1776.93252	0.02280
1775.64675	0.02276
1774.36098	0.02270
1773.07521	0.02265
1771.78944	0.02273
1770.50367	0.02289
1769.21791	0.02302
1767.93214	0.02308
1766.64637	0.02312
1765.36060	0.02315
1764.07483	0.02312
1762.78906	0.02304
1761.50329	0.02302
1760.21752	0.02310
1758.93176	0.02325
1757.64599	0.02343
1756.36022	0.02367
1755.07445	0.02396
1753.78868	0.02426
1752.50291	0.02455
1751.21714	0.02489
1749.93137	0.02530
1748.64560	0.02576
1747.35984	0.02620
1746.07407	0.02662
1744.78830	0.02705
1743.50253	0.02750
1742.21676	0.02797
1740.93099	0.02851
1739.64522	0.02916
1738.35945	0.02990
1737.07369	0.03052
1735.78792	0.03090
1734.50215	0.03116
1733.21638	0.03154
1731.93061	0.03209
1730.64484	0.03264
1729.35907	0.03310
1728.07330	0.03353
1726.78753	0.03397
1725.50177	0.03447
1724.21600	0.03497
1722.93023	0.03543
1721.64446	0.03581
1720.35869	0.03611
1719.07292	0.03642
1717.78715	0.03686
1716.50138	0.03747
1715.21561	0.03813
1713.92985	0.03877
1712.64408	0.03946
1711.35831	0.04032
1710.07254	0.04136
1708.78677	0.04254
1707.50100	0.04377
1706.21523	0.04505
1704.92946	0.04647
1703.64370	0.04802
1702.35793	0.04965
1701.07216	0.05143
1699.78639	0.05355
1698.50062	0.05594
1697.21485	0.05839
1695.92908	0.06091
1694.64331	0.06361
1693.35754	0.06632
1692.07178	0.06879
1690.78601	0.07111
1689.50024	0.07347
1688.21447	0.07595
1686.92870	0.07846
1685.64293	0.08103
1684.35716	0.08380
1683.07139	0.08678
1681.78563	0.08977
1680.49986	0.09268
1679.21409	0.09563
1677.92832	0.09868
1676.64255	0.10182
1675.35678	0.10506
1674.07101	0.10843
1672.78524	0.11188
1671.49947	0.11536
1670.21371	0.11892
1668.92794	0.12256
1667.64217	0.12616
1666.35640	0.12958
1665.07063	0.13282
1663.78486	0.13603
1662.49909	0.13930
1661.21332	0.14260
1659.92756	0.14579
1658.64179	0.14878
1657.35602	0.15156
1656.07025	0.15411
1654.78448	0.15641
1653.49871	0.15863
1652.21294	0.16093
1650.92717	0.16314
1649.64140	0.16495
1648.35564	0.16636
1647.06987	0.16762
1645.78410	0.16891
1644.49833	0.17014
1643.21256	0.17120
1641.92679	0.17213
1640.64102	0.17308
1639.35525	0.17411
1638.06949	0.17508
1636.78372	0.17587
1635.49795	0.17651
1634.21218	0.17705
1632.92641	0.17739
1631.64064	0.17745
1630.35487	0.17719
1629.06910	0.17661
1627.78333	0.17571
1626.49757	0.17442
1625.21180	0.17275
1623.92603	0.17077
1622.64026	0.16858
1621.35449	0.16615
1620.06872	0.16336
1618.78295	0.16016
1617.49718	0.15673
1616.21142	0.15333
1614.92565	0.15003
1613.63988	0.14667
1612.35411	0.14316
1611.06834	0.13957
1609.78257	0.13601
1608.49680	0.13251
1607.21103	0.12909
1605.92526	0.12574
1604.63950	0.12248
1603.35373	0.11935
1602.06796	0.11641
1600.78219	0.11367
1599.49642	0.11111
1598.21065	0.10871
1596.92488	0.10647
1595.63911	0.10437
1594.35335	0.10240
1593.06758	0.10057
1591.78181	0.09892
1590.49604	0.09754
1589.21027	0.09642
1587.92450	0.09554
1586.63873	0.09483
1585.35296	0.09425
1584.06719	0.09383
1582.78143	0.09357
1581.49566	0.09349
1580.20989	0.09357
1578.92412	0.09379
1577.63835	0.09418
1576.35258	0.09489
1575.06681	0.09601
1573.78104	0.09732
1572.49528	0.09857
1571.20951	0.09974
1569.92374	0.10108
1568.63797	0.10272
1567.35220	0.10459
1566.06643	0.10654
1564.78066	0.10855
1563.49489	0.11061
1562.20912	0.11263
1560.92336	0.11459
1559.63759	0.11665
1558.35182	0.11897
1557.06605	0.12142
1555.78028	0.12376
1554.49451	0.12591
1553.20874	0.12796
1551.92297	0.12992
1550.63721	0.13176
1549.35144	0.13351
1548.06567	0.13518
1546.77990	0.13675
1545.49413	0.13821
1544.20836	0.13957
1542.92259	0.14077
1541.63682	0.14177
1540.35105	0.14263
1539.06529	0.14349
1537.77952	0.14432
1536.49375	0.14493
1535.20798	0.14524
1533.92221	0.14538
1532.63644	0.14552
1531.35067	0.14563
1530.06490	0.14565
1528.77914	0.14558
1527.49337	0.14546
1526.20760	0.14532
1524.92183	0.14514
1523.63606	0.14486
1522.35029	0.14449
1521.06452	0.14415
1519.77875	0.14386
1518.49298	0.14351
1517.20722	0.14295
1515.92145	0.14218
1514.63568	0.14114
1513.34991	0.13981
1512.06414	0.13828
1510.77837	0.13659
1509.49260	0.13470
1508.20683	0.13256
1506.92107	0.13030
1505.63530	0.12808
1504.34953	0.12589
1503.06376	0.12360
1501.77799	0.12119
1500.49222	0.11875
1499.20645	0.11628
1497.92068	0.11375
1496.63491	0.11117
1495.34915	0.10865
1494.06338	0.10617
1492.77761	0.10366
1491.49184	0.10108
1490.20607	0.09857
1488.92030	0.09624
1487.63453	0.09416
1486.34876	0.09234
1485.06299	0.09071
1483.77723	0.08925
1482.49146	0.08796
1481.20569	0.08692
1479.91992	0.08617
1478.63415	0.08570
1477.34838	0.08547
1476.06261	0.08548
1474.77684	0.08576
1473.49108	0.08631
1472.20531	0.08714
1470.91954	0.08816
1469.63377	0.08919
1468.34800	0.09008
1467.06223	0.09085
1465.77646	0.09156
1464.49069	0.09233
1463.20492	0.09320
1461.91916	0.09412
1460.63339	0.09503
1459.34762	0.09591
1458.06185	0.09680
1456.77608	0.09780
1455.49031	0.09888
1454.20454	0.09984
1452.91877	0.10053
1451.63301	0.10094
1450.34724	0.10116
1449.06147	0.10123
1447.77570	0.10116
1446.48993	0.10098
1445.20416	0.10071
1443.91839	0.10038
1442.63262	0.10003
1441.34685	0.09964
1440.06109	0.09910
1438.77532	0.09835
1437.48955	0.09743
1436.20378	0.09647
1434.91801	0.09552
1433.63224	0.09450
1432.34647	0.09343
1431.06070	0.09240
1429.77494	0.09150
1428.48917	0.09076
1427.20340	0.09015
1425.91763	0.08968
1424.63186	0.08936
1423.34609	0.08918
1422.06032	0.08907
1420.77455	0.08897
1419.48878	0.08895
1418.20302	0.08906
1416.91725	0.08922
1415.63148	0.08934
1414.34571	0.08940
1413.05994	0.08945
1411.77417	0.08948
1410.48840	0.08947
1409.20263	0.08943
1407.91687	0.08938
1406.63110	0.08935
1405.34533	0.08936
1404.05956	0.08942
1402.77379	0.08949
1401.48802	0.08952
1400.20225	0.08945
1398.91648	0.08931
1397.63071	0.08912
1396.34495	0.08895
1395.05918	0.08883
1393.77341	0.08881
1392.48764	0.08885
1391.20187	0.08889
1389.91610	0.08887
1388.63033	0.08881
1387.34456	0.08874
1386.05880	0.08864
1384.77303	0.08849
1383.48726	0.08827
1382.20149	0.08803
1380.91572	0.08778
1379.62995	0.08750
1378.34418	0.08717
1377.05841	0.08681
1375.77264	0.08641
1374.48688	0.08598
1373.20111	0.08552
1371.91534	0.08501
1370.62957	0.08444
1369.34380	0.08382
1368.05803	0.08316
1366.77226	0.08246
1365.48649	0.08171
1364.20073	0.08095
1362.91496	0.08021
1361.62919	0.07954
1360.34342	0.07895
1359.05765	0.07846
1357.77188	0.07807
1356.48611	0.07774
1355.20034	0.07749
1353.91457	0.07732
1352.62881	0.07729
1351.34304	0.07739
1350.05727	0.07761
1348.77150	0.07791
1347.48573	0.07825
1346.19996	0.07864
1344.91419	0.07908
1343.62842	0.07956
1342.34266	0.08001
1341.05689	0.08037
1339.77112	0.08062
1338.48535	0.08076
1337.19958	0.08081
1335.91381	0.08077
1334.62804	0.08062
1333.34227	0.08038
1332.05650	0.08004
1330.77074	0.07965
1329.48497	0.07923
1328.19920	0.07878
1326.91343	0.07834
1325.62766	0.07794
1324.34189	0.07760
1323.05612	0.07733
1321.77035	0.07712
1320.48459	0.07695
1319.19882	0.07681
1317.91305	0.07670
1316.62728	0.07661
1315.34151	0.07653
1314.05574	0.07641
1312.76997	0.07622
1311.48420	0.07599
1310.19843	0.07574
1308.91267	0.07547
1307.62690	0.07520
1306.34113	0.07496
1305.05536	0.07478
1303.76959	0.07465
1302.48382	0.07455
1301.19805	0.07448
1299.91228	0.07445
1298.62652	0.07444
1297.34075	0.07445
1296.05498	0.07446
1294.76921	0.07450
1293.48344	0.07460
1292.19767	0.07476
1290.91190	0.07497
1289.62613	0.07520
1288.34036	0.07549
1287.05460	0.07585
1285.76883	0.07630
1284.48306	0.07678
1283.19729	0.07718
1281.91152	0.07746
1280.62575	0.07763
1279.33998	0.07776
1278.05421	0.07791
1276.76845	0.07809
1275.48268	0.07826
1274.19691	0.07839
1272.91114	0.07849
1271.62537	0.07860
1270.33960	0.07877
1269.05383	0.07900
1267.76806	0.07930
1266.48229	0.07965
1265.19653	0.08004
1263.91076	0.08045
1262.62499	0.08087
1261.33922	0.08131
1260.05345	0.08181
1258.76768	0.08237
1257.48191	0.08297
1256.19614	0.08356
1254.91037	0.08412
1253.62461	0.08470
1252.33884	0.08532
1251.05307	0.08601
1249.76730	0.08678
1248.48153	0.08760
1247.19576	0.08846
1245.90999	0.08933
1244.62422	0.09022
1243.33846	0.09109
1242.05269	0.09191
1240.76692	0.09267
1239.48115	0.09332
1238.19538	0.09386
1236.90961	0.09427
1235.62384	0.09459
1234.33807	0.09483
1233.05230	0.09500
1231.76654	0.09507
1230.48077	0.09502
1229.19500	0.09481
1227.90923	0.09445
1226.62346	0.09395
1225.33769	0.09335
1224.05192	0.09267
1222.76615	0.09194
1221.48039	0.09121
1220.19462	0.09049
1218.90885	0.08976
1217.62308	0.08901
1216.33731	0.08829
1215.05154	0.08768
1213.76577	0.08720
1212.48000	0.08686
1211.19423	0.08660
1209.90847	0.08641
1208.62270	0.08626
1207.33693	0.08614
1206.05116	0.08603
1204.76539	0.08594
1203.47962	0.08583
1202.19385	0.08564
1200.90808	0.08537
1199.62232	0.08498
1198.33655	0.08445
1197.05078	0.08387
1195.76501	0.08328
1194.47924	0.08270
1193.19347	0.08213
1191.90770	0.08154
1190.62193	0.08094
1189.33616	0.08035
1188.05040	0.07980
1186.76463	0.07934
1185.47886	0.07900
1184.19309	0.07874
1182.90732	0.07852
1181.62155	0.07832
1180.33578	0.07815
1179.05001	0.07806
1177.76425	0.07802
1176.47848	0.07801
1175.19271	0.07803
1173.90694	0.07808
1172.62117	0.07817
1171.33540	0.07826
1170.04963	0.07831
1168.76386	0.07833
1167.47809	0.07833
1166.19233	0.07835
1164.90656	0.07836
1163.62079	0.07832
1162.33502	0.07825
1161.04925	0.07817
1159.76348	0.07806
1158.47771	0.07786
1157.19194	0.07753
1155.90618	0.07709
1154.62041	0.07661
1153.33464	0.07614
1152.04887	0.07567
1150.76310	0.07517
1149.47733	0.07461
1148.19156	0.07399
1146.90579	0.07336
1145.62002	0.07280
1144.33426	0.07233
1143.04849	0.07191
1141.76272	0.07148
1140.47695	0.07099
1139.19118	0.07047
1137.90541	0.06996
1136.61964	0.06951
1135.33387	0.06917
1134.04811	0.06897
1132.76234	0.06885
1131.47657	0.06876
1130.19080	0.06864
1128.90503	0.06853
1127.61926	0.06845
1126.33349	0.06837
1125.04772	0.06824
1123.76195	0.06803
1122.47619	0.06780
1121.19042	0.06760
1119.90465	0.06746
1118.61888	0.06738
1117.33311	0.06737
1116.04734	0.06742
1114.76157	0.06750
1113.47580	0.06761
1112.19004	0.06772
1110.90427	0.06786
1109.61850	0.06800
1108.33273	0.06813
1107.04696	0.06828
1105.76119	0.06847
1104.47542	0.06871
1103.18965	0.06900
1101.90388	0.06933
1100.61812	0.06971
1099.33235	0.07011
1098.04658	0.07051
1096.76081	0.07093
1095.47504	0.07138
1094.18927	0.07187
1092.90350	0.07238
1091.61773	0.07288
1090.33197	0.07337
1089.04620	0.07389
1087.76043	0.07452
1086.47466	0.07533
1085.18889	0.07629
1083.90312	0.07725
1082.61735	0.07809
1081.33158	0.07871
1080.04581	0.07914
1078.76005	0.07941
1077.47428	0.07958
1076.18851	0.07967
1074.90274	0.07971
1073.61697	0.07972
1072.33120	0.07972
1071.04543	0.07976
1069.75966	0.07987
1068.47390	0.08003
1067.18813	0.08021
1065.90236	0.08038
1064.61659	0.08051
1063.33082	0.08060
1062.04505	0.08063
1060.75928	0.08061
1059.47351	0.08058
1058.18774	0.08055
1056.90198	0.08050
1055.61621	0.08040
1054.33044	0.08023
1053.04467	0.08003
1051.75890	0.07981
1050.47313	0.07956
1049.18736	0.07932
1047.90159	0.07915
1046.61583	0.07907
1045.33006	0.07904
1044.04429	0.07898
1042.75852	0.07887
1041.47275	0.07875
1040.18698	0.07866
1038.90121	0.07863
1037.61544	0.07863
1036.32967	0.07866
1035.04391	0.07870
1033.75814	0.07875
1032.47237	0.07879
1031.18660	0.07876
1029.90083	0.07864
1028.61506	0.07838
1027.32929	0.07796
1026.04352	0.07741
1024.75775	0.07675
1023.47199	0.07604
1022.18622	0.07534
1020.90045	0.07466
1019.61468	0.07402
1018.32891	0.07349
1017.04314	0.07309
1015.75737	0.07280
1014.47160	0.07250
1013.18584	0.07208
1011.90007	0.07155
1010.61430	0.07096
1009.32853	0.07037
1008.04276	0.06983
1006.75699	0.06933
1005.47122	0.06881
1004.18545	0.06822
1002.89968	0.06758
1001.61392	0.06695
1000.32815	0.06638
999.04238	0.06587
997.75661	0.06540
996.47084	0.06494
995.18507	0.06448
993.89930	0.06400
992.61353	0.06349
991.32777	0.06295
990.04200	0.06239
988.75623	0.06183
987.47046	0.06132
986.18469	0.06090
984.89892	0.06060
983.61315	0.06038
982.32738	0.06019
981.04161	0.06002
979.75585	0.05993
978.47008	0.05994
977.18431	0.06000
975.89854	0.06002
974.61277	0.05993
973.32700	0.05972
972.04123	0.05945
970.75546	0.05914
969.46970	0.05878
968.18393	0.05836
966.89816	0.05794
965.61239	0.05758
964.32662	0.05733
963.04085	0.05718
961.75508	0.05709
960.46931	0.05696
959.18354	0.05675
957.89778	0.05645
956.61201	0.05613
955.32624	0.05584
954.04047	0.05558
952.75470	0.05531
951.46893	0.05502
950.18316	0.05476
948.89739	0.05459
947.61163	0.05448
946.32586	0.05437
945.04009	0.05424
943.75432	0.05414
942.46855	0.05409
941.18278	0.05406
939.89701	0.05401
938.61124	0.05393
937.32547	0.05384
936.03971	0.05373
934.75394	0.05359
933.46817	0.05345
932.18240	0.05332
930.89663	0.05319
929.61086	0.05301
928.32509	0.05281
927.03932	0.05267
925.75356	0.05264
924.46779	0.05269
923.18202	0.05269
921.89625	0.05255
920.61048	0.05224
919.32471	0.05185
918.03894	0.05150
916.75317	0.05125
915.46740	0.05106
914.18164	0.05085
912.89587	0.05057
911.61010	0.05027
910.32433	0.05002
909.03856	0.04983
907.75279	0.04966
906.46702	0.04946
905.18125	0.04927
903.89549	0.04912
902.60972	0.04899
901.32395	0.04881
900.03818	0.04854
898.75241	0.04822
897.46664	0.04791
896.18087	0.04763
894.89510	0.04735
893.60933	0.04709
892.32357	0.04688
891.03780	0.04677
889.75203	0.04671
888.46626	0.04663
887.18049	0.04648
885.89472	0.04627
884.60895	0.04608
883.32318	0.04595
882.03742	0.04584
880.75165	0.04569
879.46588	0.04552
878.18011	0.04541
876.89434	0.04542
875.60857	0.04546
874.32280	0.04542
873.03703	0.04522
871.75126	0.04495
870.46550	0.04473
869.17973	0.04459
867.89396	0.04450
866.60819	0.04443
865.32242	0.04439
864.03665	0.04439
862.75088	0.04440
861.46511	0.04434
860.17935	0.04420
858.89358	0.04406
857.60781	0.04394
856.32204	0.04385
855.03627	0.04375
853.75050	0.04363
852.46473	0.04355
851.17896	0.04350
849.89319	0.04347
848.60743	0.04342
847.32166	0.04333
846.03589	0.04325
844.75012	0.04320
843.46435	0.04322
842.17858	0.04326
840.89281	0.04324
839.60704	0.04313
838.32128	0.04297
837.03551	0.04285
835.74974	0.04281
834.46397	0.04285
833.17820	0.04291
831.89243	0.04294
830.60666	0.04289
829.32089	0.04280
828.03512	0.04272
826.74936	0.04270
825.46359	0.04274
824.17782	0.04283
822.89205	0.04295
821.60628	0.04312
820.32051	0.04333
819.03474	0.04353
817.74897	0.04368
816.46321	0.04373
815.17744	0.04371
813.89167	0.04367
812.60590	0.04367
811.32013	0.04378
810.03436	0.04398
808.74859	0.04420
807.46282	0.04437
806.17705	0.04447
804.89129	0.04453
803.60552	0.04459
802.31975	0.04466
801.03398	0.04469
799.74821	0.04466
798.46244	0.04460
797.17667	0.04464
795.89090	0.04482
794.60513	0.04509
793.31937	0.04536
792.03360	0.04561
790.74783	0.04586
789.46206	0.04606
788.17629	0.04614
786.89052	0.04610
785.60475	0.04608
784.31898	0.04615
783.03322	0.04628
781.74745	0.04638
780.46168	0.04644
779.17591	0.04650
777.89014	0.04661
776.60437	0.04677
775.31860	0.04694
774.03283	0.04711
772.74706	0.04728
771.46130	0.04742
770.17553	0.04753
768.88976	0.04764
767.60399	0.04776
766.31822	0.04791
765.03245	0.04809
763.74668	0.04829
762.46091	0.04851
761.17515	0.04876
759.88938	0.04898
758.60361	0.04913
757.31784	0.04923
756.03207	0.04934
754.74630	0.04953
753.46053	0.04974
752.17476	0.04986
750.88899	0.04988
749.60323	0.04990
748.31746	0.05002
747.03169	0.05028
745.74592	0.05063
744.46015	0.05103
743.17438	0.05140
741.88861	0.05166
740.60284	0.05173
739.31708	0.05164
738.03131	0.05156
736.74554	0.05160
735.45977	0.05174
734.17400	0.05188
732.88823	0.05194
731.60246	0.05197
730.31669	0.05211
729.03092	0.05238
727.74516	0.05271
726.45939	0.05297
725.17362	0.05308
723.88785	0.05308
722.60208	0.05324
721.31631	0.05355
720.03054	0.05391
718.74477	0.05424
717.45901	0.05450
716.17324	0.05469
714.88747	0.05480
713.60170	0.05488
712.31593	0.05498
711.03016	0.05512
709.74439	0.05532
708.45862	0.05556
707.17285	0.05584
705.88709	0.05613
704.60132	0.05643
703.31555	0.05671
702.02978	0.05696
700.74401	0.05718
699.45824	0.05739
698.17247	0.05760
696.88670	0.05780
695.60094	0.05800
694.31517	0.05814
693.02940	0.05819
691.74363	0.05813
690.45786	0.05803
689.17209	0.05797
687.88632	0.05798
686.60055	0.05804
685.31478	0.05814
684.02902	0.05824
682.74325	0.05835
681.45748	0.05848
680.17171	0.05863
678.88594	0.05881
677.60017	0.05903
676.31440	0.05923
675.02863	0.05939
673.74287	0.05950
672.45710	0.05954
671.17133	0.05959
669.88556	0.05968
668.59979	0.05984
667.31402	0.06004
666.02825	0.06022
664.74248	0.06039
663.45671	0.06057
662.17095	0.06077
660.88518	0.06098
659.59941	0.06118
658.31364	0.06133
657.02787	0.06144
655.74210	0.06154
654.45633	0.06166
653.17056	0.06180
651.88480	0.06195
650.59903	0.06209
649.31326	0.06220
648.02749	0.06228
646.74172	0.06236
645.45595	0.06243
644.17018	0.06251
642.88441	0.06255
641.59864	0.06253
640.31288	0.06244
639.02711	0.06232
637.74134	0.06220
636.45557	0.06211
635.16980	0.06208
633.88403	0.06213
632.59826	0.06222
631.31249	0.06226
630.02673	0.06200
628.74096	0.06148
627.45519	0.06127
626.16942	0.06035
624.88365	0.05892
623.59788	0.05744
622.31211	0.05618
621.02634	0.05545
619.74057	0.05582
618.45481	0.05780
617.16904	0.06095
615.88327	0.06367
614.59750	0.06453
613.31173	0.06345
612.02596	0.06155
610.74019	0.06012
609.45442	0.05985
608.16866	0.06067
606.88289	0.06192
605.59712	0.06277
604.31135	0.06287
603.02558	0.06256
601.73981	0.06241
600.45404	0.06262
599.16827	0.06296
597.88250	0.06319
596.59674	0.06335
595.31097	0.06356
594.02520	0.06386
592.73943	0.06412
591.45366	0.06425
590.16789	0.06425
588.88212	0.06425
587.59635	0.06432
586.31059	0.06448
585.02482	0.06466
583.73905	0.06480
582.45328	0.06488
581.16751	0.06489
579.88174	0.06485
578.59597	0.06481
577.31020	0.06478
576.02443	0.06477
574.73867	0.06477
573.45290	0.06476
572.16713	0.06472
570.88136	0.06464
569.59559	0.06457
568.30982	0.06461
567.02405	0.06481
565.73828	0.06517
564.45251	0.06561
563.16675	0.06598
561.88098	0.06614
560.59521	0.06601
559.30944	0.06567
558.02367	0.06531
556.73790	0.06509
555.45213	0.06510
554.16636	0.06531
552.88060	0.06560
551.59483	0.06587
550.30906	0.06602
549.02329	0.06606
547.73752	0.06605
546.45175	0.06600
545.16598	0.06591
543.88021	0.06574
542.59444	0.06550
541.30868	0.06523
540.02291	0.06500
538.73714	0.06491
537.45137	0.06500
536.16560	0.06526
534.87983	0.06558
533.59406	0.06579
532.30829	0.06580
531.02253	0.06567
529.73676	0.06556
528.45099	0.06561
527.16522	0.06583
525.87945	0.06606
524.59368	0.06616
523.30791	0.06608
522.02214	0.06592
520.73637	0.06580
519.45061	0.06571
518.16484	0.06562
516.87907	0.06549
515.59330	0.06534
514.30753	0.06518
513.02176	0.06501
511.73599	0.06487
510.45022	0.06482
509.16446	0.06487
507.87869	0.06489
506.59292	0.06478
505.30715	0.06448
504.02138	0.06407
502.73561	0.06363
501.44984	0.06323
500.16407	0.06290
498.87830	0.06263
497.59254	0.06243
496.30677	0.06229
495.02100	0.06218
493.73523	0.06201
492.44946	0.06171
491.16369	0.06133
489.87792	0.06100
488.59215	0.06084
487.30639	0.06086
486.02062	0.06093
484.73485	0.06096
483.44908	0.06091
482.16331	0.06083
480.87754	0.06073
479.59177	0.06063
478.30600	0.06054
477.02023	0.06048
475.73447	0.06044
474.44870	0.06038
473.16293	0.06025
471.87716	0.06005
470.59139	0.05983
469.30562	0.05966
468.01985	0.05961
466.73408	0.05965
465.44832	0.05971
464.16255	0.05970
462.87678	0.05957
461.59101	0.05936
460.30524	0.05912
459.01947	0.05888
457.73370	0.05866
456.44793	0.05847
455.16216	0.05830
453.87640	0.05812
452.59063	0.05790
451.30486	0.05766
450.01909	0.05740
448.73332	0.05708
447.44755	0.05672
446.16178	0.05638
444.87601	0.05619
443.59025	0.05616
442.30448	0.05620
441.01871	0.05620
439.73294	0.05609
438.44717	0.05589
437.16140	0.05567
435.87563	0.05547
434.58986	0.05533
433.30409	0.05524
432.01833	0.05522
430.73256	0.05526
429.44679	0.05530
428.16102	0.05531
426.87525	0.05522
425.58948	0.05506
424.30371	0.05485
423.01794	0.05462
421.73218	0.05437
420.44641	0.05409
419.16064	0.05381
417.87487	0.05359
416.58910	0.05341
415.30333	0.05323
414.01756	0.05303
412.73179	0.05284
411.44602	0.05264
410.16026	0.05240
408.87449	0.05215
407.58872	0.05191
406.30295	0.05174
405.01718	0.05168
403.73141	0.05167
402.44564	0.05166
401.15987	0.05156
399.87411	0.05138
