3997.45528	0.01921
3996.16951	0.01878
3994.88374	0.01792
3993.59798	0.01694
3992.31221	0.01641
3991.02644	0.01646
3989.74067	0.01674
3988.45490	0.01683
3987.16913	0.01675
3985.88336	0.01686
3984.59759	0.01738
3983.31183	0.01805
3982.02606	0.01842
3980.74029	0.01833
3979.45452	0.01804
3978.16875	0.01792
3976.88298	0.01804
3975.59721	0.01816
3974.31144	0.01800
3973.02567	0.01748
3971.73991	0.01678
3970.45414	0.01618
3969.16837	0.01584
3967.88260	0.01564
3966.59683	0.01546
3965.31106	0.01536
3964.02529	0.01549
3962.73952	0.01584
3961.45376	0.01622
3960.16799	0.01646
3958.88222	0.01651
3957.59645	0.01638
3956.31068	0.01608
3955.02491	0.01569
3953.73914	0.01530
3952.45337	0.01502
3951.16760	0.01489
3949.88184	0.01503
3948.59607	0.01545
3947.31030	0.01596
3946.02453	0.01622
3944.73876	0.01608
3943.45299	0.01583
3942.16722	0.01582
3940.88145	0.01605
3939.59569	0.01624
3938.30992	0.01615
3937.02415	0.01579
3935.73838	0.01525
3934.45261	0.01471
3933.16684	0.01440
3931.88107	0.01449
3930.59530	0.01493
3929.30953	0.01554
3928.02377	0.01604
3926.73800	0.01621
3925.45223	0.01600
3924.16646	0.01570
3922.88069	0.01567
3921.59492	0.01595
3920.30915	0.01622
3919.02338	0.01618
3917.73762	0.01581
3916.45185	0.01542
3915.16608	0.01527
3913.88031	0.01540
3912.59454	0.01565
3911.30877	0.01586
3910.02300	0.01600
3908.73723	0.01604
3907.45146	0.01598
3906.16570	0.01589
3904.87993	0.01599
3903.59416	0.01636
3902.30839	0.01681
3901.02262	0.01700
3899.73685	0.01688
3898.45108	0.01668
3897.16531	0.01661
3895.87955	0.01674
3894.59378	0.01699
3893.30801	0.01722
3892.02224	0.01750
3890.73647	0.01808
3889.45070	0.01895
3888.16493	0.01966
3886.87916	0.01972
3885.59339	0.01915
3884.30763	0.01837
3883.02186	0.01779
3881.73609	0.01753
3880.45032	0.01741
3879.16455	0.01711
3877.87878	0.01649
3876.59301	0.01583
3875.30724	0.01557
3874.02148	0.01583
3872.73571	0.01631
3871.44994	0.01663
3870.16417	0.01675
3868.87840	0.01681
3867.59263	0.01684
3866.30686	0.01688
3865.02109	0.01707
3863.73532	0.01740
3862.44956	0.01755
3861.16379	0.01725
3859.87802	0.01660
3858.59225	0.01606
3857.30648	0.01593
3856.02071	0.01614
3854.73494	0.01643
3853.44917	0.01660
3852.16341	0.01652
3850.87764	0.01612
3849.59187	0.01566
3848.30610	0.01549
3847.02033	0.01562
3845.73456	0.01566
3844.44879	0.01536
3843.16302	0.01499
3841.87725	0.01495
3840.59149	0.01523
3839.30572	0.01548
3838.01995	0.01551
3836.73418	0.01546
3835.44841	0.01553
3834.16264	0.01582
3832.87687	0.01628
3831.59110	0.01662
3830.30534	0.01650
3829.01957	0.01584
3827.73380	0.01499
3826.44803	0.01435
3825.16226	0.01392
3823.87649	0.01341
3822.59072	0.01281
3821.30495	0.01262
3820.01918	0.01314
3818.73342	0.01405
3817.44765	0.01482
3816.16188	0.01529
3814.87611	0.01547
3813.59034	0.01529
3812.30457	0.01487
3811.01880	0.01453
3809.73303	0.01439
3808.44726	0.01432
3807.16150	0.01431
3805.87573	0.01445
3804.58996	0.01459
3803.30419	0.01448
3802.01842	0.01416
3800.73265	0.01395
3799.44688	0.01395
3798.16111	0.01411
3796.87535	0.01446
3795.58958	0.01497
3794.30381	0.01541
3793.01804	0.01556
3791.73227	0.01552
3790.44650	0.01556
3789.16073	0.01587
3787.87496	0.01629
3786.58919	0.01647
3785.30343	0.01620
3784.01766	0.01568
3782.73189	0.01538
3781.44612	0.01555
3780.16035	0.01605
3778.87458	0.01652
3777.58881	0.01668
3776.30304	0.01643
3775.01728	0.01588
3773.73151	0.01527
3772.44574	0.01487
3771.15997	0.01483
3769.87420	0.01513
3768.58843	0.01558
3767.30266	0.01597
3766.01689	0.01628
3764.73112	0.01653
3763.44536	0.01665
3762.15959	0.01657
3760.87382	0.01631
3759.58805	0.01604
3758.30228	0.01597
3757.01651	0.01625
3755.73074	0.01672
3754.44497	0.01696
3753.15921	0.01665
3751.87344	0.01592
3750.58767	0.01521
3749.30190	0.01491
3748.01613	0.01498
3746.73036	0.01498
3745.44459	0.01466
3744.15882	0.01435
3742.87305	0.01422
3741.58729	0.01410
3740.30152	0.01392
3739.01575	0.01387
3737.72998	0.01402
3736.44421	0.01424
3735.15844	0.01442
3733.87267	0.01453
3732.58690	0.01462
3731.30114	0.01469
3730.01537	0.01470
3728.72960	0.01464
3727.44383	0.01482
3726.15806	0.01552
3724.87229	0.01652
3723.58652	0.01713
3722.30075	0.01691
3721.01498	0.01603
3719.72922	0.01501
3718.44345	0.01431
3717.15768	0.01405
3715.87191	0.01412
3714.58614	0.01431
3713.30037	0.01437
3712.01460	0.01415
3710.72883	0.01374
3709.44307	0.01342
3708.15730	0.01339
3706.87153	0.01362
3705.58576	0.01380
3704.29999	0.01381
3703.01422	0.01377
3701.72845	0.01387
3700.44268	0.01404
3699.15691	0.01415
3697.87115	0.01410
3696.58538	0.01401
3695.29961	0.01413
3694.01384	0.01462
3692.72807	0.01536
3691.44230	0.01594
3690.15653	0.01588
3688.87076	0.01518
3687.58500	0.01432
3686.29923	0.01387
3685.01346	0.01397
3683.72769	0.01437
3682.44192	0.01472
3681.15615	0.01471
3679.87038	0.01431
3678.58461	0.01368
3677.29884	0.01314
3676.01308	0.01319
3674.72731	0.01406
3673.44154	0.01533
3672.15577	0.01624
3670.87000	0.01645
3669.58423	0.01627
3668.29846	0.01607
3667.01269	0.01601
3665.72693	0.01602
3664.44116	0.01596
3663.15539	0.01578
3661.86962	0.01564
3660.58385	0.01566
3659.29808	0.01569
3658.01231	0.01554
3656.72654	0.01530
3655.44077	0.01529
3654.15501	0.01557
3652.86924	0.01588
3651.58347	0.01607
3650.29770	0.01626
3649.01193	0.01658
3647.72616	0.01691
3646.44039	0.01707
3645.15462	0.01699
3643.86886	0.01678
3642.58309	0.01667
3641.29732	0.01687
3640.01155	0.01733
3638.72578	0.01769
3637.44001	0.01753
3636.15424	0.01693
3634.86847	0.01642
3633.58270	0.01650
3632.29694	0.01703
3631.01117	0.01749
3629.72540	0.01771
3628.43963	0.01805
3627.15386	0.01871
3625.86809	0.01940
3624.58232	0.01978
3623.29655	0.01984
3622.01079	0.01977
3620.72502	0.01976
3619.43925	0.01989
3618.15348	0.02007
3616.86771	0.01999
3615.58194	0.01949
3614.29617	0.01884
3613.01040	0.01851
3611.72463	0.01873
3610.43887	0.01929
3609.15310	0.01991
3607.86733	0.02059
3606.58156	0.02140
3605.29579	0.02218
3604.01002	0.02271
3602.72425	0.02290
3601.43848	0.02292
3600.15272	0.02290
3598.86695	0.02279
3597.58118	0.02232
3596.29541	0.02151
3595.00964	0.02078
3593.72387	0.02061
3592.43810	0.02102
3591.15233	0.02160
3589.86656	0.02207
3588.58080	0.02243
3587.29503	0.02283
3586.00926	0.02319
3584.72349	0.02331
3583.43772	0.02313
3582.15195	0.02288
3580.86618	0.02291
3579.58041	0.02339
3578.29464	0.02418
3577.00888	0.02496
3575.72311	0.02547
3574.43734	0.02573
3573.15157	0.02588
3571.86580	0.02607
3570.58003	0.02628
3569.29426	0.02652
3568.00849	0.02686
3566.72273	0.02735
3565.43696	0.02782
3564.15119	0.02801
3562.86542	0.02781
3561.57965	0.02735
3560.29388	0.02688
3559.00811	0.02653
3557.72234	0.02635
3556.43657	0.02627
3555.15081	0.02625
3553.86504	0.02635
3552.57927	0.02673
3551.29350	0.02741
3550.00773	0.02817
3548.72196	0.02866
3547.43619	0.02873
3546.15042	0.02847
3544.86466	0.02819
3543.57889	0.02814
3542.29312	0.02844
3541.00735	0.02905
3539.72158	0.02976
3538.43581	0.03026
3537.15004	0.03031
3535.86427	0.02998
3534.57850	0.02960
3533.29274	0.02960
3532.00697	0.03009
3530.72120	0.03086
3529.43543	0.03156
3528.14966	0.03194
3526.86389	0.03204
3525.57812	0.03206
3524.29235	0.03211
3523.00659	0.03212
3521.72082	0.03201
3520.43505	0.03182
3519.14928	0.03173
3517.86351	0.03186
3516.57774	0.03216
3515.29197	0.03252
3514.00620	0.03276
3512.72043	0.03277
3511.43467	0.03265
3510.14890	0.03266
3508.86313	0.03291
3507.57736	0.03324
3506.29159	0.03344
3505.00582	0.03356
3503.72005	0.03380
3502.43428	0.03416
3501.14852	0.03443
3499.86275	0.03440
3498.57698	0.03412
3497.29121	0.03394
3496.00544	0.03415
3494.71967	0.03473
3493.43390	0.03534
3492.14813	0.03563
3490.86236	0.03552
3489.57660	0.03525
3488.29083	0.03513
3487.00506	0.03539
3485.71929	0.03594
3484.43352	0.03654
3483.14775	0.03697
3481.86198	0.03722
3480.57621	0.03740
3479.29045	0.03755
3478.00468	0.03763
3476.71891	0.03767
3475.43314	0.03770
3474.14737	0.03774
3472.86160	0.03776
3471.57583	0.03786
3470.29006	0.03823
3469.00429	0.03893
3467.71853	0.03979
3466.43276	0.04047
3465.14699	0.04065
3463.86122	0.04029
3462.57545	0.03967
3461.28968	0.03927
3460.00391	0.03941
3458.71814	0.03982
3457.43238	0.03995
3456.14661	0.03951
3454.86084	0.03883
3453.57507	0.03841
3452.28930	0.03850
3451.00353	0.03894
3449.71776	0.03947
3448.43199	0.03984
3447.14622	0.03987
3445.86046	0.03960
3444.57469	0.03936
3443.28892	0.03947
3442.00315	0.04000
3440.71738	0.04061
3439.43161	0.04093
3438.14584	0.04087
3436.86007	0.04073
3435.57431	0.04090
3434.28854	0.04154
3433.00277	0.04240
3431.71700	0.04299
3430.43123	0.04304
3429.14546	0.04271
3427.85969	0.04243
3426.57392	0.04251
3425.28815	0.04289
3424.00239	0.04339
3422.71662	0.04384
3421.43085	0.04417
3420.14508	0.04426
3418.85931	0.04394
3417.57354	0.04318
3416.28777	0.04225
3415.00200	0.04165
3413.71624	0.04169
3412.43047	0.04223
3411.14470	0.04288
3409.85893	0.04339
3408.57316	0.04380
3407.28739	0.04413
3406.00162	0.04430
3404.71585	0.04427
3403.43008	0.04419
3402.14432	0.04424
3400.85855	0.04441
3399.57278	0.04450
3398.28701	0.04448
3397.00124	0.04457
3395.71547	0.04495
3394.42970	0.04557
3393.14393	0.04613
3391.85817	0.04636
3390.57240	0.04618
3389.28663	0.04581
3388.00086	0.04555
3386.71509	0.04559
3385.42932	0.04586
3384.14355	0.04620
3382.85778	0.04651
3381.57201	0.04676
3380.28625	0.04691
3379.00048	0.04695
3377.71471	0.04687
3376.42894	0.04671
3375.14317	0.04651
3373.85740	0.04642
3372.57163	0.04663
3371.28586	0.04722
3370.00010	0.04795
3368.71433	0.04847
3367.42856	0.04864
3366.14279	0.04863
3364.85702	0.04867
3363.57125	0.04884
3362.28548	0.04906
3360.99971	0.04921
3359.71394	0.04924
3358.42818	0.04920
3357.14241	0.04925
3355.85664	0.04945
3354.57087	0.04971
3353.28510	0.04984
3351.99933	0.04989
3350.71356	0.05004
3349.42779	0.05044
3348.14202	0.05096
3346.85626	0.05136
3345.57049	0.05155
3344.28472	0.05162
3342.99895	0.05170
3341.71318	0.05186
3340.42741	0.05207
3339.14164	0.05221
3337.85587	0.05222
3336.57011	0.05219
3335.28434	0.05230
3333.99857	0.05261
3332.71280	0.05299
3331.42703	0.05326
3330.14126	0.05343
3328.85549	0.05366
3327.56972	0.05407
3326.28395	0.05457
3324.99819	0.05494
3323.71242	0.05502
3322.42665	0.05484
3321.14088	0.05461
3319.85511	0.05457
3318.56934	0.05474
3317.28357	0.05493
3315.99780	0.05490
3314.71204	0.05464
3313.42627	0.05435
3312.14050	0.05426
3310.85473	0.05438
3309.56896	0.05454
3308.28319	0.05459
3306.99742	0.05458
3305.71165	0.05461
3304.42588	0.05478
3303.14012	0.05511
3301.85435	0.05551
3300.56858	0.05581
3299.28281	0.05589
3297.99704	0.05581
3296.71127	0.05578
3295.42550	0.05602
3294.13973	0.05648
3292.85397	0.05684
3291.56820	0.05676
3290.28243	0.05624
3288.99666	0.05563
3287.71089	0.05530
3286.42512	0.05534
3285.13935	0.05552
3283.85358	0.05567
3282.56781	0.05580
3281.28205	0.05599
3279.99628	0.05620
3278.71051	0.05623
3277.42474	0.05593
3276.13897	0.05541
3274.85320	0.05491
3273.56743	0.05471
3272.28166	0.05486
3270.99590	0.05518
3269.71013	0.05534
3268.42436	0.05515
3267.13859	0.05470
3265.85282	0.05420
3264.56705	0.05381
3263.28128	0.05366
3261.99551	0.05384
3260.70974	0.05433
3259.42398	0.05492
3258.13821	0.05530
3256.85244	0.05534
3255.56667	0.05510
3254.28090	0.05474
3252.99513	0.05436
3251.70936	0.05397
3250.42359	0.05354
3249.13783	0.05308
3247.85206	0.05273
3246.56629	0.05260
3245.28052	0.05262
3243.99475	0.05258
3242.70898	0.05233
3241.42321	0.05193
3240.13744	0.05156
3238.85167	0.05140
3237.56591	0.05144
3236.28014	0.05151
3234.99437	0.05150
3233.70860	0.05140
3232.42283	0.05133
3231.13706	0.05132
3229.85129	0.05131
3228.56552	0.05123
3227.27976	0.05111
3225.99399	0.05107
3224.70822	0.05113
3223.42245	0.05121
3222.13668	0.05119
3220.85091	0.05101
3219.56514	0.05065
3218.27937	0.05014
3216.99360	0.04955
3215.70784	0.04901
3214.42207	0.04871
3213.13630	0.04878
3211.85053	0.04916
3210.56476	0.04960
3209.27899	0.04988
3207.99322	0.04989
3206.70745	0.04972
3205.42169	0.04956
3204.13592	0.04952
3202.85015	0.04958
3201.56438	0.04964
3200.27861	0.04957
3198.99284	0.04940
3197.70707	0.04921
3196.42130	0.04901
3195.13553	0.04878
3193.84977	0.04848
3192.56400	0.04821
3191.27823	0.04809
3189.99246	0.04820
3188.70669	0.04848
3187.42092	0.04878
3186.13515	0.04890
3184.84938	0.04865
3183.56362	0.04806
3182.27785	0.04738
3180.99208	0.04687
3179.70631	0.04662
3178.42054	0.04646
3177.13477	0.04620
3175.84900	0.04581
3174.56323	0.04548
3173.27746	0.04541
3171.99170	0.04561
3170.70593	0.04586
3169.42016	0.04593
3168.13439	0.04580
3166.84862	0.04555
3165.56285	0.04519
3164.27708	0.04467
3162.99131	0.04418
3161.70555	0.04399
3160.41978	0.04419
3159.13401	0.04449
3157.84824	0.04458
3156.56247	0.04443
3155.27670	0.04423
3153.99093	0.04412
3152.70516	0.04403
3151.41939	0.04391
3150.13363	0.04376
3148.84786	0.04358
3147.56209	0.04332
3146.27632	0.04299
3144.99055	0.04269
3143.70478	0.04258
3142.41901	0.04263
3141.13324	0.04270
3139.84748	0.04270
3138.56171	0.04260
3137.27594	0.04240
3135.99017	0.04206
3134.70440	0.04158
3133.41863	0.04108
3132.13286	0.04077
3130.84709	0.04078
3129.56132	0.04105
3128.27556	0.04132
3126.98979	0.04134
3125.70402	0.04111
3124.41825	0.04082
3123.13248	0.04073
3121.84671	0.04092
3120.56094	0.04128
3119.27517	0.04153
3117.98940	0.04150
3116.70364	0.04121
3115.41787	0.04080
3114.13210	0.04040
3112.84633	0.04005
3111.56056	0.03978
3110.27479	0.03968
3108.98902	0.03978
3107.70325	0.04005
3106.41749	0.04034
3105.13172	0.04056
3103.84595	0.04073
3102.56018	0.04099
3101.27441	0.04136
3099.98864	0.04168
3098.70287	0.04172
3097.41710	0.04139
3096.13133	0.04089
3094.84557	0.04054
3093.55980	0.04056
3092.27403	0.04087
3090.98826	0.04130
3089.70249	0.04165
3088.41672	0.04188
3087.13095	0.04202
3085.84518	0.04209
3084.55942	0.04205
3083.27365	0.04181
3081.98788	0.04134
3080.70211	0.04075
3079.41634	0.04031
3078.13057	0.04022
3076.84480	0.04052
3075.55903	0.04100
3074.27326	0.04140
3072.98750	0.04154
3071.70173	0.04142
3070.41596	0.04121
3069.13019	0.04112
3067.84442	0.04129
3066.55865	0.04164
3065.27288	0.04194
3063.98711	0.04200
3062.70135	0.04176
3061.41558	0.04133
3060.12981	0.04095
3058.84404	0.04078
3057.55827	0.04086
3056.27250	0.04096
3054.98673	0.04089
3053.70096	0.04059
3052.41519	0.04024
3051.12943	0.03998
3049.84366	0.03988
3048.55789	0.03988
3047.27212	0.03986
3045.98635	0.03972
3044.70058	0.03944
3043.41481	0.03913
3042.12904	0.03891
3040.84328	0.03882
3039.55751	0.03886
3038.27174	0.03903
3036.98597	0.03927
3035.70020	0.03942
3034.41443	0.03933
3033.12866	0.03900
3031.84289	0.03855
3030.55712	0.03813
3029.27136	0.03777
3027.98559	0.03745
3026.69982	0.03715
3025.41405	0.03691
3024.12828	0.03684
3022.84251	0.03700
3021.55674	0.03731
3020.27097	0.03757
3018.98521	0.03765
3017.69944	0.03756
3016.41367	0.03739
3015.12790	0.03721
3013.84213	0.03705
3012.55636	0.03695
3011.27059	0.03687
3009.98482	0.03666
3008.69905	0.03624
3007.41329	0.03573
3006.12752	0.03537
3004.84175	0.03529
3003.55598	0.03543
3002.27021	0.03567
3000.98444	0.03596
2999.69867	0.03629
2998.41290	0.03658
2997.12714	0.03673
2995.84137	0.03676
2994.55560	0.03676
2993.26983	0.03679
2991.98406	0.03691
2990.69829	0.03707
2989.41252	0.03720
2988.12675	0.03722
2986.84098	0.03717
2985.55522	0.03709
2984.26945	0.03703
2982.98368	0.03704
2981.69791	0.03720
2980.41214	0.03750
2979.12637	0.03783
2977.84060	0.03806
2976.55483	0.03813
2975.26907	0.03817
2973.98330	0.03830
2972.69753	0.03852
2971.41176	0.03873
2970.12599	0.03886
2968.84022	0.03898
2967.55445	0.03913
2966.26868	0.03932
2964.98291	0.03956
2963.69715	0.03989
2962.41138	0.04027
2961.12561	0.04055
2959.83984	0.04058
2958.55407	0.04030
2957.26830	0.03984
2955.98253	0.03942
2954.69676	0.03926
2953.41100	0.03934
2952.12523	0.03952
2950.83946	0.03962
2949.55369	0.03957
2948.26792	0.03949
2946.98215	0.03951
2945.69638	0.03964
2944.41061	0.03979
2943.12484	0.03995
2941.83908	0.04021
2940.55331	0.04058
2939.26754	0.04095
2937.98177	0.04118
2936.69600	0.04131
2935.41023	0.04141
2934.12446	0.04144
2932.83869	0.04137
2931.55293	0.04123
2930.26716	0.04113
2928.98139	0.04111
2927.69562	0.04111
2926.40985	0.04103
2925.12408	0.04090
2923.83831	0.04079
2922.55254	0.04074
2921.26677	0.04068
2919.98101	0.04058
2918.69524	0.04050
2917.40947	0.04044
2916.12370	0.04028
2914.83793	0.03994
2913.55216	0.03949
2912.26639	0.03903
2910.98062	0.03864
2909.69486	0.03830
2908.40909	0.03801
2907.12332	0.03783
2905.83755	0.03777
2904.55178	0.03774
2903.26601	0.03754
2901.98024	0.03709
2900.69447	0.03652
2899.40870	0.03604
2898.12294	0.03577
2896.83717	0.03570
2895.55140	0.03574
2894.26563	0.03574
2892.97986	0.03564
2891.69409	0.03550
2890.40832	0.03540
2889.12255	0.03537
2887.83678	0.03536
2886.55102	0.03532
2885.26525	0.03526
2883.97948	0.03524
2882.69371	0.03536
2881.40794	0.03558
2880.12217	0.03573
2878.83640	0.03573
2877.55063	0.03565
2876.26487	0.03568
2874.97910	0.03585
2873.69333	0.03601
2872.40756	0.03602
2871.12179	0.03586
2869.83602	0.03558
2868.55025	0.03530
2867.26448	0.03507
2865.97871	0.03493
2864.69295	0.03485
2863.40718	0.03477
2862.12141	0.03466
2860.83564	0.03452
2859.54987	0.03439
2858.26410	0.03428
2856.97833	0.03412
2855.69256	0.03388
2854.40680	0.03363
2853.12103	0.03348
2851.83526	0.03350
2850.54949	0.03366
2849.26372	0.03382
2847.97795	0.03383
2846.69218	0.03364
2845.40641	0.03338
2844.12064	0.03313
2842.83488	0.03293
2841.54911	0.03270
2840.26334	0.03238
2838.97757	0.03196
2837.69180	0.03150
2836.40603	0.03108
2835.12026	0.03076
2833.83449	0.03059
2832.54873	0.03058
2831.26296	0.03065
2829.97719	0.03070
2828.69142	0.03059
2827.40565	0.03031
2826.11988	0.03000
2824.83411	0.02987
2823.54834	0.02993
2822.26257	0.03002
2820.97681	0.03001
2819.69104	0.02991
2818.40527	0.02986
2817.11950	0.02988
2815.83373	0.02991
2814.54796	0.02987
2813.26219	0.02977
2811.97642	0.02958
2810.69066	0.02933
2809.40489	0.02911
2808.11912	0.02903
2806.83335	0.02907
2805.54758	0.02914
2804.26181	0.02914
2802.97604	0.02905
2801.69027	0.02893
2800.40450	0.02883
2799.11874	0.02879
2797.83297	0.02884
2796.54720	0.02898
2795.26143	0.02912
2793.97566	0.02917
2792.68989	0.02911
2791.40412	0.02904
2790.11835	0.02898
2788.83259	0.02893
2787.54682	0.02889
2786.26105	0.02885
2784.97528	0.02880
2783.68951	0.02872
2782.40374	0.02859
2781.11797	0.02842
2779.83220	0.02817
2778.54643	0.02784
2777.26067	0.02754
2775.97490	0.02742
2774.68913	0.02750
2773.40336	0.02768
2772.11759	0.02781
2770.83182	0.02783
2769.54605	0.02773
2768.26028	0.02755
2766.97452	0.02739
2765.68875	0.02732
2764.40298	0.02736
2763.11721	0.02742
2761.83144	0.02740
2760.54567	0.02726
2759.25990	0.02705
2757.97413	0.02685
2756.68836	0.02677
2755.40260	0.02681
2754.11683	0.02694
2752.83106	0.02707
2751.54529	0.02713
2750.25952	0.02711
2748.97375	0.02704
2747.68798	0.02697
2746.40221	0.02693
2745.11645	0.02689
2743.83068	0.02679
2742.54491	0.02663
2741.25914	0.02647
2739.97337	0.02635
2738.68760	0.02626
2737.40183	0.02615
2736.11606	0.02601
2734.83029	0.02588
2733.54453	0.02580
2732.25876	0.02576
2730.97299	0.02568
2729.68722	0.02551
2728.40145	0.02530
2727.11568	0.02520
2725.82991	0.02535
2724.54414	0.02567
2723.25838	0.02599
2721.97261	0.02616
2720.68684	0.02614
2719.40107	0.02596
2718.11530	0.02564
2716.82953	0.02527
2715.54376	0.02499
2714.25799	0.02488
2712.97222	0.02489
2711.68646	0.02491
2710.40069	0.02487
2709.11492	0.02479
2707.82915	0.02473
2706.54338	0.02470
2705.25761	0.02469
2703.97184	0.02465
2702.68607	0.02460
2701.40031	0.02462
2700.11454	0.02477
2698.82877	0.02497
2697.54300	0.02507
2696.25723	0.02504
2694.97146	0.02494
2693.68569	0.02475
2692.39992	0.02445
2691.11415	0.02405
2689.82839	0.02376
2688.54262	0.02374
2687.25685	0.02393
2685.97108	0.02410
2684.68531	0.02409
2683.39954	0.02394
2682.11377	0.02375
2680.82800	0.02361
2679.54224	0.02354
2678.25647	0.02359
2676.97070	0.02371
2675.68493	0.02378
2674.39916	0.02371
2673.11339	0.02357
2671.82762	0.02345
2670.54185	0.02339
2669.25608	0.02338
2667.97032	0.02343
2666.68455	0.02353
2665.39878	0.02361
2664.11301	0.02359
2662.82724	0.02352
2661.54147	0.02349
2660.25570	0.02353
2658.96993	0.02362
2657.68417	0.02367
2656.39840	0.02365
2655.11263	0.02356
2653.82686	0.02343
2652.54109	0.02329
2651.25532	0.02309
2649.96955	0.02284
2648.68378	0.02259
2647.39801	0.02245
2646.11225	0.02246
2644.82648	0.02256
2643.54071	0.02270
2642.25494	0.02286
2640.96917	0.02300
2639.68340	0.02307
2638.39763	0.02297
2637.11186	0.02263
2635.82609	0.02210
2634.54033	0.02160
2633.25456	0.02134
2631.96879	0.02141
2630.68302	0.02163
2629.39725	0.02177
2628.11148	0.02171
2626.82571	0.02157
2625.53994	0.02149
2624.25418	0.02149
2622.96841	0.02148
2621.68264	0.02143
2620.39687	0.02139
2619.11110	0.02143
2617.82533	0.02151
2616.53956	0.02153
2615.25379	0.02142
2613.96802	0.02118
2612.68226	0.02086
2611.39649	0.02057
2610.11072	0.02040
2608.82495	0.02035
2607.53918	0.02033
2606.25341	0.02030
2604.96764	0.02021
2603.68187	0.02007
2602.39611	0.01985
2601.11034	0.01956
2599.82457	0.01931
2598.53880	0.01929
2597.25303	0.01961
2595.96726	0.02005
2594.68149	0.02027
2593.39572	0.02001
2592.10995	0.01935
2590.82419	0.01861
2589.53842	0.01816
2588.25265	0.01817
2586.96688	0.01852
2585.68111	0.01894
2584.39534	0.01922
2583.10957	0.01928
2581.82380	0.01913
2580.53804	0.01884
2579.25227	0.01846
2577.96650	0.01812
2576.68073	0.01794
2575.39496	0.01797
2574.10919	0.01809
2572.82342	0.01815
2571.53765	0.01806
2570.25188	0.01787
2568.96612	0.01767
2567.68035	0.01756
2566.39458	0.01762
2565.10881	0.01776
2563.82304	0.01783
2562.53727	0.01775
2561.25150	0.01765
2559.96573	0.01768
2558.67997	0.01779
2557.39420	0.01782
2556.10843	0.01772
2554.82266	0.01762
2553.53689	0.01763
2552.25112	0.01772
2550.96535	0.01785
2549.67958	0.01803
2548.39381	0.01834
2547.10805	0.01869
2545.82228	0.01887
2544.53651	0.01877
2543.25074	0.01851
2541.96497	0.01833
2540.67920	0.01830
2539.39343	0.01836
2538.10766	0.01839
2536.82190	0.01828
2535.53613	0.01799
2534.25036	0.01758
2532.96459	0.01723
2531.67882	0.01705
2530.39305	0.01704
2529.10728	0.01705
2527.82151	0.01707
2526.53574	0.01719
2525.24998	0.01754
2523.96421	0.01806
2522.67844	0.01847
2521.39267	0.01851
2520.10690	0.01813
2518.82113	0.01746
2517.53536	0.01682
2516.24959	0.01650
2514.96383	0.01657
2513.67806	0.01681
2512.39229	0.01695
2511.10652	0.01693
2509.82075	0.01686
2508.53498	0.01687
2507.24921	0.01701
2505.96344	0.01719
2504.67767	0.01729
2503.39191	0.01727
2502.10614	0.01723
2500.82037	0.01727
2499.53460	0.01734
2498.24883	0.01736
2496.96306	0.01725
2495.67729	0.01702
2494.39152	0.01673
2493.10576	0.01656
2491.81999	0.01666
2490.53422	0.01706
2489.24845	0.01757
2487.96268	0.01786
2486.67691	0.01776
2485.39114	0.01734
2484.10537	0.01678
2482.81960	0.01624
2481.53384	0.01594
2480.24807	0.01610
2478.96230	0.01668
2477.67653	0.01735
2476.39076	0.01769
2475.10499	0.01759
2473.81922	0.01728
2472.53345	0.01698
2471.24769	0.01676
2469.96192	0.01656
2468.67615	0.01642
2467.39038	0.01640
2466.10461	0.01654
2464.81884	0.01676
2463.53307	0.01692
2462.24730	0.01696
2460.96153	0.01693
2459.67577	0.01693
2458.39000	0.01695
2457.10423	0.01693
2455.81846	0.01682
2454.53269	0.01667
2453.24692	0.01651
2451.96115	0.01637
2450.67538	0.01624
2449.38962	0.01615
2448.10385	0.01610
2446.81808	0.01601
2445.53231	0.01580
2444.24654	0.01548
2442.96077	0.01513
2441.67500	0.01491
2440.38923	0.01490
2439.10346	0.01512
2437.81770	0.01549
2436.53193	0.01586
2435.24616	0.01611
2433.96039	0.01615
2432.67462	0.01608
2431.38885	0.01607
2430.10308	0.01612
2428.81731	0.01612
2427.53155	0.01605
2426.24578	0.01611
2424.96001	0.01641
2423.67424	0.01676
2422.38847	0.01684
2421.10270	0.01660
2419.81693	0.01631
2418.53116	0.01622
2417.24539	0.01630
2415.95963	0.01643
2414.67386	0.01653
2413.38809	0.01663
2412.10232	0.01671
2410.81655	0.01668
2409.53078	0.01648
2408.24501	0.01618
2406.95924	0.01589
2405.67347	0.01570
2404.38771	0.01561
2403.10194	0.01558
2401.81617	0.01565
2400.53040	0.01578
2399.24463	0.01584
2397.95886	0.01587
2396.67309	0.01593
2395.38732	0.01612
2394.10156	0.01640
2392.81579	0.01663
2391.53002	0.01668
2390.24425	0.01656
2388.95848	0.01638
2387.67271	0.01618
2386.38694	0.01594
2385.10117	0.01569
2383.81540	0.01557
2382.52964	0.01574
2381.24387	0.01614
2379.95810	0.01659
2378.67233	0.01669
2377.38656	0.01652
2376.10079	0.01646
2374.81502	0.01654
2373.52925	0.01615
2372.24349	0.01564
2370.95772	0.01547
2369.67195	0.01534
2368.38618	0.01523
2367.10041	0.01533
2365.81464	0.01562
2364.52887	0.01595
2363.24310	0.01614
2361.95733	0.01621
2360.67157	0.01626
2359.38580	0.01628
2358.10003	0.01613
2356.81426	0.01596
2355.52849	0.01618
2354.24272	0.01695
2352.95695	0.01782
2351.67118	0.01773
2350.38542	0.01715
2349.09965	0.01681
2347.81388	0.01656
2346.52811	0.01629
2345.24234	0.01633
2343.95657	0.01676
2342.67080	0.01767
2341.38503	0.01741
2340.09926	0.01666
2338.81350	0.01659
2337.52773	0.01685
2336.24196	0.01633
2334.95619	0.01609
2333.67042	0.01643
2332.38465	0.01713
2331.09888	0.01648
2329.81311	0.01670
2328.52735	0.01732
2327.24158	0.01740
2325.95581	0.01773
2324.67004	0.01802
2323.38427	0.01853
2322.09850	0.01833
2320.81273	0.01782
2319.52696	0.01738
2318.24119	0.01707
2316.95543	0.01670
2315.66966	0.01646
2314.38389	0.01645
2313.09812	0.01635
2311.81235	0.01615
2310.52658	0.01600
2309.24081	0.01586
2307.95504	0.01572
2306.66928	0.01570
2305.38351	0.01580
2304.09774	0.01600
2302.81197	0.01622
2301.52620	0.01634
2300.24043	0.01629
2298.95466	0.01607
2297.66889	0.01576
2296.38312	0.01555
2295.09736	0.01562
2293.81159	0.01595
2292.52582	0.01625
2291.24005	0.01621
2289.95428	0.01572
2288.66851	0.01505
2287.38274	0.01458
2286.09697	0.01457
2284.81121	0.01492
2283.52544	0.01532
2282.23967	0.01559
2280.95390	0.01575
2279.66813	0.01591
2278.38236	0.01609
2277.09659	0.01614
2275.81082	0.01584
2274.52505	0.01516
2273.23929	0.01436
2271.95352	0.01387
2270.66775	0.01393
2269.38198	0.01438
2268.09621	0.01482
2266.81044	0.01496
2265.52467	0.01473
2264.23890	0.01418
2262.95314	0.01337
2261.66737	0.01250
2260.38160	0.01192
2259.09583	0.01184
2257.81006	0.01219
2256.52429	0.01261
2255.23852	0.01269
2253.95275	0.01222
2252.66698	0.01138
2251.38122	0.01066
2250.09545	0.01049
2248.80968	0.01090
2247.52391	0.01134
2246.23814	0.01163
2244.95237	0.01165
2243.66660	0.01146
2242.38083	0.01128
2241.09507	0.01142
2239.80930	0.01190
2238.52353	0.01244
2237.23776	0.01272
2235.95199	0.01272
2234.66622	0.01261
2233.38045	0.01242
2232.09468	0.01195
2230.80891	0.01114
2229.52315	0.01025
2228.23738	0.00969
2226.95161	0.00972
2225.66584	0.01028
2224.38007	0.01112
2223.09430	0.01194
2221.80853	0.01249
2220.52276	0.01268
2219.23700	0.01264
2217.95123	0.01256
2216.66546	0.01246
2215.37969	0.01212
2214.09392	0.01139
2212.80815	0.01043
2211.52238	0.00957
2210.23661	0.00896
2208.95084	0.00866
2207.66508	0.00869
2206.37931	0.00902
2205.09354	0.00939
2203.80777	0.00948
2202.52200	0.00917
2201.23623	0.00857
2199.95046	0.00785
2198.66469	0.00710
2197.37893	0.00658
2196.09316	0.00660
2194.80739	0.00719
2193.52162	0.00807
2192.23585	0.00888
2190.95008	0.00936
2189.66431	0.00934
2188.37854	0.00882
2187.09277	0.00825
2185.80701	0.00823
2184.52124	0.00881
2183.23547	0.00937
2181.94970	0.00940
2180.66393	0.00892
2179.37816	0.00823
2178.09239	0.00748
2176.80662	0.00667
2175.52085	0.00601
2174.23509	0.00587
2172.94932	0.00646
2171.66355	0.00760
2170.37778	0.00875
2169.09201	0.00940
2167.80624	0.00941
2166.52047	0.00904
2165.23470	0.00851
2163.94894	0.00778
2162.66317	0.00677
2161.37740	0.00558
2160.09163	0.00444
2158.80586	0.00354
2157.52009	0.00299
2156.23432	0.00284
2154.94855	0.00310
2153.66278	0.00373
2152.37702	0.00479
2151.09125	0.00634
2149.80548	0.00823
2148.51971	0.00972
2147.23394	0.00993
2145.94817	0.00866
2144.66240	0.00680
2143.37663	0.00552
2142.09087	0.00527
2140.80510	0.00570
2139.51933	0.00638
2138.23356	0.00714
2136.94779	0.00780
2135.66202	0.00812
2134.37625	0.00809
2133.09048	0.00797
2131.80471	0.00798
2130.51895	0.00819
2129.23318	0.00857
2127.94741	0.00901
2126.66164	0.00938
2125.37587	0.00956
2124.09010	0.00951
2122.80433	0.00928
2121.51856	0.00901
2120.23280	0.00885
2118.94703	0.00878
2117.66126	0.00873
2116.37549	0.00873
2115.08972	0.00893
2113.80395	0.00929
2112.51818	0.00956
2111.23241	0.00951
2109.94664	0.00922
2108.66088	0.00893
2107.37511	0.00879
2106.08934	0.00886
2104.80357	0.00909
2103.51780	0.00933
2102.23203	0.00943
2100.94626	0.00924
2099.66049	0.00849
2098.37473	0.00759
2097.08896	0.00684
2095.80319	0.00654
2094.51742	0.00675
2093.23165	0.00721
2091.94588	0.00764
2090.66011	0.00793
2089.37434	0.00818
2088.08857	0.00842
2086.80281	0.00852
2085.51704	0.00833
2084.23127	0.00783
2082.94550	0.00726
2081.65973	0.00697
2080.37396	0.00717
2079.08819	0.00780
2077.80242	0.00849
2076.51666	0.00880
2075.23089	0.00854
2073.94512	0.00786
2072.65935	0.00714
2071.37358	0.00668
2070.08781	0.00661
2068.80204	0.00694
2067.51627	0.00751
2066.23050	0.00804
2064.94474	0.00821
2063.65897	0.00793
2062.37320	0.00742
2061.08743	0.00699
2059.80166	0.00674
2058.51589	0.00648
2057.23012	0.00597
2055.94435	0.00545
2054.65859	0.00547
2053.37282	0.00632
2052.08705	0.00750
2050.80128	0.00816
2049.51551	0.00783
2048.22974	0.00685
2046.94397	0.00595
2045.65820	0.00556
2044.37243	0.00558
2043.08667	0.00551
2041.80090	0.00480
2040.51513	0.00338
2039.22936	0.00172
2037.94359	0.00062
2036.65782	0.00064
2035.37205	0.00177
2034.08628	0.00346
2032.80052	0.00487
2031.51475	0.00530
2030.22898	0.00465
2028.94321	0.00344
2027.65744	0.00236
2026.37167	0.00174
2025.08590	0.00151
2023.80013	0.00159
2022.51436	0.00210
2021.22860	0.00301
2019.94283	0.00391
2018.65706	0.00432
2017.37129	0.00409
2016.08552	0.00361
2014.79975	0.00334
2013.51398	0.00347
2012.22821	0.00391
2010.94245	0.00444
2009.65668	0.00478
2008.37091	0.00476
2007.08514	0.00440
2005.79937	0.00400
2004.51360	0.00398
2003.22783	0.00461
2001.94206	0.00572
2000.65629	0.00676
1999.37053	0.00721
1998.08476	0.00702
1996.79899	0.00667
1995.51322	0.00670
1994.22745	0.00719
1992.94168	0.00774
1991.65591	0.00796
1990.37014	0.00784
1989.08438	0.00759
1987.79861	0.00738
1986.51284	0.00710
1985.22707	0.00661
1983.94130	0.00597
1982.65553	0.00549
1981.36976	0.00547
1980.08399	0.00594
1978.79822	0.00651
1977.51246	0.00671
1976.22669	0.00637
1974.94092	0.00569
1973.65515	0.00494
1972.36938	0.00435
1971.08361	0.00415
1969.79784	0.00436
1968.51207	0.00470
1967.22631	0.00472
1965.94054	0.00437
1964.65477	0.00405
1963.36900	0.00415
1962.08323	0.00467
1960.79746	0.00528
1959.51169	0.00582
1958.22592	0.00639
1956.94015	0.00706
1955.65439	0.00770
1954.36862	0.00815
1953.08285	0.00836
1951.79708	0.00836
1950.51131	0.00813
1949.22554	0.00767
1947.93977	0.00713
1946.65400	0.00675
1945.36823	0.00664
1944.08247	0.00671
1942.79670	0.00683
1941.51093	0.00691
1940.22516	0.00687
1938.93939	0.00671
1937.65362	0.00653
1936.36785	0.00644
1935.08208	0.00642
1933.79632	0.00641
1932.51055	0.00641
1931.22478	0.00652
1929.93901	0.00673
1928.65324	0.00694
1927.36747	0.00702
1926.08170	0.00695
1924.79593	0.00677
1923.51016	0.00660
1922.22440	0.00651
1920.93863	0.00656
1919.65286	0.00681
1918.36709	0.00730
1917.08132	0.00800
1915.79555	0.00867
1914.50978	0.00912
1913.22401	0.00930
1911.93825	0.00926
1910.65248	0.00907
1909.36671	0.00881
1908.08094	0.00862
1906.79517	0.00856
1905.50940	0.00856
1904.22363	0.00851
1902.93786	0.00839
1901.65209	0.00827
1900.36633	0.00817
1899.08056	0.00807
1897.79479	0.00797
1896.50902	0.00790
1895.22325	0.00790
1893.93748	0.00800
1892.65171	0.00821
1891.36594	0.00849
1890.08018	0.00876
1888.79441	0.00892
1887.50864	0.00894
1886.22287	0.00890
1884.93710	0.00893
1883.65133	0.00905
1882.36556	0.00916
1881.07979	0.00912
1879.79402	0.00894
1878.50826	0.00879
1877.22249	0.00883
1875.93672	0.00904
1874.65095	0.00928
1873.36518	0.00942
1872.07941	0.00941
1870.79364	0.00927
1869.50787	0.00904
1868.22211	0.00878
1866.93634	0.00858
1865.65057	0.00854
1864.36480	0.00869
1863.07903	0.00893
1861.79326	0.00912
1860.50749	0.00918
1859.22172	0.00915
1857.93595	0.00913
1856.65019	0.00913
1855.36442	0.00915
1854.07865	0.00916
1852.79288	0.00914
1851.50711	0.00912
1850.22134	0.00915
1848.93557	0.00929
1847.64980	0.00948
1846.36404	0.00956
1845.07827	0.00942
1843.79250	0.00915
1842.50673	0.00893
1841.22096	0.00884
1839.93519	0.00886
1838.64942	0.00896
1837.36365	0.00909
1836.07788	0.00919
1834.79212	0.00921
1833.50635	0.00918
1832.22058	0.00915
1830.93481	0.00915
1829.64904	0.00915
1828.36327	0.00914
1827.07750	0.00909
1825.79173	0.00903
1824.50597	0.00900
1823.22020	0.00899
1821.93443	0.00897
1820.64866	0.00893
1819.36289	0.00887
1818.07712	0.00882
1816.79135	0.00885
1815.50558	0.00900
1814.21981	0.00922
1812.93405	0.00941
1811.64828	0.00950
1810.36251	0.00953
1809.07674	0.00956
1807.79097	0.00965
1806.50520	0.00977
1805.21943	0.00986
1803.93366	0.00988
1802.64790	0.00978
1801.36213	0.00965
1800.07636	0.00954
1798.79059	0.00952
1797.50482	0.00958
1796.21905	0.00970
1794.93328	0.00980
1793.64751	0.00981
1792.36174	0.00974
1791.07598	0.00966
1789.79021	0.00967
1788.50444	0.00977
1787.21867	0.00993
1785.93290	0.01005
1784.64713	0.01007
1783.36136	0.00997
1782.07559	0.00983
1780.78983	0.00974
1779.50406	0.00975
1778.21829	0.00983
1776.93252	0.00990
1775.64675	0.00992
1774.36098	0.00988
1773.07521	0.00985
1771.78944	0.00990
1770.50367	0.00999
1769.21791	0.00999
1767.93214	0.00991
1766.64637	0.00985
1765.36060	0.00988
1764.07483	0.00998
1762.78906	0.01012
1761.50329	0.01028
1760.21752	0.01045
1758.93176	0.01057
1757.64599	0.01066
1756.36022	0.01073
1755.07445	0.01076
1753.78868	0.01071
1752.50291	0.01059
1751.21714	0.01054
1749.93137	0.01061
1748.64560	0.01075
1747.35984	0.01090
1746.07407	0.01103
1744.78830	0.01113
1743.50253	0.01119
1742.21676	0.01123
1740.93099	0.01128
1739.64522	0.01143
1738.35945	0.01169
1737.07369	0.01192
1735.78792	0.01199
1734.50215	0.01195
1733.21638	0.01196
1731.93061	0.01204
1730.64484	0.01210
1729.35907	0.01214
1728.07330	0.01225
1726.78753	0.01247
1725.50177	0.01272
1724.21600	0.01293
1722.93023	0.01310
1721.64446	0.01325
1720.35869	0.01338
1719.07292	0.01347
1717.78715	0.01360
1716.50138	0.01384
1715.21561	0.01420
1713.92985	0.01462
1712.64408	0.01504
1711.35831	0.01546
1710.07254	0.01592
1708.78677	0.01642
1707.50100	0.01700
1706.21523	0.01764
1704.92946	0.01834
1703.64370	0.01907
1702.35793	0.01975
1701.07216	0.02048
1699.78639	0.02142
1698.50062	0.02252
1697.21485	0.02358
1695.92908	0.02458
1694.64331	0.02564
1693.35754	0.02672
1692.07178	0.02769
1690.78601	0.02860
1689.50024	0.02953
1688.21447	0.03050
1686.92870	0.03143
1685.64293	0.03230
1684.35716	0.03328
1683.07139	0.03443
1681.78563	0.03563
1680.49986	0.03678
1679.21409	0.03790
1677.92832	0.03901
1676.64255	0.04008
1675.35678	0.04117
1674.07101	0.04233
1672.78524	0.04348
1671.49947	0.04457
1670.21371	0.04561
1668.92794	0.04666
1667.64217	0.04775
1666.35640	0.04883
1665.07063	0.04986
1663.78486	0.05087
1662.49909	0.05191
1661.21332	0.05295
1659.92756	0.05393
1658.64179	0.05482
1657.35602	0.05562
1656.07025	0.05629
1654.78448	0.05680
1653.49871	0.05728
1652.21294	0.05791
1650.92717	0.05861
1649.64140	0.05913
1648.35564	0.05936
1647.06987	0.05947
1645.78410	0.05960
1644.49833	0.05977
1643.21256	0.05994
1641.92679	0.06008
1640.64102	0.06020
1639.35525	0.06027
1638.06949	0.06020
1636.78372	0.05994
1635.49795	0.05963
1634.21218	0.05933
1632.92641	0.05902
1631.64064	0.05859
1630.35487	0.05803
1629.06910	0.05735
1627.78333	0.05657
1626.49757	0.05569
1625.21180	0.05471
1623.92603	0.05367
1622.64026	0.05263
1621.35449	0.05162
1620.06872	0.05056
1618.78295	0.04938
1617.49718	0.04813
1616.21142	0.04692
1614.92565	0.04579
1613.63988	0.04471
1612.35411	0.04365
1611.06834	0.04263
1609.78257	0.04166
1608.49680	0.04072
1607.21103	0.03981
1605.92526	0.03895
1604.63950	0.03814
1603.35373	0.03741
1602.06796	0.03675
1600.78219	0.03619
1599.49642	0.03570
1598.21065	0.03527
1596.92488	0.03487
1595.63911	0.03449
1594.35335	0.03415
1593.06758	0.03385
1591.78181	0.03361
1590.49604	0.03344
1589.21027	0.03334
1587.92450	0.03333
1586.63873	0.03338
1585.35296	0.03345
1584.06719	0.03352
1582.78143	0.03361
1581.49566	0.03376
1580.20989	0.03400
1578.92412	0.03427
1577.63835	0.03453
1576.35258	0.03484
1575.06681	0.03528
1573.78104	0.03577
1572.49528	0.03619
1571.20951	0.03654
1569.92374	0.03691
1568.63797	0.03738
1567.35220	0.03792
1566.06643	0.03847
1564.78066	0.03907
1563.49489	0.03970
1562.20912	0.04026
1560.92336	0.04072
1559.63759	0.04115
1558.35182	0.04173
1557.06605	0.04241
1555.78028	0.04304
1554.49451	0.04355
1553.20874	0.04403
1551.92297	0.04448
1550.63721	0.04486
1549.35144	0.04519
1548.06567	0.04550
1546.77990	0.04579
1545.49413	0.04610
1544.20836	0.04643
1542.92259	0.04672
1541.63682	0.04687
1540.35105	0.04689
1539.06529	0.04690
1537.77952	0.04693
1536.49375	0.04690
1535.20798	0.04676
1533.92221	0.04659
1532.63644	0.04647
1531.35067	0.04636
1530.06490	0.04621
1528.77914	0.04600
1527.49337	0.04579
1526.20760	0.04562
1524.92183	0.04548
1523.63606	0.04529
1522.35029	0.04502
1521.06452	0.04475
1519.77875	0.04448
1518.49298	0.04415
1517.20722	0.04372
1515.92145	0.04325
1514.63568	0.04281
1513.34991	0.04236
1512.06414	0.04190
1510.77837	0.04139
1509.49260	0.04074
1508.20683	0.03995
1506.92107	0.03912
1505.63530	0.03843
1504.34953	0.03785
1503.06376	0.03723
1501.77799	0.03651
1500.49222	0.03576
1499.20645	0.03502
1497.92068	0.03429
1496.63491	0.03357
1495.34915	0.03290
1494.06338	0.03226
1492.77761	0.03162
1491.49184	0.03097
1490.20607	0.03038
1488.92030	0.02986
1487.63453	0.02939
1486.34876	0.02898
1485.06299	0.02862
1483.77723	0.02834
1482.49146	0.02815
1481.20569	0.02809
1479.91992	0.02814
1478.63415	0.02826
1477.34838	0.02841
1476.06261	0.02859
1474.77684	0.02877
1473.49108	0.02896
1472.20531	0.02924
1470.91954	0.02962
1469.63377	0.03005
1468.34800	0.03045
1467.06223	0.03077
1465.77646	0.03104
1464.49069	0.03133
1463.20492	0.03168
1461.91916	0.03204
1460.63339	0.03234
1459.34762	0.03257
1458.06185	0.03276
1456.77608	0.03302
1455.49031	0.03335
1454.20454	0.03357
1452.91877	0.03357
1451.63301	0.03338
1450.34724	0.03314
1449.06147	0.03294
1447.77570	0.03281
1446.48993	0.03272
1445.20416	0.03260
1443.91839	0.03244
1442.63262	0.03227
1441.34685	0.03215
1440.06109	0.03206
1438.77532	0.03198
1437.48955	0.03191
1436.20378	0.03190
1434.91801	0.03193
1433.63224	0.03191
1432.34647	0.03179
1431.06070	0.03161
1429.77494	0.03146
1428.48917	0.03135
1427.20340	0.03131
1425.91763	0.03133
1424.63186	0.03143
1423.34609	0.03156
1422.06032	0.03161
1420.77455	0.03153
1419.48878	0.03138
1418.20302	0.03125
1416.91725	0.03113
1415.63148	0.03098
1414.34571	0.03082
1413.05994	0.03070
1411.77417	0.03065
1410.48840	0.03066
1409.20263	0.03066
1407.91687	0.03061
1406.63110	0.03049
1405.34533	0.03035
1404.05956	0.03022
1402.77379	0.03009
1401.48802	0.02993
1400.20225	0.02977
1398.91648	0.02964
1397.63071	0.02953
1396.34495	0.02941
1395.05918	0.02926
1393.77341	0.02910
1392.48764	0.02893
1391.20187	0.02872
1389.91610	0.02848
1388.63033	0.02822
1387.34456	0.02798
1386.05880	0.02776
1384.77303	0.02756
1383.48726	0.02739
1382.20149	0.02724
1380.91572	0.02708
1379.62995	0.02689
1378.34418	0.02667
1377.05841	0.02644
1375.77264	0.02617
1374.48688	0.02586
1373.20111	0.02552
1371.91534	0.02521
1370.62957	0.02494
1369.34380	0.02471
1368.05803	0.02448
1366.77226	0.02424
1365.48649	0.02399
1364.20073	0.02375
1362.91496	0.02354
1361.62919	0.02334
1360.34342	0.02315
1359.05765	0.02296
1357.77188	0.02280
1356.48611	0.02270
1355.20034	0.02268
1353.91457	0.02273
1352.62881	0.02282
1351.34304	0.02292
1350.05727	0.02301
1348.77150	0.02308
1347.48573	0.02314
1346.19996	0.02321
1344.91419	0.02332
1343.62842	0.02346
1342.34266	0.02359
1341.05689	0.02369
1339.77112	0.02376
1338.48535	0.02380
1337.19958	0.02381
1335.91381	0.02378
1334.62804	0.02370
1333.34227	0.02358
1332.05650	0.02346
1330.77074	0.02335
1329.48497	0.02326
1328.19920	0.02317
1326.91343	0.02313
1325.62766	0.02312
1324.34189	0.02313
1323.05612	0.02313
1321.77035	0.02311
1320.48459	0.02308
1319.19882	0.02307
1317.91305	0.02309
1316.62728	0.02311
1315.34151	0.02309
1314.05574	0.02301
1312.76997	0.02289
1311.48420	0.02279
1310.19843	0.02271
1308.91267	0.02267
1307.62690	0.02267
1306.34113	0.02269
1305.05536	0.02271
1303.76959	0.02271
1302.48382	0.02271
1301.19805	0.02271
1299.91228	0.02270
1298.62652	0.02266
1297.34075	0.02259
1296.05498	0.02251
1294.76921	0.02247
1293.48344	0.02249
1292.19767	0.02257
1290.91190	0.02269
1289.62613	0.02282
1288.34036	0.02294
1287.05460	0.02306
1285.76883	0.02317
1284.48306	0.02329
1283.19729	0.02342
1281.91152	0.02354
1280.62575	0.02363
1279.33998	0.02370
1278.05421	0.02374
1276.76845	0.02378
1275.48268	0.02383
1274.19691	0.02389
1272.91114	0.02394
1271.62537	0.02399
1270.33960	0.02406
1269.05383	0.02420
1267.76806	0.02440
1266.48229	0.02464
1265.19653	0.02486
1263.91076	0.02503
1262.62499	0.02514
1261.33922	0.02526
1260.05345	0.02540
1258.76768	0.02559
1257.48191	0.02580
1256.19614	0.02601
1254.91037	0.02620
1253.62461	0.02638
1252.33884	0.02657
1251.05307	0.02676
1249.76730	0.02694
1248.48153	0.02713
1247.19576	0.02735
1245.90999	0.02758
1244.62422	0.02781
1243.33846	0.02800
1242.05269	0.02816
1240.76692	0.02828
1239.48115	0.02840
1238.19538	0.02853
1236.90961	0.02866
1235.62384	0.02876
1234.33807	0.02877
1233.05230	0.02867
1231.76654	0.02848
1230.48077	0.02825
1229.19500	0.02805
1227.90923	0.02787
1226.62346	0.02770
1225.33769	0.02753
1224.05192	0.02735
1222.76615	0.02714
1221.48039	0.02689
1220.19462	0.02661
1218.90885	0.02636
1217.62308	0.02616
1216.33731	0.02601
1215.05154	0.02588
1213.76577	0.02572
1212.48000	0.02555
1211.19423	0.02540
1209.90847	0.02534
1208.62270	0.02534
1207.33693	0.02538
1206.05116	0.02541
1204.76539	0.02539
1203.47962	0.02534
1202.19385	0.02526
1200.90808	0.02516
1199.62232	0.02501
1198.33655	0.02477
1197.05078	0.02455
1195.76501	0.02441
1194.47924	0.02435
1193.19347	0.02433
1191.90770	0.02431
1190.62193	0.02426
1189.33616	0.02422
1188.05040	0.02419
1186.76463	0.02415
1185.47886	0.02410
1184.19309	0.02406
1182.90732	0.02406
1181.62155	0.02410
1180.33578	0.02417
1179.05001	0.02428
1177.76425	0.02441
1176.47848	0.02456
1175.19271	0.02471
1173.90694	0.02486
1172.62117	0.02504
1171.33540	0.02524
1170.04963	0.02548
1168.76386	0.02574
1167.47809	0.02603
1166.19233	0.02632
1164.90656	0.02660
1163.62079	0.02688
1162.33502	0.02714
1161.04925	0.02739
1159.76348	0.02759
1158.47771	0.02777
1157.19194	0.02795
1155.90618	0.02817
1154.62041	0.02842
1153.33464	0.02863
1152.04887	0.02879
1150.76310	0.02891
1149.47733	0.02905
1148.19156	0.02922
1146.90579	0.02941
1145.62002	0.02957
1144.33426	0.02968
1143.04849	0.02975
1141.76272	0.02981
1140.47695	0.02993
1139.19118	0.03015
1137.90541	0.03050
1136.61964	0.03091
1135.33387	0.03131
1134.04811	0.03172
1132.76234	0.03223
1131.47657	0.03290
1130.19080	0.03374
1128.90503	0.03467
1127.61926	0.03565
1126.33349	0.03672
1125.04772	0.03791
1123.76195	0.03923
1122.47619	0.04061
1121.19042	0.04201
1119.90465	0.04342
1118.61888	0.04492
1117.33311	0.04649
1116.04734	0.04808
1114.76157	0.04962
1113.47580	0.05115
1112.19004	0.05274
1110.90427	0.05441
1109.61850	0.05605
1108.33273	0.05756
1107.04696	0.05892
1105.76119	0.06021
1104.47542	0.06149
1103.18965	0.06273
1101.90388	0.06389
1100.61812	0.06490
1099.33235	0.06574
1098.04658	0.06645
1096.76081	0.06706
1095.47504	0.06760
1094.18927	0.06804
1092.90350	0.06832
1091.61773	0.06836
1090.33197	0.06812
1089.04620	0.06770
1087.76043	0.06731
1086.47466	0.06718
1085.18889	0.06743
1083.90312	0.06806
1082.61735	0.06898
1081.33158	0.07006
1080.04581	0.07125
1078.76005	0.07253
1077.47428	0.07389
1076.18851	0.07525
1074.90274	0.07650
1073.61697	0.07758
1072.33120	0.07853
1071.04543	0.07946
1069.75966	0.08044
1068.47390	0.08148
1067.18813	0.08252
1065.90236	0.08350
1064.61659	0.08439
1063.33082	0.08526
1062.04505	0.08617
1060.75928	0.08718
1059.47351	0.08827
1058.18774	0.08938
1056.90198	0.09046
1055.61621	0.09152
1054.33044	0.09262
1053.04467	0.09377
1051.75890	0.09494
1050.47313	0.09607
1049.18736	0.09719
1047.90159	0.09840
1046.61583	0.09976
1045.33006	0.10126
1044.04429	0.10282
1042.75852	0.10439
1041.47275	0.10598
1040.18698	0.10763
1038.90121	0.10933
1037.61544	0.11106
1036.32967	0.11280
1035.04391	0.11453
1033.75814	0.11621
1032.47237	0.11777
1031.18660	0.11907
1029.90083	0.11992
1028.61506	0.12010
1027.32929	0.11955
1026.04352	0.11840
1024.75775	0.11694
1023.47199	0.11535
1022.18622	0.11365
1020.90045	0.11175
1019.61468	0.10959
1018.32891	0.10721
1017.04314	0.10472
1015.75737	0.10225
1014.47160	0.09989
1013.18584	0.09770
1011.90007	0.09565
1010.61430	0.09370
1009.32853	0.09185
1008.04276	0.09010
1006.75699	0.08846
1005.47122	0.08693
1004.18545	0.08551
1002.89968	0.08418
1001.61392	0.08287
1000.32815	0.08154
999.04238	0.08018
997.75661	0.07886
996.47084	0.07761
995.18507	0.07639
993.89930	0.07517
992.61353	0.07397
991.32777	0.07281
990.04200	0.07174
988.75623	0.07073
987.47046	0.06974
986.18469	0.06878
984.89892	0.06784
983.61315	0.06694
982.32738	0.06609
981.04161	0.06528
979.75585	0.06449
978.47008	0.06368
977.18431	0.06287
975.89854	0.06208
974.61277	0.06134
973.32700	0.06070
972.04123	0.06024
970.75546	0.06005
969.46970	0.06015
968.18393	0.06044
966.89816	0.06076
965.61239	0.06097
964.32662	0.06095
963.04085	0.06067
961.75508	0.06019
960.46931	0.05962
959.18354	0.05904
957.89778	0.05847
956.61201	0.05787
955.32624	0.05722
954.04047	0.05654
952.75470	0.05587
951.46893	0.05520
950.18316	0.05453
948.89739	0.05385
947.61163	0.05319
946.32586	0.05258
945.04009	0.05204
943.75432	0.05153
942.46855	0.05100
941.18278	0.05047
939.89701	0.04995
938.61124	0.04941
937.32547	0.04884
936.03971	0.04825
934.75394	0.04769
933.46817	0.04717
932.18240	0.04669
930.89663	0.04622
929.61086	0.04574
928.32509	0.04528
927.03932	0.04481
925.75356	0.04434
924.46779	0.04381
923.18202	0.04327
921.89625	0.04278
920.61048	0.04240
919.32471	0.04208
918.03894	0.04172
916.75317	0.04129
915.46740	0.04082
914.18164	0.04038
912.89587	0.03996
911.61010	0.03954
910.32433	0.03915
909.03856	0.03881
907.75279	0.03854
906.46702	0.03827
905.18125	0.03798
903.89549	0.03767
902.60972	0.03738
901.32395	0.03711
900.03818	0.03689
898.75241	0.03675
897.46664	0.03666
896.18087	0.03657
894.89510	0.03644
893.60933	0.03627
892.32357	0.03609
891.03780	0.03584
889.75203	0.03552
888.46626	0.03519
887.18049	0.03499
885.89472	0.03501
884.60895	0.03522
883.32318	0.03546
882.03742	0.03557
880.75165	0.03554
879.46588	0.03548
878.18011	0.03546
876.89434	0.03548
875.60857	0.03550
874.32280	0.03547
873.03703	0.03539
871.75126	0.03529
870.46550	0.03519
869.17973	0.03510
867.89396	0.03504
866.60819	0.03502
865.32242	0.03505
864.03665	0.03506
862.75088	0.03503
861.46511	0.03490
860.17935	0.03468
858.89358	0.03436
857.60781	0.03399
856.32204	0.03359
855.03627	0.03324
853.75050	0.03296
852.46473	0.03276
851.17896	0.03257
849.89319	0.03236
848.60743	0.03211
847.32166	0.03182
846.03589	0.03151
844.75012	0.03121
843.46435	0.03093
842.17858	0.03070
840.89281	0.03050
839.60704	0.03031
838.32128	0.03009
837.03551	0.02981
835.74974	0.02953
834.46397	0.02928
833.17820	0.02907
831.89243	0.02889
830.60666	0.02876
829.32089	0.02864
828.03512	0.02846
826.74936	0.02824
825.46359	0.02807
824.17782	0.02803
822.89205	0.02799
821.60628	0.02785
820.32051	0.02761
819.03474	0.02740
817.74897	0.02730
816.46321	0.02724
815.17744	0.02713
813.89167	0.02699
812.60590	0.02689
811.32013	0.02688
810.03436	0.02692
808.74859	0.02694
807.46282	0.02694
806.17705	0.02697
804.89129	0.02702
803.60552	0.02703
802.31975	0.02696
801.03398	0.02683
799.74821	0.02666
798.46244	0.02646
797.17667	0.02625
795.89090	0.02607
794.60513	0.02598
793.31937	0.02594
792.03360	0.02591
790.74783	0.02584
789.46206	0.02573
788.17629	0.02565
786.89052	0.02562
785.60475	0.02562
784.31898	0.02561
783.03322	0.02553
781.74745	0.02540
780.46168	0.02526
779.17591	0.02515
777.89014	0.02507
776.60437	0.02499
775.31860	0.02488
774.03283	0.02474
772.74706	0.02463
771.46130	0.02461
770.17553	0.02465
768.88976	0.02474
767.60399	0.02485
766.31822	0.02495
765.03245	0.02501
763.74668	0.02505
762.46091	0.02511
761.17515	0.02520
759.88938	0.02527
758.60361	0.02529
757.31784	0.02530
756.03207	0.02532
754.74630	0.02537
753.46053	0.02538
752.17476	0.02532
750.88899	0.02518
749.60323	0.02503
748.31746	0.02494
747.03169	0.02493
745.74592	0.02492
744.46015	0.02489
743.17438	0.02490
741.88861	0.02497
740.60284	0.02505
739.31708	0.02507
738.03131	0.02505
736.74554	0.02503
735.45977	0.02498
734.17400	0.02485
732.88823	0.02469
731.60246	0.02460
730.31669	0.02465
729.03092	0.02481
727.74516	0.02498
726.45939	0.02509
725.17362	0.02510
723.88785	0.02499
722.60208	0.02496
721.31631	0.02501
720.03054	0.02505
718.74477	0.02501
717.45901	0.02487
716.17324	0.02469
714.88747	0.02454
713.60170	0.02448
712.31593	0.02452
711.03016	0.02460
709.74439	0.02470
708.45862	0.02479
707.17285	0.02486
705.88709	0.02490
704.60132	0.02491
703.31555	0.02486
702.02978	0.02476
700.74401	0.02466
699.45824	0.02459
698.17247	0.02453
696.88670	0.02450
695.60094	0.02448
694.31517	0.02449
693.02940	0.02451
691.74363	0.02449
690.45786	0.02442
689.17209	0.02431
687.88632	0.02423
686.60055	0.02420
685.31478	0.02418
684.02902	0.02414
682.74325	0.02405
681.45748	0.02394
680.17171	0.02385
678.88594	0.02379
677.60017	0.02378
676.31440	0.02378
675.02863	0.02379
673.74287	0.02380
672.45710	0.02379
671.17133	0.02376
669.88556	0.02371
668.59979	0.02365
667.31402	0.02363
666.02825	0.02360
664.74248	0.02355
663.45671	0.02348
662.17095	0.02340
660.88518	0.02336
659.59941	0.02334
658.31364	0.02331
657.02787	0.02327
655.74210	0.02327
654.45633	0.02329
653.17056	0.02330
651.88480	0.02328
650.59903	0.02318
649.31326	0.02305
648.02749	0.02295
646.74172	0.02286
645.45595	0.02277
644.17018	0.02269
642.88441	0.02263
641.59864	0.02255
640.31288	0.02245
639.02711	0.02232
637.74134	0.02216
636.45557	0.02200
635.16980	0.02190
633.88403	0.02192
632.59826	0.02205
631.31249	0.02220
630.02673	0.02218
628.74096	0.02199
627.45519	0.02207
626.16942	0.02165
624.88365	0.02085
623.59788	0.01995
622.31211	0.01927
621.02634	0.01943
619.74057	0.02083
618.45481	0.02307
617.16904	0.02522
615.88327	0.02683
614.59750	0.02831
613.31173	0.03067
612.02596	0.03454
610.74019	0.03932
609.45442	0.04337
608.16866	0.04563
606.88289	0.04656
605.59712	0.04732
604.31135	0.04839
603.02558	0.04939
601.73981	0.04976
600.45404	0.04937
599.16827	0.04844
597.88250	0.04720
596.59674	0.04578
595.31097	0.04427
594.02520	0.04285
592.73943	0.04170
591.45366	0.04092
590.16789	0.04051
588.88212	0.04041
587.59635	0.04054
586.31059	0.04085
585.02482	0.04133
583.73905	0.04208
582.45328	0.04320
581.16751	0.04475
579.88174	0.04659
578.59597	0.04847
577.31020	0.05016
576.02443	0.05154
574.73867	0.05263
573.45290	0.05350
572.16713	0.05429
570.88136	0.05516
569.59559	0.05624
568.30982	0.05756
567.02405	0.05904
565.73828	0.06048
564.45251	0.06171
563.16675	0.06254
561.88098	0.06284
560.59521	0.06253
559.30944	0.06162
558.02367	0.06030
556.73790	0.05886
555.45213	0.05756
554.16636	0.05648
552.88060	0.05558
551.59483	0.05476
550.30906	0.05393
549.02329	0.05300
547.73752	0.05202
546.45175	0.05104
545.16598	0.05012
543.88021	0.04927
542.59444	0.04848
541.30868	0.04780
540.02291	0.04725
538.73714	0.04680
537.45137	0.04636
536.16560	0.04583
534.87983	0.04522
533.59406	0.04463
532.30829	0.04411
531.02253	0.04366
529.73676	0.04324
528.45099	0.04278
527.16522	0.04229
525.87945	0.04180
524.59368	0.04131
523.30791	0.04086
522.02214	0.04040
520.73637	0.03990
519.45061	0.03931
518.16484	0.03865
516.87907	0.03800
515.59330	0.03750
514.30753	0.03719
513.02176	0.03703
511.73599	0.03688
510.45022	0.03660
509.16446	0.03611
507.87869	0.03544
506.59292	0.03471
505.30715	0.03405
504.02138	0.03355
502.73561	0.03321
501.44984	0.03297
500.16407	0.03273
498.87830	0.03243
497.59254	0.03204
496.30677	0.03159
495.02100	0.03117
493.73523	0.03080
492.44946	0.03044
491.16369	0.03003
489.87792	0.02960
488.59215	0.02919
487.30639	0.02891
486.02062	0.02877
484.73485	0.02871
483.44908	0.02865
482.16331	0.02851
480.87754	0.02827
479.59177	0.02797
478.30600	0.02769
477.02023	0.02750
475.73447	0.02740
474.44870	0.02734
473.16293	0.02726
471.87716	0.02714
470.59139	0.02698
469.30562	0.02682
468.01985	0.02666
466.73408	0.02646
465.44832	0.02618
464.16255	0.02578
462.87678	0.02532
461.59101	0.02489
460.30524	0.02456
459.01947	0.02431
457.73370	0.02411
456.44793	0.02393
455.16216	0.02374
453.87640	0.02349
452.59063	0.02321
451.30486	0.02294
450.01909	0.02271
448.73332	0.02255
447.44755	0.02240
446.16178	0.02224
444.87601	0.02207
443.59025	0.02190
442.30448	0.02177
441.01871	0.02168
439.73294	0.02158
438.44717	0.02148
437.16140	0.02137
435.87563	0.02128
434.58986	0.02118
433.30409	0.02103
432.01833	0.02083
430.73256	0.02063
429.44679	0.02052
428.16102	0.02051
426.87525	0.02053
425.58948	0.02050
424.30371	0.02040
423.01794	0.02025
421.73218	0.02009
420.44641	0.01995
419.16064	0.01983
417.87487	0.01970
416.58910	0.01953
415.30333	0.01935
414.01756	0.01923
412.73179	0.01919
411.44602	0.01917
410.16026	0.01911
408.87449	0.01901
407.58872	0.01888
406.30295	0.01874
405.01718	0.01860
403.73141	0.01847
402.44564	0.01836
401.15987	0.01828
399.87411	0.01821
