3997.45528	0.08487
3996.16951	0.08487
3994.88374	0.08495
3993.59798	0.08498
3992.31221	0.08481
3991.02644	0.08443
3989.74067	0.08397
3988.45490	0.08360
3987.16913	0.08342
3985.88336	0.08336
3984.59759	0.08332
3983.31183	0.08336
3982.02606	0.08359
3980.74029	0.08397
3979.45452	0.08426
3978.16875	0.08422
3976.88298	0.08391
3975.59721	0.08364
3974.31144	0.08366
3973.02567	0.08394
3971.73991	0.08419
3970.45414	0.08412
3969.16837	0.08374
3967.88260	0.08339
3966.59683	0.08341
3965.31106	0.08378
3964.02529	0.08421
3962.73952	0.08442
3961.45376	0.08440
3960.16799	0.08430
3958.88222	0.08427
3957.59645	0.08422
3956.31068	0.08393
3955.02491	0.08328
3953.73914	0.08250
3952.45337	0.08206
3951.16760	0.08213
3949.88184	0.08237
3948.59607	0.08223
3947.31030	0.08159
3946.02453	0.08090
3944.73876	0.08065
3943.45299	0.08081
3942.16722	0.08099
3940.88145	0.08097
3939.59569	0.08099
3938.30992	0.08130
3937.02415	0.08181
3935.73838	0.08213
3934.45261	0.08203
3933.16684	0.08170
3931.88107	0.08150
3930.59530	0.08162
3929.30953	0.08186
3928.02377	0.08192
3926.73800	0.08180
3925.45223	0.08173
3924.16646	0.08186
3922.88069	0.08207
3921.59492	0.08216
3920.30915	0.08205
3919.02338	0.08165
3917.73762	0.08090
3916.45185	0.07985
3915.16608	0.07894
3913.88031	0.07861
3912.59454	0.07892
3911.30877	0.07947
3910.02300	0.07982
3908.73723	0.07974
3907.45146	0.07935
3906.16570	0.07902
3904.87993	0.07908
3903.59416	0.07948
3902.30839	0.07991
3901.02262	0.08016
3899.73685	0.08031
3898.45108	0.08040
3897.16531	0.08028
3895.87955	0.07985
3894.59378	0.07932
3893.30801	0.07904
3892.02224	0.07899
3890.73647	0.07883
3889.45070	0.07851
3888.16493	0.07842
3886.87916	0.07865
3885.59339	0.07885
3884.30763	0.07886
3883.02186	0.07902
3881.73609	0.07956
3880.45032	0.08015
3879.16455	0.08028
3877.87878	0.07995
3876.59301	0.07949
3875.30724	0.07912
3874.02148	0.07873
3872.73571	0.07834
3871.44994	0.07815
3870.16417	0.07829
3868.87840	0.07866
3867.59263	0.07916
3866.30686	0.07964
3865.02109	0.07992
3863.73532	0.08011
3862.44956	0.08043
3861.16379	0.08078
3859.87802	0.08078
3858.59225	0.08029
3857.30648	0.07968
3856.02071	0.07942
3854.73494	0.07952
3853.44917	0.07942
3852.16341	0.07888
3850.87764	0.07823
3849.59187	0.07789
3848.30610	0.07788
3847.02033	0.07800
3845.73456	0.07802
3844.44879	0.07784
3843.16302	0.07756
3841.87725	0.07741
3840.59149	0.07757
3839.30572	0.07789
3838.01995	0.07791
3836.73418	0.07732
3835.44841	0.07645
3834.16264	0.07590
3832.87687	0.07596
3831.59110	0.07638
3830.30534	0.07671
3829.01957	0.07671
3827.73380	0.07644
3826.44803	0.07617
3825.16226	0.07627
3823.87649	0.07697
3822.59072	0.07798
3821.30495	0.07848
3820.01918	0.07797
3818.73342	0.07684
3817.44765	0.07585
3816.16188	0.07525
3814.87611	0.07487
3813.59034	0.07465
3812.30457	0.07453
3811.01880	0.07431
3809.73303	0.07399
3808.44726	0.07377
3807.16150	0.07368
3805.87573	0.07372
3804.58996	0.07410
3803.30419	0.07493
3802.01842	0.07576
3800.73265	0.07595
3799.44688	0.07551
3798.16111	0.07489
3796.87535	0.07434
3795.58958	0.07381
3794.30381	0.07343
3793.01804	0.07347
3791.73227	0.07395
3790.44650	0.07447
3789.16073	0.07456
3787.87496	0.07407
3786.58919	0.07330
3785.30343	0.07272
3784.01766	0.07253
3782.73189	0.07270
3781.44612	0.07313
3780.16035	0.07361
3778.87458	0.07386
3777.58881	0.07375
3776.30304	0.07343
3775.01728	0.07315
3773.73151	0.07299
3772.44574	0.07293
3771.15997	0.07293
3769.87420	0.07298
3768.58843	0.07310
3767.30266	0.07325
3766.01689	0.07332
3764.73112	0.07317
3763.44536	0.07280
3762.15959	0.07227
3760.87382	0.07164
3759.58805	0.07096
3758.30228	0.07034
3757.01651	0.06992
3755.73074	0.06987
3754.44497	0.07041
3753.15921	0.07141
3751.87344	0.07235
3750.58767	0.07272
3749.30190	0.07255
3748.01613	0.07239
3746.73036	0.07280
3745.44459	0.07356
3744.15882	0.07375
3742.87305	0.07309
3741.58729	0.07230
3740.30152	0.07196
3739.01575	0.07192
3737.72998	0.07174
3736.44421	0.07117
3735.15844	0.07029
3733.87267	0.06950
3732.58690	0.06922
3731.30114	0.06956
3730.01537	0.07018
3728.72960	0.07068
3727.44383	0.07059
3726.15806	0.06974
3724.87229	0.06861
3723.58652	0.06776
3722.30075	0.06741
3721.01498	0.06735
3719.72922	0.06737
3718.44345	0.06739
3717.15768	0.06739
3715.87191	0.06733
3714.58614	0.06718
3713.30037	0.06685
3712.01460	0.06641
3710.72883	0.06606
3709.44307	0.06611
3708.15730	0.06659
3706.87153	0.06732
3705.58576	0.06812
3704.29999	0.06853
3703.01422	0.06853
3701.72845	0.06859
3700.44268	0.06894
3699.15691	0.06912
3697.87115	0.06921
3696.58538	0.06966
3695.29961	0.07014
3694.01384	0.07011
3692.72807	0.06962
3691.44230	0.06886
3690.15653	0.06792
3688.87076	0.06723
3687.58500	0.06701
3686.29923	0.06671
3685.01346	0.06623
3683.72769	0.06582
3682.44192	0.06567
3681.15615	0.06596
3679.87038	0.06660
3678.58461	0.06722
3677.29884	0.06755
3676.01308	0.06721
3674.72731	0.06632
3673.44154	0.06585
3672.15577	0.06658
3670.87000	0.06816
3669.58423	0.06945
3668.29846	0.06988
3667.01269	0.06976
3665.72693	0.06949
3664.44116	0.06924
3663.15539	0.06895
3661.86962	0.06862
3660.58385	0.06836
3659.29808	0.06823
3658.01231	0.06820
3656.72654	0.06814
3655.44077	0.06807
3654.15501	0.06828
3652.86924	0.06899
3651.58347	0.06998
3650.29770	0.07067
3649.01193	0.07077
3647.72616	0.07051
3646.44039	0.07033
3645.15462	0.07045
3643.86886	0.07081
3642.58309	0.07132
3641.29732	0.07195
3640.01155	0.07268
3638.72578	0.07340
3637.44001	0.07404
3636.15424	0.07459
3634.86847	0.07491
3633.58270	0.07472
3632.29694	0.07400
3631.01117	0.07318
3629.72540	0.07274
3628.43963	0.07285
3627.15386	0.07338
3625.86809	0.07413
3624.58232	0.07494
3623.29655	0.07568
3622.01079	0.07640
3620.72502	0.07709
3619.43925	0.07764
3618.15348	0.07788
3616.86771	0.07787
3615.58194	0.07768
3614.29617	0.07744
3613.01040	0.07729
3611.72463	0.07743
3610.43887	0.07791
3609.15310	0.07852
3607.86733	0.07904
3606.58156	0.07963
3605.29579	0.08060
3604.01002	0.08176
3602.72425	0.08270
3601.43848	0.08316
3600.15272	0.08331
3598.86695	0.08322
3597.58118	0.08334
3596.29541	0.08405
3595.00964	0.08519
3593.72387	0.08578
3592.43810	0.08568
3591.15233	0.08562
3589.86656	0.08586
3588.58080	0.08614
3587.29503	0.08619
3586.00926	0.08607
3584.72349	0.08605
3583.43772	0.08664
3582.15195	0.08799
3580.86618	0.08968
3579.58041	0.09124
3578.29464	0.09239
3577.00888	0.09303
3575.72311	0.09335
3574.43734	0.09350
3573.15157	0.09360
3571.86580	0.09377
3570.58003	0.09406
3569.29426	0.09439
3568.00849	0.09476
3566.72273	0.09532
3565.43696	0.09627
3564.15119	0.09747
3562.86542	0.09837
3561.57965	0.09853
3560.29388	0.09810
3559.00811	0.09772
3557.72234	0.09786
3556.43657	0.09845
3555.15081	0.09900
3553.86504	0.09919
3552.57927	0.09921
3551.29350	0.09950
3550.00773	0.10031
3548.72196	0.10145
3547.43619	0.10258
3546.15042	0.10348
3544.86466	0.10406
3543.57889	0.10432
3542.29312	0.10437
3541.00735	0.10448
3539.72158	0.10491
3538.43581	0.10567
3537.15004	0.10663
3535.86427	0.10762
3534.57850	0.10856
3533.29274	0.10930
3532.00697	0.10971
3530.72120	0.10992
3529.43543	0.11023
3528.14966	0.11076
3526.86389	0.11131
3525.57812	0.11162
3524.29235	0.11179
3523.00659	0.11208
3521.72082	0.11257
3520.43505	0.11315
3519.14928	0.11375
3517.86351	0.11448
3516.57774	0.11536
3515.29197	0.11623
3514.00620	0.11684
3512.72043	0.11712
3511.43467	0.11715
3510.14890	0.11708
3508.86313	0.11713
3507.57736	0.11748
3506.29159	0.11822
3505.00582	0.11924
3503.72005	0.12028
3502.43428	0.12108
3501.14852	0.12154
3499.86275	0.12173
3498.57698	0.12186
3497.29121	0.12209
3496.00544	0.12245
3494.71967	0.12289
3493.43390	0.12333
3492.14813	0.12374
3490.86236	0.12407
3489.57660	0.12425
3488.29083	0.12428
3487.00506	0.12427
3485.71929	0.12448
3484.43352	0.12513
3483.14775	0.12626
3481.86198	0.12757
3480.57621	0.12854
3479.29045	0.12883
3478.00468	0.12854
3476.71891	0.12823
3475.43314	0.12835
3474.14737	0.12893
3472.86160	0.12967
3471.57583	0.13029
3470.29006	0.13076
3469.00429	0.13112
3467.71853	0.13143
3466.43276	0.13173
3465.14699	0.13208
3463.86122	0.13253
3462.57545	0.13304
3461.28968	0.13356
3460.00391	0.13410
3458.71814	0.13472
3457.43238	0.13541
3456.14661	0.13600
3454.86084	0.13628
3453.57507	0.13620
3452.28930	0.13602
3451.00353	0.13607
3449.71776	0.13653
3448.43199	0.13733
3447.14622	0.13828
3445.86046	0.13918
3444.57469	0.13994
3443.28892	0.14063
3442.00315	0.14128
3440.71738	0.14179
3439.43161	0.14203
3438.14584	0.14202
3436.86007	0.14195
3435.57431	0.14204
3434.28854	0.14238
3433.00277	0.14292
3431.71700	0.14359
3430.43123	0.14434
3429.14546	0.14504
3427.85969	0.14560
3426.57392	0.14599
3425.28815	0.14631
3424.00239	0.14675
3422.71662	0.14742
3421.43085	0.14825
3420.14508	0.14900
3418.85931	0.14947
3417.57354	0.14961
3416.28777	0.14960
3415.00200	0.14966
3413.71624	0.14993
3412.43047	0.15034
3411.14470	0.15080
3409.85893	0.15135
3408.57316	0.15210
3407.28739	0.15305
3406.00162	0.15403
3404.71585	0.15484
3403.43008	0.15542
3402.14432	0.15583
3400.85855	0.15610
3399.57278	0.15616
3398.28701	0.15599
3397.00124	0.15579
3395.71547	0.15599
3394.42970	0.15692
3393.14393	0.15843
3391.85817	0.15994
3390.57240	0.16085
3389.28663	0.16102
3388.00086	0.16072
3386.71509	0.16037
3385.42932	0.16030
3384.14355	0.16068
3382.85778	0.16148
3381.57201	0.16250
3380.28625	0.16351
3379.00048	0.16431
3377.71471	0.16483
3376.42894	0.16516
3375.14317	0.16558
3373.85740	0.16634
3372.57163	0.16740
3371.28586	0.16842
3370.00010	0.16911
3368.71433	0.16959
3367.42856	0.17027
3366.14279	0.17136
3364.85702	0.17269
3363.57125	0.17389
3362.28548	0.17479
3360.99971	0.17554
3359.71394	0.17641
3358.42818	0.17748
3357.14241	0.17858
3355.85664	0.17946
3354.57087	0.18010
3353.28510	0.18072
3351.99933	0.18152
3350.71356	0.18253
3349.42779	0.18363
3348.14202	0.18463
3346.85626	0.18542
3345.57049	0.18602
3344.28472	0.18656
3342.99895	0.18712
3341.71318	0.18763
3340.42741	0.18809
3339.14164	0.18864
3337.85587	0.18942
3336.57011	0.19038
3335.28434	0.19136
3333.99857	0.19228
3332.71280	0.19307
3331.42703	0.19363
3330.14126	0.19397
3328.85549	0.19428
3327.56972	0.19485
3326.28395	0.19576
3324.99819	0.19683
3323.71242	0.19783
3322.42665	0.19865
3321.14088	0.19934
3319.85511	0.19996
3318.56934	0.20050
3317.28357	0.20097
3315.99780	0.20143
3314.71204	0.20191
3313.42627	0.20240
3312.14050	0.20292
3310.85473	0.20355
3309.56896	0.20437
3308.28319	0.20534
3306.99742	0.20633
3305.71165	0.20717
3304.42588	0.20779
3303.14012	0.20818
3301.85435	0.20843
3300.56858	0.20863
3299.28281	0.20887
3297.99704	0.20922
3296.71127	0.20970
3295.42550	0.21027
3294.13973	0.21084
3292.85397	0.21131
3291.56820	0.21161
3290.28243	0.21164
3288.99666	0.21139
3287.71089	0.21104
3286.42512	0.21081
3285.13935	0.21076
3283.85358	0.21071
3282.56781	0.21055
3281.28205	0.21035
3279.99628	0.21026
3278.71051	0.21036
3277.42474	0.21064
3276.13897	0.21100
3274.85320	0.21119
3273.56743	0.21094
3272.28166	0.21022
3270.99590	0.20933
3269.71013	0.20855
3268.42436	0.20794
3267.13859	0.20736
3265.85282	0.20671
3264.56705	0.20599
3263.28128	0.20531
3261.99551	0.20476
3260.70974	0.20433
3259.42398	0.20390
3258.13821	0.20330
3256.85244	0.20249
3255.56667	0.20163
3254.28090	0.20093
3252.99513	0.20051
3251.70936	0.20033
3250.42359	0.20024
3249.13783	0.20009
3247.85206	0.19973
3246.56629	0.19903
3245.28052	0.19799
3243.99475	0.19677
3242.70898	0.19564
3241.42321	0.19486
3240.13744	0.19449
3238.85167	0.19435
3237.56591	0.19416
3236.28014	0.19370
3234.99437	0.19296
3233.70860	0.19206
3232.42283	0.19114
3231.13706	0.19033
3229.85129	0.18973
3228.56552	0.18938
3227.27976	0.18908
3225.99399	0.18857
3224.70822	0.18781
3223.42245	0.18714
3222.13668	0.18693
3220.85091	0.18715
3219.56514	0.18739
3218.27937	0.18731
3216.99360	0.18690
3215.70784	0.18636
3214.42207	0.18590
3213.13630	0.18558
3211.85053	0.18525
3210.56476	0.18474
3209.27899	0.18404
3207.99322	0.18338
3206.70745	0.18301
3205.42169	0.18290
3204.13592	0.18285
3202.85015	0.18267
3201.56438	0.18231
3200.27861	0.18181
3198.99284	0.18117
3197.70707	0.18044
3196.42130	0.17973
3195.13553	0.17919
3193.84977	0.17884
3192.56400	0.17847
3191.27823	0.17788
3189.99246	0.17706
3188.70669	0.17624
3187.42092	0.17566
3186.13515	0.17536
3184.84938	0.17514
3183.56362	0.17472
3182.27785	0.17402
3180.99208	0.17318
3179.70631	0.17238
3178.42054	0.17160
3177.13477	0.17078
3175.84900	0.16985
3174.56323	0.16888
3173.27746	0.16797
3171.99170	0.16724
3170.70593	0.16677
3169.42016	0.16650
3168.13439	0.16620
3166.84862	0.16564
3165.56285	0.16481
3164.27708	0.16396
3162.99131	0.16338
3161.70555	0.16310
3160.41978	0.16288
3159.13401	0.16247
3157.84824	0.16177
3156.56247	0.16082
3155.27670	0.15969
3153.99093	0.15851
3152.70516	0.15743
3151.41939	0.15661
3150.13363	0.15608
3148.84786	0.15577
3147.56209	0.15549
3146.27632	0.15505
3144.99055	0.15435
3143.70478	0.15344
3142.41901	0.15244
3141.13324	0.15149
3139.84748	0.15074
3138.56171	0.15028
3137.27594	0.15012
3135.99017	0.15009
3134.70440	0.15000
3133.41863	0.14978
3132.13286	0.14943
3130.84709	0.14896
3129.56132	0.14833
3128.27556	0.14756
3126.98979	0.14682
3125.70402	0.14629
3124.41825	0.14605
3123.13248	0.14602
3121.84671	0.14604
3120.56094	0.14596
3119.27517	0.14567
3117.98940	0.14518
3116.70364	0.14467
3115.41787	0.14436
3114.13210	0.14434
3112.84633	0.14455
3111.56056	0.14478
3110.27479	0.14483
3108.98902	0.14457
3107.70325	0.14405
3106.41749	0.14353
3105.13172	0.14330
3103.84595	0.14349
3102.56018	0.14398
3101.27441	0.14454
3099.98864	0.14502
3098.70287	0.14539
3097.41710	0.14569
3096.13133	0.14593
3094.84557	0.14611
3093.55980	0.14618
3092.27403	0.14610
3090.98826	0.14588
3089.70249	0.14567
3088.41672	0.14565
3087.13095	0.14584
3085.84518	0.14609
3084.55942	0.14628
3083.27365	0.14644
3081.98788	0.14671
3080.70211	0.14712
3079.41634	0.14754
3078.13057	0.14785
3076.84480	0.14802
3075.55903	0.14811
3074.27326	0.14813
3072.98750	0.14805
3071.70173	0.14784
3070.41596	0.14757
3069.13019	0.14742
3067.84442	0.14754
3066.55865	0.14787
3065.27288	0.14815
3063.98711	0.14809
3062.70135	0.14758
3061.41558	0.14677
3060.12981	0.14587
3058.84404	0.14510
3057.55827	0.14458
3056.27250	0.14423
3054.98673	0.14392
3053.70096	0.14359
3052.41519	0.14329
3051.12943	0.14304
3049.84366	0.14272
3048.55789	0.14217
3047.27212	0.14140
3045.98635	0.14066
3044.70058	0.14022
3043.41481	0.14011
3042.12904	0.14010
3040.84328	0.13986
3039.55751	0.13926
3038.27174	0.13842
3036.98597	0.13754
3035.70020	0.13675
3034.41443	0.13610
3033.12866	0.13562
3031.84289	0.13528
3030.55712	0.13499
3029.27136	0.13462
3027.98559	0.13409
3026.69982	0.13349
3025.41405	0.13297
3024.12828	0.13263
3022.84251	0.13234
3021.55674	0.13190
3020.27097	0.13124
3018.98521	0.13045
3017.69944	0.12965
3016.41367	0.12896
3015.12790	0.12841
3013.84213	0.12805
3012.55636	0.12788
3011.27059	0.12780
3009.98482	0.12763
3008.69905	0.12730
3007.41329	0.12689
3006.12752	0.12655
3004.84175	0.12636
3003.55598	0.12628
3002.27021	0.12621
3000.98444	0.12614
2999.69867	0.12617
2998.41290	0.12643
2997.12714	0.12687
2995.84137	0.12731
2994.55560	0.12756
2993.26983	0.12760
2991.98406	0.12752
2990.69829	0.12746
2989.41252	0.12762
2988.12675	0.12811
2986.84098	0.12888
2985.55522	0.12974
2984.26945	0.13061
2982.98368	0.13149
2981.69791	0.13238
2980.41214	0.13317
2979.12637	0.13383
2977.84060	0.13441
2976.55483	0.13500
2975.26907	0.13567
2973.98330	0.13644
2972.69753	0.13732
2971.41176	0.13824
2970.12599	0.13914
2968.84022	0.13995
2967.55445	0.14070
2966.26868	0.14147
2964.98291	0.14231
2963.69715	0.14315
2962.41138	0.14386
2961.12561	0.14440
2959.83984	0.14482
2958.55407	0.14524
2957.26830	0.14568
2955.98253	0.14604
2954.69676	0.14627
2953.41100	0.14639
2952.12523	0.14643
2950.83946	0.14638
2949.55369	0.14626
2948.26792	0.14621
2946.98215	0.14637
2945.69638	0.14671
2944.41061	0.14711
2943.12484	0.14759
2941.83908	0.14824
2940.55331	0.14907
2939.26754	0.14998
2937.98177	0.15082
2936.69600	0.15155
2935.41023	0.15217
2934.12446	0.15274
2932.83869	0.15328
2931.55293	0.15376
2930.26716	0.15416
2928.98139	0.15451
2927.69562	0.15489
2926.40985	0.15529
2925.12408	0.15557
2923.83831	0.15554
2922.55254	0.15513
2921.26677	0.15449
2919.98101	0.15379
2918.69524	0.15308
2917.40947	0.15225
2916.12370	0.15118
2914.83793	0.14983
2913.55216	0.14826
2912.26639	0.14666
2910.98062	0.14523
2909.69486	0.14409
2908.40909	0.14318
2907.12332	0.14235
2905.83755	0.14143
2904.55178	0.14035
2903.26601	0.13919
2901.98024	0.13805
2900.69447	0.13702
2899.40870	0.13613
2898.12294	0.13546
2896.83717	0.13497
2895.55140	0.13454
2894.26563	0.13398
2892.97986	0.13332
2891.69409	0.13269
2890.40832	0.13225
2889.12255	0.13202
2887.83678	0.13192
2886.55102	0.13188
2885.26525	0.13185
2883.97948	0.13182
2882.69371	0.13181
2881.40794	0.13188
2880.12217	0.13206
2878.83640	0.13234
2877.55063	0.13266
2876.26487	0.13291
2874.97910	0.13293
2873.69333	0.13261
2872.40756	0.13203
2871.12179	0.13138
2869.83602	0.13082
2868.55025	0.13037
2867.26448	0.12994
2865.97871	0.12944
2864.69295	0.12888
2863.40718	0.12837
2862.12141	0.12803
2860.83564	0.12790
2859.54987	0.12796
2858.26410	0.12815
2856.97833	0.12843
2855.69256	0.12872
2854.40680	0.12890
2853.12103	0.12883
2851.83526	0.12846
2850.54949	0.12780
2849.26372	0.12696
2847.97795	0.12600
2846.69218	0.12495
2845.40641	0.12378
2844.12064	0.12253
2842.83488	0.12129
2841.54911	0.12016
2840.26334	0.11911
2838.97757	0.11812
2837.69180	0.11718
2836.40603	0.11630
2835.12026	0.11549
2833.83449	0.11474
2832.54873	0.11413
2831.26296	0.11365
2829.97719	0.11332
2828.69142	0.11310
2827.40565	0.11296
2826.11988	0.11280
2824.83411	0.11254
2823.54834	0.11214
2822.26257	0.11164
2820.97681	0.11105
2819.69104	0.11044
2818.40527	0.10990
2817.11950	0.10950
2815.83373	0.10918
2814.54796	0.10883
2813.26219	0.10837
2811.97642	0.10789
2810.69066	0.10751
2809.40489	0.10727
2808.11912	0.10709
2806.83335	0.10690
2805.54758	0.10672
2804.26181	0.10662
2802.97604	0.10652
2801.69027	0.10633
2800.40450	0.10603
2799.11874	0.10572
2797.83297	0.10543
2796.54720	0.10509
2795.26143	0.10468
2793.97566	0.10429
2792.68989	0.10401
2791.40412	0.10380
2790.11835	0.10358
2788.83259	0.10336
2787.54682	0.10316
2786.26105	0.10298
2784.97528	0.10283
2783.68951	0.10277
2782.40374	0.10281
2781.11797	0.10284
2779.83220	0.10272
2778.54643	0.10246
2777.26067	0.10215
2775.97490	0.10188
2774.68913	0.10165
2773.40336	0.10142
2772.11759	0.10117
2770.83182	0.10094
2769.54605	0.10078
2768.26028	0.10064
2766.97452	0.10044
2765.68875	0.10005
2764.40298	0.09949
2763.11721	0.09889
2761.83144	0.09849
2760.54567	0.09840
2759.25990	0.09855
2757.97413	0.09874
2756.68836	0.09881
2755.40260	0.09875
2754.11683	0.09857
2752.83106	0.09829
2751.54529	0.09785
2750.25952	0.09728
2748.97375	0.09669
2747.68798	0.09621
2746.40221	0.09595
2745.11645	0.09591
2743.83068	0.09602
2742.54491	0.09617
2741.25914	0.09626
2739.97337	0.09614
2738.68760	0.09576
2737.40183	0.09525
2736.11606	0.09485
2734.83029	0.09470
2733.54453	0.09478
2732.25876	0.09488
2730.97299	0.09480
2729.68722	0.09451
2728.40145	0.09413
2727.11568	0.09384
2725.82991	0.09368
2724.54414	0.09355
2723.25838	0.09329
2721.97261	0.09288
2720.68684	0.09242
2719.40107	0.09202
2718.11530	0.09178
2716.82953	0.09167
2715.54376	0.09164
2714.25799	0.09164
2712.97222	0.09162
2711.68646	0.09161
2710.40069	0.09161
2709.11492	0.09156
2707.82915	0.09141
2706.54338	0.09121
2705.25761	0.09104
2703.97184	0.09095
2702.68607	0.09086
2701.40031	0.09069
2700.11454	0.09042
2698.82877	0.09006
2697.54300	0.08971
2696.25723	0.08944
2694.97146	0.08930
2693.68569	0.08929
2692.39992	0.08933
2691.11415	0.08931
2689.82839	0.08918
2688.54262	0.08895
2687.25685	0.08869
2685.97108	0.08847
2684.68531	0.08830
2683.39954	0.08816
2682.11377	0.08805
2680.82800	0.08804
2679.54224	0.08816
2678.25647	0.08835
2676.97070	0.08847
2675.68493	0.08841
2674.39916	0.08821
2673.11339	0.08798
2671.82762	0.08780
2670.54185	0.08767
2669.25608	0.08756
2667.97032	0.08742
2666.68455	0.08729
2665.39878	0.08720
2664.11301	0.08721
2662.82724	0.08732
2661.54147	0.08746
2660.25570	0.08750
2658.96993	0.08738
2657.68417	0.08713
2656.39840	0.08681
2655.11263	0.08641
2653.82686	0.08597
2652.54109	0.08557
2651.25532	0.08531
2649.96955	0.08517
2648.68378	0.08499
2647.39801	0.08464
2646.11225	0.08421
2644.82648	0.08390
2643.54071	0.08386
2642.25494	0.08395
2640.96917	0.08387
2639.68340	0.08343
2638.39763	0.08274
2637.11186	0.08206
2635.82609	0.08157
2634.54033	0.08126
2633.25456	0.08101
2631.96879	0.08081
2630.68302	0.08076
2629.39725	0.08090
2628.11148	0.08107
2626.82571	0.08104
2625.53994	0.08068
2624.25418	0.08006
2622.96841	0.07938
2621.68264	0.07882
2620.39687	0.07849
2619.11110	0.07839
2617.82533	0.07842
2616.53956	0.07843
2615.25379	0.07829
2613.96802	0.07802
2612.68226	0.07769
2611.39649	0.07743
2610.11072	0.07726
2608.82495	0.07712
2607.53918	0.07697
2606.25341	0.07685
2604.96764	0.07677
2603.68187	0.07659
2602.39611	0.07620
2601.11034	0.07566
2599.82457	0.07514
2598.53880	0.07482
2597.25303	0.07478
2595.96726	0.07502
2594.68149	0.07534
2593.39572	0.07544
2592.10995	0.07522
2590.82419	0.07488
2589.53842	0.07471
2588.25265	0.07466
2586.96688	0.07447
2585.68111	0.07404
2584.39534	0.07350
2583.10957	0.07298
2581.82380	0.07253
2580.53804	0.07217
2579.25227	0.07194
2577.96650	0.07185
2576.68073	0.07192
2575.39496	0.07215
2574.10919	0.07238
2572.82342	0.07234
2571.53765	0.07199
2570.25188	0.07156
2568.96612	0.07127
2567.68035	0.07110
2566.39458	0.07084
2565.10881	0.07048
2563.82304	0.07020
2562.53727	0.07019
2561.25150	0.07035
2559.96573	0.07038
2558.67997	0.07005
2557.39420	0.06948
2556.10843	0.06900
2554.82266	0.06883
2553.53689	0.06891
2552.25112	0.06898
2550.96535	0.06885
2549.67958	0.06853
2548.39381	0.06819
2547.10805	0.06803
2545.82228	0.06809
2544.53651	0.06822
2543.25074	0.06819
2541.96497	0.06792
2540.67920	0.06751
2539.39343	0.06710
2538.10766	0.06676
2536.82190	0.06654
2535.53613	0.06642
2534.25036	0.06635
2532.96459	0.06617
2531.67882	0.06582
2530.39305	0.06544
2529.10728	0.06523
2527.82151	0.06531
2526.53574	0.06560
2525.24998	0.06599
2523.96421	0.06636
2522.67844	0.06656
2521.39267	0.06651
2520.10690	0.06624
2518.82113	0.06591
2517.53536	0.06569
2516.24959	0.06567
2514.96383	0.06580
2513.67806	0.06596
2512.39229	0.06601
2511.10652	0.06586
2509.82075	0.06549
2508.53498	0.06499
2507.24921	0.06452
2505.96344	0.06419
2504.67767	0.06402
2503.39191	0.06394
2502.10614	0.06386
2500.82037	0.06378
2499.53460	0.06380
2498.24883	0.06393
2496.96306	0.06409
2495.67729	0.06412
2494.39152	0.06396
2493.10576	0.06367
2491.81999	0.06336
2490.53422	0.06310
2489.24845	0.06288
2487.96268	0.06268
2486.67691	0.06243
2485.39114	0.06208
2484.10537	0.06173
2482.81960	0.06158
2481.53384	0.06178
2480.24807	0.06223
2478.96230	0.06267
2477.67653	0.06285
2476.39076	0.06270
2475.10499	0.06232
2473.81922	0.06193
2472.53345	0.06175
2471.24769	0.06183
2469.96192	0.06195
2468.67615	0.06190
2467.39038	0.06167
2466.10461	0.06148
2464.81884	0.06150
2463.53307	0.06163
2462.24730	0.06165
2460.96153	0.06146
2459.67577	0.06117
2458.39000	0.06099
2457.10423	0.06104
2455.81846	0.06126
2454.53269	0.06151
2453.24692	0.06171
2451.96115	0.06180
2450.67538	0.06177
2449.38962	0.06162
2448.10385	0.06139
2446.81808	0.06107
2445.53231	0.06064
2444.24654	0.06017
2442.96077	0.05986
2441.67500	0.05988
2440.38923	0.06011
2439.10346	0.06030
2437.81770	0.06026
2436.53193	0.06003
2435.24616	0.05983
2433.96039	0.05981
2432.67462	0.05992
2431.38885	0.06000
2430.10308	0.05999
2428.81731	0.06000
2427.53155	0.06012
2426.24578	0.06026
2424.96001	0.06029
2423.67424	0.06021
2422.38847	0.06015
2421.10270	0.06012
2419.81693	0.06007
2418.53116	0.05992
2417.24539	0.05972
2415.95963	0.05960
2414.67386	0.05958
2413.38809	0.05959
2412.10232	0.05954
2410.81655	0.05936
2409.53078	0.05900
2408.24501	0.05852
2406.95924	0.05808
2405.67347	0.05788
2404.38771	0.05794
2403.10194	0.05816
2401.81617	0.05840
2400.53040	0.05856
2399.24463	0.05857
2397.95886	0.05847
2396.67309	0.05834
2395.38732	0.05824
2394.10156	0.05817
2392.81579	0.05806
2391.53002	0.05789
2390.24425	0.05774
2388.95848	0.05774
2387.67271	0.05794
2386.38694	0.05822
2385.10117	0.05846
2383.81540	0.05862
2382.52964	0.05865
2381.24387	0.05866
2379.95810	0.05850
2378.67233	0.05893
2377.38656	0.05913
2376.10079	0.05793
2374.81502	0.05599
2373.52925	0.05676
2372.24349	0.05983
2370.95772	0.06210
2369.67195	0.06222
2368.38618	0.06125
2367.10041	0.06110
2365.81464	0.06143
2364.52887	0.06180
2363.24310	0.06200
2361.95733	0.06269
2360.67157	0.06481
2359.38580	0.06627
2358.10003	0.06571
2356.81426	0.06338
2355.52849	0.05985
2354.24272	0.05573
2352.95695	0.05295
2351.67118	0.05471
2350.38542	0.05797
2349.09965	0.05848
2347.81388	0.05774
2346.52811	0.05969
2345.24234	0.06143
2343.95657	0.05806
2342.67080	0.05057
2341.38503	0.05225
2340.09926	0.06096
2338.81350	0.06070
2337.52773	0.05271
2336.24196	0.05486
2334.95619	0.06222
2333.67042	0.05977
2332.38465	0.05141
2331.09888	0.05640
2329.81311	0.05944
2328.52735	0.05409
2327.24158	0.05609
2325.95581	0.06079
2324.67004	0.05904
2323.38427	0.05613
2322.09850	0.05798
2320.81273	0.05640
2319.52696	0.05609
2318.24119	0.05723
2316.95543	0.05627
2315.66966	0.05646
2314.38389	0.05649
2313.09812	0.05551
2311.81235	0.05602
2310.52658	0.05552
2309.24081	0.05432
2307.95504	0.05422
2306.66928	0.05401
2305.38351	0.05444
2304.09774	0.05473
2302.81197	0.05459
2301.52620	0.05461
2300.24043	0.05425
2298.95466	0.05382
2297.66889	0.05333
2296.38312	0.05288
2295.09736	0.05251
2293.81159	0.05204
2292.52582	0.05176
2291.24005	0.05155
2289.95428	0.05136
2288.66851	0.05107
2287.38274	0.05063
2286.09697	0.05014
2284.81121	0.04970
2283.52544	0.04942
2282.23967	0.04932
2280.95390	0.04934
2279.66813	0.04928
2278.38236	0.04910
2277.09659	0.04888
2275.81082	0.04866
2274.52505	0.04819
2273.23929	0.04740
2271.95352	0.04654
2270.66775	0.04595
2269.38198	0.04549
2268.09621	0.04488
2266.81044	0.04424
2265.52467	0.04394
2264.23890	0.04393
2262.95314	0.04420
2261.66737	0.04472
2260.38160	0.04511
2259.09583	0.04506
2257.81006	0.04463
2256.52429	0.04408
2255.23852	0.04366
2253.95275	0.04347
2252.66698	0.04333
2251.38122	0.04306
2250.09545	0.04277
2248.80968	0.04262
2247.52391	0.04269
2246.23814	0.04282
2244.95237	0.04291
2243.66660	0.04294
2242.38083	0.04290
2241.09507	0.04278
2239.80930	0.04272
2238.52353	0.04284
2237.23776	0.04298
2235.95199	0.04274
2234.66622	0.04196
2233.38045	0.04098
2232.09468	0.04038
2230.80891	0.04027
2229.52315	0.04026
2228.23738	0.04001
2226.95161	0.03963
2225.66584	0.03930
2224.38007	0.03898
2223.09430	0.03871
2221.80853	0.03867
2220.52276	0.03891
2219.23700	0.03907
2217.95123	0.03881
2216.66546	0.03833
2215.37969	0.03803
2214.09392	0.03803
2212.80815	0.03808
2211.52238	0.03798
2210.23661	0.03773
2208.95084	0.03739
2207.66508	0.03709
2206.37931	0.03705
2205.09354	0.03736
2203.80777	0.03773
2202.52200	0.03760
2201.23623	0.03668
2199.95046	0.03534
2198.66469	0.03432
2197.37893	0.03399
2196.09316	0.03403
2194.80739	0.03390
2193.52162	0.03343
2192.23585	0.03271
2190.95008	0.03179
2189.66431	0.03067
2188.37854	0.02963
2187.09277	0.02910
2185.80701	0.02920
2184.52124	0.02953
2183.23547	0.02969
2181.94970	0.02990
2180.66393	0.03060
2179.37816	0.03178
2178.09239	0.03288
2176.80662	0.03344
2175.52085	0.03347
2174.23509	0.03325
2172.94932	0.03292
2171.66355	0.03245
2170.37778	0.03171
2169.09201	0.03058
2167.80624	0.02897
2166.52047	0.02699
2165.23470	0.02508
2163.94894	0.02372
2162.66317	0.02306
2161.37740	0.02273
2160.09163	0.02246
2158.80586	0.02251
2157.52009	0.02326
2156.23432	0.02453
2154.94855	0.02582
2153.66278	0.02687
2152.37702	0.02776
2151.09125	0.02854
2149.80548	0.02918
2148.51971	0.02969
2147.23394	0.03012
2145.94817	0.03037
2144.66240	0.03044
2143.37663	0.03049
2142.09087	0.03067
2140.80510	0.03093
2139.51933	0.03112
2138.23356	0.03119
2136.94779	0.03125
2135.66202	0.03146
2134.37625	0.03190
2133.09048	0.03254
2131.80471	0.03331
2130.51895	0.03413
2129.23318	0.03490
2127.94741	0.03554
2126.66164	0.03607
2125.37587	0.03664
2124.09010	0.03718
2122.80433	0.03741
2121.51856	0.03721
2120.23280	0.03686
2118.94703	0.03677
2117.66126	0.03707
2116.37549	0.03752
2115.08972	0.03772
2113.80395	0.03750
2112.51818	0.03697
2111.23241	0.03637
2109.94664	0.03592
2108.66088	0.03585
2107.37511	0.03625
2106.08934	0.03689
2104.80357	0.03732
2103.51780	0.03729
2102.23203	0.03701
2100.94626	0.03680
2099.66049	0.03651
2098.37473	0.03626
2097.08896	0.03600
2095.80319	0.03573
2094.51742	0.03562
2093.23165	0.03580
2091.94588	0.03616
2090.66011	0.03645
2089.37434	0.03644
2088.08857	0.03619
2086.80281	0.03592
2085.51704	0.03574
2084.23127	0.03558
2082.94550	0.03537
2081.65973	0.03515
2080.37396	0.03496
2079.08819	0.03476
2077.80242	0.03441
2076.51666	0.03388
2075.23089	0.03331
2073.94512	0.03293
2072.65935	0.03276
2071.37358	0.03261
2070.08781	0.03230
2068.80204	0.03199
2067.51627	0.03201
2066.23050	0.03252
2064.94474	0.03325
2063.65897	0.03366
2062.37320	0.03335
2061.08743	0.03237
2059.80166	0.03116
2058.51589	0.03011
2057.23012	0.02937
2055.94435	0.02880
2054.65859	0.02823
2053.37282	0.02768
2052.08705	0.02731
2050.80128	0.02717
2049.51551	0.02707
2048.22974	0.02675
2046.94397	0.02626
2045.65820	0.02591
2044.37243	0.02591
2043.08667	0.02606
2041.80090	0.02596
2040.51513	0.02538
2039.22936	0.02437
2037.94359	0.02326
2036.65782	0.02256
2035.37205	0.02269
2034.08628	0.02354
2032.80052	0.02451
2031.51475	0.02503
2030.22898	0.02506
2028.94321	0.02501
2027.65744	0.02516
2026.37167	0.02550
2025.08590	0.02592
2023.80013	0.02629
2022.51436	0.02636
2021.22860	0.02592
2019.94283	0.02513
2018.65706	0.02453
2017.37129	0.02442
2016.08552	0.02453
2014.79975	0.02442
2013.51398	0.02406
2012.22821	0.02375
2010.94245	0.02365
2009.65668	0.02363
2008.37091	0.02357
2007.08514	0.02357
2005.79937	0.02379
2004.51360	0.02430
2003.22783	0.02498
2001.94206	0.02551
2000.65629	0.02561
1999.37053	0.02530
1998.08476	0.02502
1996.79899	0.02525
1995.51322	0.02607
1994.22745	0.02702
1992.94168	0.02742
1991.65591	0.02699
1990.37014	0.02611
1989.08438	0.02551
1987.79861	0.02553
1986.51284	0.02590
1985.22707	0.02620
1983.94130	0.02636
1982.65553	0.02644
1981.36976	0.02627
1980.08399	0.02555
1978.79822	0.02432
1977.51246	0.02321
1976.22669	0.02288
1974.94092	0.02348
1973.65515	0.02457
1972.36938	0.02561
1971.08361	0.02627
1969.79784	0.02647
1968.51207	0.02624
1967.22631	0.02568
1965.94054	0.02512
1964.65477	0.02493
1963.36900	0.02530
1962.08323	0.02597
1960.79746	0.02652
1959.51169	0.02671
1958.22592	0.02667
1956.94015	0.02670
1955.65439	0.02689
1954.36862	0.02704
1953.08285	0.02692
1951.79708	0.02659
1950.51131	0.02636
1949.22554	0.02647
1947.93977	0.02687
1946.65400	0.02734
1945.36823	0.02769
1944.08247	0.02798
1942.79670	0.02829
1941.51093	0.02862
1940.22516	0.02877
1938.93939	0.02861
1937.65362	0.02822
1936.36785	0.02785
1935.08208	0.02772
1933.79632	0.02788
1932.51055	0.02824
1931.22478	0.02873
1929.93901	0.02926
1928.65324	0.02977
1927.36747	0.03022
1926.08170	0.03057
1924.79593	0.03080
1923.51016	0.03093
1922.22440	0.03100
1920.93863	0.03104
1919.65286	0.03103
1918.36709	0.03098
1917.08132	0.03090
1915.79555	0.03084
1914.50978	0.03084
1913.22401	0.03085
1911.93825	0.03083
1910.65248	0.03076
1909.36671	0.03060
1908.08094	0.03038
1906.79517	0.03014
1905.50940	0.03000
1904.22363	0.03004
1902.93786	0.03020
1901.65209	0.03036
1900.36633	0.03039
1899.08056	0.03033
1897.79479	0.03031
1896.50902	0.03044
1895.22325	0.03069
1893.93748	0.03097
1892.65171	0.03122
1891.36594	0.03137
1890.08018	0.03135
1888.79441	0.03118
1887.50864	0.03098
1886.22287	0.03090
1884.93710	0.03097
1883.65133	0.03107
1882.36556	0.03105
1881.07979	0.03084
1879.79402	0.03053
1878.50826	0.03029
1877.22249	0.03025
1875.93672	0.03039
1874.65095	0.03066
1873.36518	0.03101
1872.07941	0.03140
1870.79364	0.03171
1869.50787	0.03179
1868.22211	0.03157
1866.93634	0.03114
1865.65057	0.03070
1864.36480	0.03034
1863.07903	0.03006
1861.79326	0.02985
1860.50749	0.02971
1859.22172	0.02959
1857.93595	0.02948
1856.65019	0.02945
1855.36442	0.02961
1854.07865	0.02994
1852.79288	0.03023
1851.50711	0.03030
1850.22134	0.03017
1848.93557	0.02997
1847.64980	0.02984
1846.36404	0.02985
1845.07827	0.02991
1843.79250	0.02992
1842.50673	0.02987
1841.22096	0.02985
1839.93519	0.02995
1838.64942	0.03006
1837.36365	0.03007
1836.07788	0.02993
1834.79212	0.02973
1833.50635	0.02959
1832.22058	0.02958
1830.93481	0.02968
1829.64904	0.02980
1828.36327	0.02987
1827.07750	0.02991
1825.79173	0.02989
1824.50597	0.02978
1823.22020	0.02958
1821.93443	0.02938
1820.64866	0.02925
1819.36289	0.02921
1818.07712	0.02926
1816.79135	0.02935
1815.50558	0.02945
1814.21981	0.02950
1812.93405	0.02950
1811.64828	0.02945
1810.36251	0.02943
1809.07674	0.02948
1807.79097	0.02955
1806.50520	0.02954
1805.21943	0.02942
1803.93366	0.02927
1802.64790	0.02924
1801.36213	0.02932
1800.07636	0.02939
1798.79059	0.02931
1797.50482	0.02908
1796.21905	0.02883
1794.93328	0.02874
1793.64751	0.02886
1792.36174	0.02909
1791.07598	0.02923
1789.79021	0.02920
1788.50444	0.02904
1787.21867	0.02885
1785.93290	0.02874
1784.64713	0.02874
1783.36136	0.02879
1782.07559	0.02885
1780.78983	0.02887
1779.50406	0.02885
1778.21829	0.02881
1776.93252	0.02877
1775.64675	0.02877
1774.36098	0.02882
1773.07521	0.02886
1771.78944	0.02885
1770.50367	0.02887
1769.21791	0.02900
1767.93214	0.02916
1766.64637	0.02925
1765.36060	0.02927
1764.07483	0.02931
1762.78906	0.02938
1761.50329	0.02944
1760.21752	0.02952
1758.93176	0.02974
1757.64599	0.03013
1756.36022	0.03061
1755.07445	0.03110
1753.78868	0.03163
1752.50291	0.03220
1751.21714	0.03274
1749.93137	0.03322
1748.64560	0.03372
1747.35984	0.03428
1746.07407	0.03492
1744.78830	0.03559
1743.50253	0.03632
1742.21676	0.03714
1740.93099	0.03804
1739.64522	0.03893
1738.35945	0.03975
1737.07369	0.04058
1735.78792	0.04150
1734.50215	0.04239
1733.21638	0.04309
1731.93061	0.04367
1730.64484	0.04427
1729.35907	0.04490
1728.07330	0.04548
1726.78753	0.04603
1725.50177	0.04665
1724.21600	0.04730
1722.93023	0.04790
1721.64446	0.04845
1720.35869	0.04909
1719.07292	0.04987
1717.78715	0.05063
1716.50138	0.05121
1715.21561	0.05166
1713.92985	0.05220
1712.64408	0.05297
1711.35831	0.05404
1710.07254	0.05534
1708.78677	0.05682
1707.50100	0.05842
1706.21523	0.06010
1704.92946	0.06184
1703.64370	0.06375
1702.35793	0.06603
1701.07216	0.06863
1699.78639	0.07133
1698.50062	0.07413
1697.21485	0.07724
1695.92908	0.08056
1694.64331	0.08380
1693.35754	0.08691
1692.07178	0.09009
1690.78601	0.09338
1689.50024	0.09671
1688.21447	0.10009
1686.92870	0.10372
1685.64293	0.10764
1684.35716	0.11163
1683.07139	0.11550
1681.78563	0.11936
1680.49986	0.12340
1679.21409	0.12766
1677.92832	0.13214
1676.64255	0.13681
1675.35678	0.14158
1674.07101	0.14632
1672.78524	0.15109
1671.49947	0.15602
1670.21371	0.16106
1668.92794	0.16607
1667.64217	0.17092
1666.35640	0.17569
1665.07063	0.18052
1663.78486	0.18541
1662.49909	0.19019
1661.21332	0.19473
1659.92756	0.19897
1658.64179	0.20290
1657.35602	0.20659
1656.07025	0.21022
1654.78448	0.21396
1653.49871	0.21755
1652.21294	0.22055
1650.92717	0.22289
1649.64140	0.22491
1648.35564	0.22689
1647.06987	0.22877
1645.78410	0.23039
1644.49833	0.23175
1643.21256	0.23298
1641.92679	0.23418
1640.64102	0.23533
1639.35525	0.23640
1638.06949	0.23743
1636.78372	0.23838
1635.49795	0.23910
1634.21218	0.23942
1632.92641	0.23937
1631.64064	0.23901
1630.35487	0.23832
1629.06910	0.23717
1627.78333	0.23546
1626.49757	0.23314
1625.21180	0.23025
1623.92603	0.22688
1622.64026	0.22302
1621.35449	0.21875
1620.06872	0.21416
1618.78295	0.20938
1617.49718	0.20443
1616.21142	0.19922
1614.92565	0.19381
1613.63988	0.18834
1612.35411	0.18294
1611.06834	0.17761
1609.78257	0.17237
1608.49680	0.16724
1607.21103	0.16224
1605.92526	0.15741
1604.63950	0.15277
1603.35373	0.14836
1602.06796	0.14418
1600.78219	0.14027
1599.49642	0.13663
1598.21065	0.13329
1596.92488	0.13023
1595.63911	0.12743
1594.35335	0.12484
1593.06758	0.12246
1591.78181	0.12029
1590.49604	0.11840
1589.21027	0.11679
1587.92450	0.11546
1586.63873	0.11440
1585.35296	0.11361
1584.06719	0.11306
1582.78143	0.11275
1581.49566	0.11264
1580.20989	0.11277
1578.92412	0.11326
1577.63835	0.11417
1576.35258	0.11538
1575.06681	0.11673
1573.78104	0.11823
1572.49528	0.12002
1571.20951	0.12211
1569.92374	0.12439
1568.63797	0.12679
1567.35220	0.12932
1566.06643	0.13203
1564.78066	0.13486
1563.49489	0.13776
1562.20912	0.14085
1560.92336	0.14421
1559.63759	0.14768
1558.35182	0.15096
1557.06605	0.15398
1555.78028	0.15692
1554.49451	0.15990
1553.20874	0.16283
1551.92297	0.16566
1550.63721	0.16837
1549.35144	0.17090
1548.06567	0.17321
1546.77990	0.17533
1545.49413	0.17726
1544.20836	0.17901
1542.92259	0.18060
1541.63682	0.18207
1540.35105	0.18336
1539.06529	0.18431
1537.77952	0.18489
1536.49375	0.18533
1535.20798	0.18580
1533.92221	0.18623
1532.63644	0.18646
1531.35067	0.18642
1530.06490	0.18619
1528.77914	0.18587
1527.49337	0.18548
1526.20760	0.18500
1524.92183	0.18441
1523.63606	0.18380
1522.35029	0.18320
1521.06452	0.18254
1519.77875	0.18178
1518.49298	0.18096
1517.20722	0.17999
1515.92145	0.17868
1514.63568	0.17691
1513.34991	0.17476
1512.06414	0.17232
1510.77837	0.16965
1509.49260	0.16683
1508.20683	0.16388
1506.92107	0.16072
1505.63530	0.15727
1504.34953	0.15364
1503.06376	0.15010
1501.77799	0.14675
1500.49222	0.14352
1499.20645	0.14032
1497.92068	0.13709
1496.63491	0.13377
1495.34915	0.13033
1494.06338	0.12686
1492.77761	0.12353
1491.49184	0.12040
1490.20607	0.11742
1488.92030	0.11463
1487.63453	0.11207
1486.34876	0.10980
1485.06299	0.10779
1483.77723	0.10604
1482.49146	0.10456
1481.20569	0.10341
1479.91992	0.10265
1478.63415	0.10231
1477.34838	0.10237
1476.06261	0.10278
1474.77684	0.10353
1473.49108	0.10462
1472.20531	0.10592
1470.91954	0.10730
1469.63377	0.10866
1468.34800	0.10995
1467.06223	0.11117
1465.77646	0.11232
1464.49069	0.11346
1463.20492	0.11460
1461.91916	0.11579
1460.63339	0.11706
1459.34762	0.11849
1458.06185	0.12002
1456.77608	0.12145
1455.49031	0.12257
1454.20454	0.12341
1452.91877	0.12405
1451.63301	0.12453
1450.34724	0.12482
1449.06147	0.12492
1447.77570	0.12483
1446.48993	0.12455
1445.20416	0.12411
1443.91839	0.12355
1442.63262	0.12287
1441.34685	0.12206
1440.06109	0.12115
1438.77532	0.12016
1437.48955	0.11904
1436.20378	0.11771
1434.91801	0.11622
1433.63224	0.11472
1432.34647	0.11334
1431.06070	0.11210
1429.77494	0.11099
1428.48917	0.11000
1427.20340	0.10919
1425.91763	0.10860
1424.63186	0.10821
1423.34609	0.10796
1422.06032	0.10786
1420.77455	0.10791
1419.48878	0.10803
1418.20302	0.10810
1416.91725	0.10810
1415.63148	0.10811
1414.34571	0.10817
1413.05994	0.10827
1411.77417	0.10835
1410.48840	0.10840
1409.20263	0.10840
1407.91687	0.10837
1406.63110	0.10833
1405.34533	0.10828
1404.05956	0.10817
1402.77379	0.10797
1401.48802	0.10772
1400.20225	0.10743
1398.91648	0.10709
1397.63071	0.10675
1396.34495	0.10645
1395.05918	0.10624
1393.77341	0.10605
1392.48764	0.10587
1391.20187	0.10576
1389.91610	0.10575
1388.63033	0.10581
1387.34456	0.10585
1386.05880	0.10581
1384.77303	0.10570
1383.48726	0.10552
1382.20149	0.10530
1380.91572	0.10503
1379.62995	0.10473
1378.34418	0.10440
1377.05841	0.10400
1375.77264	0.10353
1374.48688	0.10299
1373.20111	0.10237
1371.91534	0.10169
1370.62957	0.10099
1369.34380	0.10026
1368.05803	0.09948
1366.77226	0.09861
1365.48649	0.09769
1364.20073	0.09677
1362.91496	0.09587
1361.62919	0.09504
1360.34342	0.09430
1359.05765	0.09372
1357.77188	0.09331
1356.48611	0.09304
1355.20034	0.09291
1353.91457	0.09295
1352.62881	0.09311
1351.34304	0.09336
1350.05727	0.09366
1348.77150	0.09399
1347.48573	0.09436
1346.19996	0.09478
1344.91419	0.09526
1343.62842	0.09577
1342.34266	0.09628
1341.05689	0.09675
1339.77112	0.09714
1338.48535	0.09737
1337.19958	0.09744
1335.91381	0.09735
1334.62804	0.09712
1333.34227	0.09678
1332.05650	0.09634
1330.77074	0.09583
1329.48497	0.09526
1328.19920	0.09466
1326.91343	0.09407
1325.62766	0.09353
1324.34189	0.09310
1323.05612	0.09278
1321.77035	0.09254
1320.48459	0.09235
1319.19882	0.09215
1317.91305	0.09195
1316.62728	0.09175
1315.34151	0.09160
1314.05574	0.09147
1312.76997	0.09134
1311.48420	0.09117
1310.19843	0.09096
1308.91267	0.09070
1307.62690	0.09042
1306.34113	0.09017
1305.05536	0.09002
1303.76959	0.08996
1302.48382	0.08995
1301.19805	0.08995
1299.91228	0.08995
1298.62652	0.08995
1297.34075	0.08995
1296.05498	0.08999
1294.76921	0.09010
1293.48344	0.09030
1292.19767	0.09062
1290.91190	0.09102
1289.62613	0.09148
1288.34036	0.09198
1287.05460	0.09249
1285.76883	0.09300
1284.48306	0.09352
1283.19729	0.09403
1281.91152	0.09448
1280.62575	0.09483
1279.33998	0.09508
1278.05421	0.09528
1276.76845	0.09546
1275.48268	0.09566
1274.19691	0.09585
1272.91114	0.09604
1271.62537	0.09624
1270.33960	0.09650
1269.05383	0.09683
1267.76806	0.09726
1266.48229	0.09777
1265.19653	0.09837
1263.91076	0.09902
1262.62499	0.09971
1261.33922	0.10044
1260.05345	0.10116
1258.76768	0.10186
1257.48191	0.10254
1256.19614	0.10325
1254.91037	0.10403
1253.62461	0.10486
1252.33884	0.10572
1251.05307	0.10659
1249.76730	0.10750
1248.48153	0.10851
1247.19576	0.10960
1245.90999	0.11075
1244.62422	0.11192
1243.33846	0.11306
1242.05269	0.11414
1240.76692	0.11509
1239.48115	0.11585
1238.19538	0.11642
1236.90961	0.11684
1235.62384	0.11718
1234.33807	0.11746
1233.05230	0.11765
1231.76654	0.11766
1230.48077	0.11747
1229.19500	0.11708
1227.90923	0.11650
1226.62346	0.11578
1225.33769	0.11495
1224.05192	0.11405
1222.76615	0.11312
1221.48039	0.11216
1220.19462	0.11120
1218.90885	0.11024
1217.62308	0.10927
1216.33731	0.10834
1215.05154	0.10752
1213.76577	0.10686
1212.48000	0.10638
1211.19423	0.10601
1209.90847	0.10573
1208.62270	0.10551
1207.33693	0.10535
1206.05116	0.10525
1204.76539	0.10514
1203.47962	0.10495
1202.19385	0.10462
1200.90808	0.10410
1199.62232	0.10343
1198.33655	0.10259
1197.05078	0.10170
1195.76501	0.10082
1194.47924	0.09997
1193.19347	0.09917
1191.90770	0.09843
1190.62193	0.09773
1189.33616	0.09708
1188.05040	0.09649
1186.76463	0.09598
1185.47886	0.09555
1184.19309	0.09518
1182.90732	0.09484
1181.62155	0.09454
1180.33578	0.09431
1179.05001	0.09415
1177.76425	0.09406
1176.47848	0.09401
1175.19271	0.09396
1173.90694	0.09394
1172.62117	0.09397
1171.33540	0.09402
1170.04963	0.09405
1168.76386	0.09400
1167.47809	0.09390
1166.19233	0.09379
1164.90656	0.09367
1163.62079	0.09352
1162.33502	0.09332
1161.04925	0.09313
1159.76348	0.09293
1158.47771	0.09269
1157.19194	0.09232
1155.90618	0.09181
1154.62041	0.09122
1153.33464	0.09059
1152.04887	0.08994
1150.76310	0.08925
1149.47733	0.08853
1148.19156	0.08778
1146.90579	0.08704
1145.62002	0.08632
1144.33426	0.08564
1143.04849	0.08501
1141.76272	0.08437
1140.47695	0.08371
1139.19118	0.08308
1137.90541	0.08252
1136.61964	0.08210
1135.33387	0.08180
1134.04811	0.08162
1132.76234	0.08149
1131.47657	0.08136
1130.19080	0.08116
1128.90503	0.08089
1127.61926	0.08057
1126.33349	0.08026
1125.04772	0.07998
1123.76195	0.07978
1122.47619	0.07965
1121.19042	0.07961
1119.90465	0.07961
1118.61888	0.07961
1117.33311	0.07959
1116.04734	0.07957
1114.76157	0.07958
1113.47580	0.07963
1112.19004	0.07973
1110.90427	0.07990
1109.61850	0.08013
1108.33273	0.08040
1107.04696	0.08068
1105.76119	0.08096
1104.47542	0.08128
1103.18965	0.08167
1101.90388	0.08211
1100.61812	0.08258
1099.33235	0.08307
1098.04658	0.08357
1096.76081	0.08407
1095.47504	0.08454
1094.18927	0.08500
1092.90350	0.08549
1091.61773	0.08603
1090.33197	0.08668
1089.04620	0.08748
1087.76043	0.08847
1086.47466	0.08960
1085.18889	0.09076
1083.90312	0.09183
1082.61735	0.09273
1081.33158	0.09347
1080.04581	0.09406
1078.76005	0.09445
1077.47428	0.09462
1076.18851	0.09460
1074.90274	0.09453
1073.61697	0.09449
1072.33120	0.09449
1071.04543	0.09453
1069.75966	0.09460
1068.47390	0.09471
1067.18813	0.09484
1065.90236	0.09492
1064.61659	0.09495
1063.33082	0.09496
1062.04505	0.09494
1060.75928	0.09489
1059.47351	0.09482
1058.18774	0.09474
1056.90198	0.09462
1055.61621	0.09444
1054.33044	0.09421
1053.04467	0.09397
1051.75890	0.09369
1050.47313	0.09333
1049.18736	0.09292
1047.90159	0.09256
1046.61583	0.09230
1045.33006	0.09215
1044.04429	0.09201
1042.75852	0.09184
1041.47275	0.09166
1040.18698	0.09150
1038.90121	0.09140
1037.61544	0.09134
1036.32967	0.09126
1035.04391	0.09114
1033.75814	0.09103
1032.47237	0.09093
1031.18660	0.09078
1029.90083	0.09047
1028.61506	0.08997
1027.32929	0.08929
1026.04352	0.08848
1024.75775	0.08761
1023.47199	0.08672
1022.18622	0.08586
1020.90045	0.08505
1019.61468	0.08427
1018.32891	0.08357
1017.04314	0.08296
1015.75737	0.08239
1014.47160	0.08181
1013.18584	0.08119
1011.90007	0.08053
1010.61430	0.07983
1009.32853	0.07910
1008.04276	0.07837
1006.75699	0.07764
1005.47122	0.07690
1004.18545	0.07615
1002.89968	0.07538
1001.61392	0.07464
1000.32815	0.07396
999.04238	0.07334
997.75661	0.07278
996.47084	0.07225
995.18507	0.07173
993.89930	0.07117
992.61353	0.07058
991.32777	0.06996
990.04200	0.06931
988.75623	0.06864
987.47046	0.06802
986.18469	0.06755
984.89892	0.06725
983.61315	0.06700
982.32738	0.06668
981.04161	0.06628
979.75585	0.06597
978.47008	0.06583
977.18431	0.06583
975.89854	0.06582
974.61277	0.06575
973.32700	0.06563
972.04123	0.06546
970.75546	0.06524
969.46970	0.06498
968.18393	0.06468
966.89816	0.06435
965.61239	0.06399
964.32662	0.06366
963.04085	0.06341
961.75508	0.06325
960.46931	0.06312
959.18354	0.06293
957.89778	0.06266
956.61201	0.06235
955.32624	0.06206
954.04047	0.06182
952.75470	0.06162
951.46893	0.06142
950.18316	0.06122
948.89739	0.06104
947.61163	0.06090
946.32586	0.06077
945.04009	0.06062
943.75432	0.06049
942.46855	0.06043
941.18278	0.06043
939.89701	0.06043
938.61124	0.06035
937.32547	0.06015
936.03971	0.05989
934.75394	0.05965
933.46817	0.05950
932.18240	0.05943
930.89663	0.05937
929.61086	0.05924
928.32509	0.05903
927.03932	0.05881
925.75356	0.05864
924.46779	0.05854
923.18202	0.05847
921.89625	0.05834
920.61048	0.05810
919.32471	0.05778
918.03894	0.05743
916.75317	0.05708
915.46740	0.05673
914.18164	0.05636
912.89587	0.05595
911.61010	0.05555
910.32433	0.05519
909.03856	0.05490
907.75279	0.05467
906.46702	0.05445
905.18125	0.05422
903.89549	0.05396
902.60972	0.05369
901.32395	0.05344
900.03818	0.05321
898.75241	0.05300
897.46664	0.05277
896.18087	0.05250
894.89510	0.05217
893.60933	0.05186
892.32357	0.05163
891.03780	0.05152
889.75203	0.05146
888.46626	0.05136
887.18049	0.05116
885.89472	0.05093
884.60895	0.05077
883.32318	0.05072
882.03742	0.05073
880.75165	0.05071
879.46588	0.05062
878.18011	0.05050
876.89434	0.05040
875.60857	0.05032
874.32280	0.05024
873.03703	0.05014
871.75126	0.05002
870.46550	0.04990
869.17973	0.04978
867.89396	0.04966
866.60819	0.04954
865.32242	0.04944
864.03665	0.04939
862.75088	0.04932
861.46511	0.04917
860.17935	0.04894
858.89358	0.04870
857.60781	0.04852
856.32204	0.04842
855.03627	0.04839
853.75050	0.04838
852.46473	0.04838
851.17896	0.04837
849.89319	0.04834
848.60743	0.04825
847.32166	0.04810
846.03589	0.04793
844.75012	0.04779
843.46435	0.04769
842.17858	0.04760
840.89281	0.04754
839.60704	0.04750
838.32128	0.04750
837.03551	0.04755
835.74974	0.04764
834.46397	0.04773
833.17820	0.04782
831.89243	0.04790
830.60666	0.04795
829.32089	0.04798
828.03512	0.04801
826.74936	0.04807
825.46359	0.04815
824.17782	0.04822
822.89205	0.04824
821.60628	0.04827
820.32051	0.04836
819.03474	0.04853
817.74897	0.04873
816.46321	0.04890
815.17744	0.04902
813.89167	0.04910
812.60590	0.04919
811.32013	0.04933
810.03436	0.04952
808.74859	0.04976
807.46282	0.04997
806.17705	0.05010
804.89129	0.05014
803.60552	0.05013
802.31975	0.05016
801.03398	0.05027
799.74821	0.05038
798.46244	0.05046
797.17667	0.05049
795.89090	0.05054
794.60513	0.05065
793.31937	0.05082
792.03360	0.05105
790.74783	0.05135
789.46206	0.05165
788.17629	0.05186
786.89052	0.05194
785.60475	0.05196
784.31898	0.05201
783.03322	0.05210
781.74745	0.05217
780.46168	0.05221
779.17591	0.05225
777.89014	0.05234
776.60437	0.05247
775.31860	0.05266
774.03283	0.05290
772.74706	0.05319
771.46130	0.05347
770.17553	0.05370
768.88976	0.05386
767.60399	0.05403
766.31822	0.05428
765.03245	0.05462
763.74668	0.05497
762.46091	0.05524
761.17515	0.05543
759.88938	0.05561
758.60361	0.05581
757.31784	0.05602
756.03207	0.05620
754.74630	0.05632
753.46053	0.05640
752.17476	0.05652
750.88899	0.05674
749.60323	0.05707
748.31746	0.05749
747.03169	0.05795
745.74592	0.05840
744.46015	0.05877
743.17438	0.05902
741.88861	0.05908
740.60284	0.05894
739.31708	0.05872
738.03131	0.05861
736.74554	0.05875
735.45977	0.05909
734.17400	0.05949
732.88823	0.05984
731.60246	0.06013
730.31669	0.06042
729.03092	0.06080
727.74516	0.06122
726.45939	0.06161
725.17362	0.06190
723.88785	0.06212
722.60208	0.06234
721.31631	0.06257
720.03054	0.06279
718.74477	0.06302
717.45901	0.06325
716.17324	0.06342
714.88747	0.06352
713.60170	0.06360
712.31593	0.06378
711.03016	0.06410
709.74439	0.06450
708.45862	0.06492
707.17285	0.06533
705.88709	0.06575
704.60132	0.06616
703.31555	0.06653
702.02978	0.06687
700.74401	0.06715
699.45824	0.06734
698.17247	0.06742
696.88670	0.06745
695.60094	0.06755
694.31517	0.06765
693.02940	0.06768
691.74363	0.06757
690.45786	0.06744
689.17209	0.06749
687.88632	0.06767
686.60055	0.06781
685.31478	0.06786
684.02902	0.06791
682.74325	0.06814
681.45748	0.06844
680.17171	0.06868
678.88594	0.06884
677.60017	0.06900
676.31440	0.06934
675.02863	0.06965
673.74287	0.06980
672.45710	0.06984
671.17133	0.06992
669.88556	0.07020
668.59979	0.07038
667.31402	0.07022
666.02825	0.07059
664.74248	0.07087
663.45671	0.07106
662.17095	0.07118
660.88518	0.07121
659.59941	0.07125
658.31364	0.07142
657.02787	0.07170
655.74210	0.07190
654.45633	0.07198
653.17056	0.07196
651.88480	0.07197
650.59903	0.07210
649.31326	0.07230
648.02749	0.07241
646.74172	0.07240
645.45595	0.07235
644.17018	0.07235
642.88441	0.07245
641.59864	0.07259
640.31288	0.07270
639.02711	0.07272
637.74134	0.07274
636.45557	0.07280
635.16980	0.07292
633.88403	0.07306
632.59826	0.07314
631.31249	0.07306
630.02673	0.07269
628.74096	0.07212
627.45519	0.07181
626.16942	0.07092
624.88365	0.06950
623.59788	0.06808
622.31211	0.06734
621.02634	0.06786
619.74057	0.06960
618.45481	0.07208
617.16904	0.07465
615.88327	0.07666
614.59750	0.07763
613.31173	0.07741
612.02596	0.07605
610.74019	0.07390
609.45442	0.07180
608.16866	0.07078
606.88289	0.07123
605.59712	0.07265
604.31135	0.07418
603.02558	0.07516
601.73981	0.07546
600.45404	0.07536
599.16827	0.07515
597.88250	0.07498
596.59674	0.07489
595.31097	0.07490
594.02520	0.07499
592.73943	0.07508
591.45366	0.07512
590.16789	0.07514
588.88212	0.07515
587.59635	0.07515
586.31059	0.07510
585.02482	0.07502
583.73905	0.07496
582.45328	0.07500
581.16751	0.07513
579.88174	0.07533
578.59597	0.07552
577.31020	0.07567
576.02443	0.07572
574.73867	0.07567
573.45290	0.07558
572.16713	0.07553
570.88136	0.07558
569.59559	0.07571
568.30982	0.07588
567.02405	0.07605
565.73828	0.07622
564.45251	0.07635
563.16675	0.07641
561.88098	0.07634
560.59521	0.07613
559.30944	0.07587
558.02367	0.07565
556.73790	0.07558
555.45213	0.07569
554.16636	0.07593
552.88060	0.07619
551.59483	0.07639
550.30906	0.07650
549.02329	0.07657
547.73752	0.07661
546.45175	0.07661
545.16598	0.07651
543.88021	0.07629
542.59444	0.07605
541.30868	0.07588
540.02291	0.07582
538.73714	0.07590
537.45137	0.07613
536.16560	0.07647
534.87983	0.07678
533.59406	0.07688
532.30829	0.07671
531.02253	0.07645
529.73676	0.07631
528.45099	0.07640
527.16522	0.07658
525.87945	0.07663
524.59368	0.07648
523.30791	0.07619
522.02214	0.07592
520.73637	0.07569
519.45061	0.07547
518.16484	0.07522
516.87907	0.07496
515.59330	0.07482
514.30753	0.07486
513.02176	0.07504
511.73599	0.07524
510.45022	0.07527
509.16446	0.07505
507.87869	0.07463
506.59292	0.07416
505.30715	0.07379
504.02138	0.07351
502.73561	0.07322
501.44984	0.07282
500.16407	0.07238
498.87830	0.07199
497.59254	0.07168
496.30677	0.07139
495.02100	0.07106
493.73523	0.07065
492.44946	0.07019
491.16369	0.06970
489.87792	0.06925
488.59215	0.06887
487.30639	0.06859
486.02062	0.06840
484.73485	0.06826
483.44908	0.06813
482.16331	0.06801
480.87754	0.06786
479.59177	0.06769
478.30600	0.06750
477.02023	0.06731
475.73447	0.06713
474.44870	0.06699
473.16293	0.06681
471.87716	0.06649
470.59139	0.06604
469.30562	0.06556
468.01985	0.06524
466.73408	0.06509
465.44832	0.06502
464.16255	0.06488
462.87678	0.06460
461.59101	0.06422
460.30524	0.06383
459.01947	0.06350
457.73370	0.06325
456.44793	0.06307
455.16216	0.06291
453.87640	0.06267
452.59063	0.06231
451.30486	0.06187
450.01909	0.06143
448.73332	0.06103
447.44755	0.06063
446.16178	0.06022
444.87601	0.05984
443.59025	0.05953
442.30448	0.05929
441.01871	0.05908
439.73294	0.05887
438.44717	0.05863
437.16140	0.05838
435.87563	0.05812
434.58986	0.05788
433.30409	0.05769
432.01833	0.05754
430.73256	0.05742
429.44679	0.05731
428.16102	0.05720
426.87525	0.05705
425.58948	0.05683
424.30371	0.05654
423.01794	0.05621
421.73218	0.05590
420.44641	0.05564
419.16064	0.05544
417.87487	0.05524
416.58910	0.05502
415.30333	0.05477
414.01756	0.05452
412.73179	0.05430
411.44602	0.05410
410.16026	0.05387
408.87449	0.05354
407.58872	0.05316
406.30295	0.05282
405.01718	0.05260
403.73141	0.05250
402.44564	0.05247
401.15987	0.05244
399.87411	0.05239
