3997.45528	0.02039
3996.16951	0.02045
3994.88374	0.02065
3993.59798	0.02112
3992.31221	0.02166
3991.02644	0.02189
3989.74067	0.02155
3988.45490	0.02081
3987.16913	0.02019
3985.88336	0.02007
3984.59759	0.02041
3983.31183	0.02084
3982.02606	0.02102
3980.74029	0.02087
3979.45452	0.02054
3978.16875	0.02019
3976.88298	0.01999
3975.59721	0.02007
3974.31144	0.02051
3973.02567	0.02113
3971.73991	0.02161
3970.45414	0.02169
3969.16837	0.02135
3967.88260	0.02078
3966.59683	0.02024
3965.31106	0.01998
3964.02529	0.02013
3962.73952	0.02057
3961.45376	0.02100
3960.16799	0.02116
3958.88222	0.02100
3957.59645	0.02060
3956.31068	0.02010
3955.02491	0.01968
3953.73914	0.01949
3952.45337	0.01965
3951.16760	0.02014
3949.88184	0.02076
3948.59607	0.02116
3947.31030	0.02108
3946.02453	0.02065
3944.73876	0.02022
3943.45299	0.02004
3942.16722	0.01999
3940.88145	0.01985
3939.59569	0.01952
3938.30992	0.01917
3937.02415	0.01904
3935.73838	0.01922
3934.45261	0.01948
3933.16684	0.01937
3931.88107	0.01877
3930.59530	0.01806
3929.30953	0.01779
3928.02377	0.01809
3926.73800	0.01869
3925.45223	0.01925
3924.16646	0.01956
3922.88069	0.01959
3921.59492	0.01936
3920.30915	0.01900
3919.02338	0.01881
3917.73762	0.01900
3916.45185	0.01942
3915.16608	0.01972
3913.88031	0.01982
3912.59454	0.01984
3911.30877	0.01986
3910.02300	0.01982
3908.73723	0.01963
3907.45146	0.01944
3906.16570	0.01948
3904.87993	0.01970
3903.59416	0.01984
3902.30839	0.01978
3901.02262	0.01962
3899.73685	0.01949
3898.45108	0.01932
3897.16531	0.01905
3895.87955	0.01880
3894.59378	0.01881
3893.30801	0.01911
3892.02224	0.01931
3890.73647	0.01884
3889.45070	0.01779
3888.16493	0.01701
3886.87916	0.01708
3885.59339	0.01759
3884.30763	0.01791
3883.02186	0.01794
3881.73609	0.01796
3880.45032	0.01809
3879.16455	0.01826
3877.87878	0.01852
3876.59301	0.01892
3875.30724	0.01922
3874.02148	0.01910
3872.73571	0.01870
3871.44994	0.01847
3870.16417	0.01845
3868.87840	0.01837
3867.59263	0.01827
3866.30686	0.01839
3865.02109	0.01862
3863.73532	0.01866
3862.44956	0.01842
3861.16379	0.01788
3859.87802	0.01703
3858.59225	0.01596
3857.30648	0.01509
3856.02071	0.01499
3854.73494	0.01578
3853.44917	0.01678
3852.16341	0.01735
3850.87764	0.01749
3849.59187	0.01746
3848.30610	0.01743
3847.02033	0.01748
3845.73456	0.01757
3844.44879	0.01764
3843.16302	0.01752
3841.87725	0.01720
3840.59149	0.01696
3839.30572	0.01705
3838.01995	0.01727
3836.73418	0.01722
3835.44841	0.01688
3834.16264	0.01660
3832.87687	0.01663
3831.59110	0.01688
3830.30534	0.01714
3829.01957	0.01734
3827.73380	0.01754
3826.44803	0.01775
3825.16226	0.01798
3823.87649	0.01832
3822.59072	0.01866
3821.30495	0.01857
3820.01918	0.01799
3818.73342	0.01757
3817.44765	0.01782
3816.16188	0.01821
3814.87611	0.01802
3813.59034	0.01738
3812.30457	0.01680
3811.01880	0.01643
3809.73303	0.01635
3808.44726	0.01664
3807.16150	0.01700
3805.87573	0.01704
3804.58996	0.01697
3803.30419	0.01731
3802.01842	0.01788
3800.73265	0.01807
3799.44688	0.01786
3798.16111	0.01774
3796.87535	0.01786
3795.58958	0.01793
3794.30381	0.01783
3793.01804	0.01770
3791.73227	0.01771
3790.44650	0.01799
3789.16073	0.01855
3787.87496	0.01916
3786.58919	0.01951
3785.30343	0.01953
3784.01766	0.01946
3782.73189	0.01953
3781.44612	0.01975
3780.16035	0.01984
3778.87458	0.01955
3777.58881	0.01891
3776.30304	0.01814
3775.01728	0.01742
3773.73151	0.01686
3772.44574	0.01668
3771.15997	0.01689
3769.87420	0.01720
3768.58843	0.01740
3767.30266	0.01752
3766.01689	0.01753
3764.73112	0.01726
3763.44536	0.01680
3762.15959	0.01649
3760.87382	0.01649
3759.58805	0.01662
3758.30228	0.01661
3757.01651	0.01637
3755.73074	0.01603
3754.44497	0.01584
3753.15921	0.01586
3751.87344	0.01600
3750.58767	0.01624
3749.30190	0.01641
3748.01613	0.01637
3746.73036	0.01642
3745.44459	0.01666
3744.15882	0.01649
3742.87305	0.01578
3741.58729	0.01519
3740.30152	0.01507
3739.01575	0.01520
3737.72998	0.01540
3736.44421	0.01559
3735.15844	0.01574
3733.87267	0.01597
3732.58690	0.01631
3731.30114	0.01660
3730.01537	0.01682
3728.72960	0.01716
3727.44383	0.01754
3726.15806	0.01766
3724.87229	0.01743
3723.58652	0.01709
3722.30075	0.01686
3721.01498	0.01677
3719.72922	0.01674
3718.44345	0.01665
3717.15768	0.01649
3715.87191	0.01641
3714.58614	0.01666
3713.30037	0.01720
3712.01460	0.01780
3710.72883	0.01823
3709.44307	0.01841
3708.15730	0.01830
3706.87153	0.01792
3705.58576	0.01741
3704.29999	0.01698
3703.01422	0.01669
3701.72845	0.01651
3700.44268	0.01640
3699.15691	0.01647
3697.87115	0.01684
3696.58538	0.01736
3695.29961	0.01764
3694.01384	0.01739
3692.72807	0.01674
3691.44230	0.01612
3690.15653	0.01596
3688.87076	0.01622
3687.58500	0.01639
3686.29923	0.01622
3685.01346	0.01601
3683.72769	0.01597
3682.44192	0.01600
3681.15615	0.01598
3679.87038	0.01592
3678.58461	0.01607
3677.29884	0.01675
3676.01308	0.01761
3674.72731	0.01796
3673.44154	0.01777
3672.15577	0.01757
3670.87000	0.01752
3669.58423	0.01738
3668.29846	0.01715
3667.01269	0.01704
3665.72693	0.01706
3664.44116	0.01710
3663.15539	0.01715
3661.86962	0.01728
3660.58385	0.01758
3659.29808	0.01802
3658.01231	0.01832
3656.72654	0.01818
3655.44077	0.01760
3654.15501	0.01705
3652.86924	0.01702
3651.58347	0.01745
3650.29770	0.01793
3649.01193	0.01823
3647.72616	0.01839
3646.44039	0.01848
3645.15462	0.01846
3643.86886	0.01835
3642.58309	0.01814
3641.29732	0.01789
3640.01155	0.01772
3638.72578	0.01772
3637.44001	0.01783
3636.15424	0.01792
3634.86847	0.01787
3633.58270	0.01761
3632.29694	0.01737
3631.01117	0.01752
3629.72540	0.01809
3628.43963	0.01851
3627.15386	0.01835
3625.86809	0.01779
3624.58232	0.01731
3623.29655	0.01732
3622.01079	0.01801
3620.72502	0.01904
3619.43925	0.01979
3618.15348	0.01989
3616.86771	0.01958
3615.58194	0.01922
3614.29617	0.01892
3613.01040	0.01864
3611.72463	0.01864
3610.43887	0.01922
3609.15310	0.02025
3607.86733	0.02118
3606.58156	0.02167
3605.29579	0.02178
3604.01002	0.02173
3602.72425	0.02178
3601.43848	0.02210
3600.15272	0.02258
3598.86695	0.02294
3597.58118	0.02303
3596.29541	0.02301
3595.00964	0.02307
3593.72387	0.02322
3592.43810	0.02339
3591.15233	0.02350
3589.86656	0.02348
3588.58080	0.02329
3587.29503	0.02306
3586.00926	0.02301
3584.72349	0.02324
3583.43772	0.02367
3582.15195	0.02410
3580.86618	0.02430
3579.58041	0.02424
3578.29464	0.02406
3577.00888	0.02405
3575.72311	0.02437
3574.43734	0.02496
3573.15157	0.02557
3571.86580	0.02602
3570.58003	0.02638
3569.29426	0.02676
3568.00849	0.02705
3566.72273	0.02703
3565.43696	0.02666
3564.15119	0.02620
3562.86542	0.02599
3561.57965	0.02621
3560.29388	0.02683
3559.00811	0.02763
3557.72234	0.02841
3556.43657	0.02905
3555.15081	0.02951
3553.86504	0.02972
3552.57927	0.02964
3551.29350	0.02930
3550.00773	0.02881
3548.72196	0.02840
3547.43619	0.02827
3546.15042	0.02854
3544.86466	0.02912
3543.57889	0.02971
3542.29312	0.03001
3541.00735	0.03003
3539.72158	0.03011
3538.43581	0.03053
3537.15004	0.03121
3535.86427	0.03180
3534.57850	0.03199
3533.29274	0.03177
3532.00697	0.03139
3530.72120	0.03110
3529.43543	0.03096
3528.14966	0.03090
3526.86389	0.03096
3525.57812	0.03128
3524.29235	0.03190
3523.00659	0.03256
3521.72082	0.03283
3520.43505	0.03261
3519.14928	0.03221
3517.86351	0.03205
3516.57774	0.03227
3515.29197	0.03268
3514.00620	0.03305
3512.72043	0.03329
3511.43467	0.03342
3510.14890	0.03347
3508.86313	0.03349
3507.57736	0.03362
3506.29159	0.03398
3505.00582	0.03455
3503.72005	0.03512
3502.43428	0.03550
3501.14852	0.03554
3499.86275	0.03521
3498.57698	0.03467
3497.29121	0.03421
3496.00544	0.03416
3494.71967	0.03456
3493.43390	0.03513
3492.14813	0.03547
3490.86236	0.03541
3489.57660	0.03512
3488.29083	0.03494
3487.00506	0.03503
3485.71929	0.03534
3484.43352	0.03570
3483.14775	0.03597
3481.86198	0.03609
3480.57621	0.03605
3479.29045	0.03598
3478.00468	0.03607
3476.71891	0.03637
3475.43314	0.03676
3474.14737	0.03707
3472.86160	0.03722
3471.57583	0.03724
3470.29006	0.03715
3469.00429	0.03700
3467.71853	0.03681
3466.43276	0.03671
3465.14699	0.03683
3463.86122	0.03721
3462.57545	0.03769
3461.28968	0.03804
3460.00391	0.03817
3458.71814	0.03821
3457.43238	0.03829
3456.14661	0.03845
3454.86084	0.03860
3453.57507	0.03867
3452.28930	0.03867
3451.00353	0.03859
3449.71776	0.03845
3448.43199	0.03831
3447.14622	0.03829
3445.86046	0.03846
3444.57469	0.03882
3443.28892	0.03928
3442.00315	0.03972
3440.71738	0.04006
3439.43161	0.04023
3438.14584	0.04018
3436.86007	0.03999
3435.57431	0.03986
3434.28854	0.03993
3433.00277	0.04021
3431.71700	0.04052
3430.43123	0.04072
3429.14546	0.04081
3427.85969	0.04083
3426.57392	0.04083
3425.28815	0.04081
3424.00239	0.04080
3422.71662	0.04090
3421.43085	0.04120
3420.14508	0.04168
3418.85931	0.04213
3417.57354	0.04231
3416.28777	0.04219
3415.00200	0.04190
3413.71624	0.04156
3412.43047	0.04122
3411.14470	0.04103
3409.85893	0.04114
3408.57316	0.04155
3407.28739	0.04212
3406.00162	0.04275
3404.71585	0.04339
3403.43008	0.04396
3402.14432	0.04428
3400.85855	0.04429
3399.57278	0.04419
3398.28701	0.04415
3397.00124	0.04429
3395.71547	0.04464
3394.42970	0.04508
3393.14393	0.04545
3391.85817	0.04563
3390.57240	0.04559
3389.28663	0.04542
3388.00086	0.04521
3386.71509	0.04507
3385.42932	0.04507
3384.14355	0.04529
3382.85778	0.04571
3381.57201	0.04619
3380.28625	0.04657
3379.00048	0.04679
3377.71471	0.04689
3376.42894	0.04693
3375.14317	0.04695
3373.85740	0.04703
3372.57163	0.04725
3371.28586	0.04757
3370.00010	0.04782
3368.71433	0.04783
3367.42856	0.04768
3366.14279	0.04762
3364.85702	0.04788
3363.57125	0.04843
3362.28548	0.04906
3360.99971	0.04957
3359.71394	0.04992
3358.42818	0.05018
3357.14241	0.05046
3355.85664	0.05079
3354.57087	0.05115
3353.28510	0.05148
3351.99933	0.05170
3350.71356	0.05179
3349.42779	0.05188
3348.14202	0.05211
3346.85626	0.05250
3345.57049	0.05286
3344.28472	0.05299
3342.99895	0.05290
3341.71318	0.05276
3340.42741	0.05272
3339.14164	0.05286
3337.85587	0.05307
3336.57011	0.05318
3335.28434	0.05312
3333.99857	0.05305
3332.71280	0.05325
3331.42703	0.05382
3330.14126	0.05449
3328.85549	0.05492
3327.56972	0.05491
3326.28395	0.05461
3324.99819	0.05437
3323.71242	0.05459
3322.42665	0.05535
3321.14088	0.05633
3319.85511	0.05708
3318.56934	0.05737
3317.28357	0.05739
3315.99780	0.05740
3314.71204	0.05747
3313.42627	0.05753
3312.14050	0.05761
3310.85473	0.05781
3309.56896	0.05815
3308.28319	0.05843
3306.99742	0.05840
3305.71165	0.05805
3304.42588	0.05760
3303.14012	0.05732
3301.85435	0.05729
3300.56858	0.05744
3299.28281	0.05767
3297.99704	0.05794
3296.71127	0.05826
3295.42550	0.05856
3294.13973	0.05871
3292.85397	0.05868
3291.56820	0.05853
3290.28243	0.05834
3288.99666	0.05815
3287.71089	0.05802
3286.42512	0.05799
3285.13935	0.05805
3283.85358	0.05813
3282.56781	0.05816
3281.28205	0.05813
3279.99628	0.05814
3278.71051	0.05823
3277.42474	0.05832
3276.13897	0.05825
3274.85320	0.05794
3273.56743	0.05754
3272.28166	0.05733
3270.99590	0.05741
3269.71013	0.05765
3268.42436	0.05790
3267.13859	0.05816
3265.85282	0.05850
3264.56705	0.05879
3263.28128	0.05875
3261.99551	0.05832
3260.70974	0.05780
3259.42398	0.05754
3258.13821	0.05756
3256.85244	0.05763
3255.56667	0.05755
3254.28090	0.05733
3252.99513	0.05705
3251.70936	0.05673
3250.42359	0.05636
3249.13783	0.05605
3247.85206	0.05598
3246.56629	0.05617
3245.28052	0.05638
3243.99475	0.05631
3242.70898	0.05585
3241.42321	0.05520
3240.13744	0.05466
3238.85167	0.05442
3237.56591	0.05442
3236.28014	0.05449
3234.99437	0.05459
3233.70860	0.05474
3232.42283	0.05488
3231.13706	0.05493
3229.85129	0.05484
3228.56552	0.05473
3227.27976	0.05468
3225.99399	0.05467
3224.70822	0.05467
3223.42245	0.05466
3222.13668	0.05463
3220.85091	0.05456
3219.56514	0.05446
3218.27937	0.05439
3216.99360	0.05433
3215.70784	0.05424
3214.42207	0.05409
3213.13630	0.05386
3211.85053	0.05358
3210.56476	0.05328
3209.27899	0.05298
3207.99322	0.05263
3206.70745	0.05219
3205.42169	0.05167
3204.13592	0.05116
3202.85015	0.05086
3201.56438	0.05088
3200.27861	0.05118
3198.99284	0.05158
3197.70707	0.05190
3196.42130	0.05202
3195.13553	0.05193
3193.84977	0.05169
3192.56400	0.05140
3191.27823	0.05110
3189.99246	0.05076
3188.70669	0.05041
3187.42092	0.05017
3186.13515	0.05015
3184.84938	0.05030
3183.56362	0.05040
3182.27785	0.05027
3180.99208	0.04990
3179.70631	0.04943
3178.42054	0.04904
3177.13477	0.04882
3175.84900	0.04873
3174.56323	0.04873
3173.27746	0.04880
3171.99170	0.04895
3170.70593	0.04919
3169.42016	0.04947
3168.13439	0.04966
3166.84862	0.04960
3165.56285	0.04921
3164.27708	0.04862
3162.99131	0.04807
3161.70555	0.04777
3160.41978	0.04771
3159.13401	0.04772
3157.84824	0.04768
3156.56247	0.04760
3155.27670	0.04756
3153.99093	0.04755
3152.70516	0.04748
3151.41939	0.04729
3150.13363	0.04698
3148.84786	0.04659
3147.56209	0.04614
3146.27632	0.04559
3144.99055	0.04498
3143.70478	0.04452
3142.41901	0.04444
3141.13324	0.04473
3139.84748	0.04511
3138.56171	0.04520
3137.27594	0.04488
3135.99017	0.04436
3134.70440	0.04398
3133.41863	0.04396
3132.13286	0.04427
3130.84709	0.04469
3129.56132	0.04497
3128.27556	0.04502
3126.98979	0.04496
3125.70402	0.04498
3124.41825	0.04514
3123.13248	0.04526
3121.84671	0.04513
3120.56094	0.04467
3119.27517	0.04405
3117.98940	0.04354
3116.70364	0.04328
3115.41787	0.04330
3114.13210	0.04351
3112.84633	0.04371
3111.56056	0.04379
3110.27479	0.04373
3108.98902	0.04366
3107.70325	0.04367
3106.41749	0.04380
3105.13172	0.04399
3103.84595	0.04419
3102.56018	0.04435
3101.27441	0.04448
3099.98864	0.04456
3098.70287	0.04455
3097.41710	0.04444
3096.13133	0.04429
3094.84557	0.04416
3093.55980	0.04411
3092.27403	0.04413
3090.98826	0.04421
3089.70249	0.04433
3088.41672	0.04447
3087.13095	0.04460
3085.84518	0.04466
3084.55942	0.04461
3083.27365	0.04452
3081.98788	0.04449
3080.70211	0.04459
3079.41634	0.04482
3078.13057	0.04512
3076.84480	0.04538
3075.55903	0.04547
3074.27326	0.04534
3072.98750	0.04502
3071.70173	0.04470
3070.41596	0.04455
3069.13019	0.04454
3067.84442	0.04452
3066.55865	0.04444
3065.27288	0.04435
3063.98711	0.04437
3062.70135	0.04451
3061.41558	0.04464
3060.12981	0.04461
3058.84404	0.04435
3057.55827	0.04395
3056.27250	0.04362
3054.98673	0.04350
3053.70096	0.04357
3052.41519	0.04370
3051.12943	0.04382
3049.84366	0.04393
3048.55789	0.04398
3047.27212	0.04384
3045.98635	0.04344
3044.70058	0.04290
3043.41481	0.04245
3042.12904	0.04224
3040.84328	0.04220
3039.55751	0.04216
3038.27174	0.04201
3036.98597	0.04178
3035.70020	0.04160
3034.41443	0.04154
3033.12866	0.04161
3031.84289	0.04175
3030.55712	0.04184
3029.27136	0.04172
3027.98559	0.04137
3026.69982	0.04089
3025.41405	0.04045
3024.12828	0.04019
3022.84251	0.04012
3021.55674	0.04021
3020.27097	0.04041
3018.98521	0.04064
3017.69944	0.04076
3016.41367	0.04066
3015.12790	0.04040
3013.84213	0.04003
3012.55636	0.03964
3011.27059	0.03930
3009.98482	0.03912
3008.69905	0.03916
3007.41329	0.03932
3006.12752	0.03941
3004.84175	0.03931
3003.55598	0.03909
3002.27021	0.03891
3000.98444	0.03884
2999.69867	0.03891
2998.41290	0.03902
2997.12714	0.03900
2995.84137	0.03891
2994.55560	0.03883
2993.26983	0.03878
2991.98406	0.03866
2990.69829	0.03851
2989.41252	0.03849
2988.12675	0.03873
2986.84098	0.03925
2985.55522	0.03991
2984.26945	0.04055
2982.98368	0.04093
2981.69791	0.04091
2980.41214	0.04057
2979.12637	0.04019
2977.84060	0.04008
2976.55483	0.04031
2975.26907	0.04078
2973.98330	0.04122
2972.69753	0.04143
2971.41176	0.04136
2970.12599	0.04117
2968.84022	0.04108
2967.55445	0.04118
2966.26868	0.04143
2964.98291	0.04169
2963.69715	0.04184
2962.41138	0.04187
2961.12561	0.04185
2959.83984	0.04193
2958.55407	0.04218
2957.26830	0.04243
2955.98253	0.04245
2954.69676	0.04212
2953.41100	0.04161
2952.12523	0.04126
2950.83946	0.04129
2949.55369	0.04165
2948.26792	0.04204
2946.98215	0.04217
2945.69638	0.04204
2944.41061	0.04181
2943.12484	0.04163
2941.83908	0.04155
2940.55331	0.04158
2939.26754	0.04176
2937.98177	0.04204
2936.69600	0.04229
2935.41023	0.04238
2934.12446	0.04230
2932.83869	0.04212
2931.55293	0.04198
2930.26716	0.04198
2928.98139	0.04210
2927.69562	0.04214
2926.40985	0.04189
2925.12408	0.04136
2923.83831	0.04081
2922.55254	0.04053
2921.26677	0.04056
2919.98101	0.04064
2918.69524	0.04060
2917.40947	0.04050
2916.12370	0.04047
2914.83793	0.04051
2913.55216	0.04047
2912.26639	0.04029
2910.98062	0.04009
2909.69486	0.03998
2908.40909	0.03996
2907.12332	0.03992
2905.83755	0.03981
2904.55178	0.03969
2903.26601	0.03957
2901.98024	0.03944
2900.69447	0.03928
2899.40870	0.03914
2898.12294	0.03904
2896.83717	0.03889
2895.55140	0.03860
2894.26563	0.03829
2892.97986	0.03817
2891.69409	0.03833
2890.40832	0.03861
2889.12255	0.03876
2887.83678	0.03869
2886.55102	0.03852
2885.26525	0.03843
2883.97948	0.03851
2882.69371	0.03866
2881.40794	0.03871
2880.12217	0.03859
2878.83640	0.03841
2877.55063	0.03839
2876.26487	0.03854
2874.97910	0.03864
2873.69333	0.03852
2872.40756	0.03827
2871.12179	0.03810
2869.83602	0.03804
2868.55025	0.03796
2867.26448	0.03774
2865.97871	0.03742
2864.69295	0.03710
2863.40718	0.03689
2862.12141	0.03674
2860.83564	0.03651
2859.54987	0.03613
2858.26410	0.03570
2856.97833	0.03541
2855.69256	0.03534
2854.40680	0.03544
2853.12103	0.03563
2851.83526	0.03586
2850.54949	0.03606
2849.26372	0.03619
2847.97795	0.03623
2846.69218	0.03617
2845.40641	0.03602
2844.12064	0.03575
2842.83488	0.03538
2841.54911	0.03503
2840.26334	0.03480
2838.97757	0.03473
2837.69180	0.03470
2836.40603	0.03465
2835.12026	0.03462
2833.83449	0.03466
2832.54873	0.03470
2831.26296	0.03457
2829.97719	0.03425
2828.69142	0.03385
2827.40565	0.03351
2826.11988	0.03328
2824.83411	0.03315
2823.54834	0.03317
2822.26257	0.03330
2820.97681	0.03343
2819.69104	0.03344
2818.40527	0.03333
2817.11950	0.03315
2815.83373	0.03300
2814.54796	0.03289
2813.26219	0.03284
2811.97642	0.03284
2810.69066	0.03291
2809.40489	0.03306
2808.11912	0.03324
2806.83335	0.03340
2805.54758	0.03349
2804.26181	0.03348
2802.97604	0.03336
2801.69027	0.03314
2800.40450	0.03289
2799.11874	0.03267
2797.83297	0.03249
2796.54720	0.03232
2795.26143	0.03217
2793.97566	0.03209
2792.68989	0.03213
2791.40412	0.03224
2790.11835	0.03229
2788.83259	0.03219
2787.54682	0.03200
2786.26105	0.03183
2784.97528	0.03176
2783.68951	0.03174
2782.40374	0.03167
2781.11797	0.03151
2779.83220	0.03133
2778.54643	0.03124
2777.26067	0.03129
2775.97490	0.03143
2774.68913	0.03156
2773.40336	0.03163
2772.11759	0.03164
2770.83182	0.03165
2769.54605	0.03169
2768.26028	0.03175
2766.97452	0.03173
2765.68875	0.03151
2764.40298	0.03110
2763.11721	0.03068
2761.83144	0.03043
2760.54567	0.03038
2759.25990	0.03040
2757.97413	0.03035
2756.68836	0.03024
2755.40260	0.03021
2754.11683	0.03031
2752.83106	0.03048
2751.54529	0.03063
2750.25952	0.03071
2748.97375	0.03070
2747.68798	0.03061
2746.40221	0.03038
2745.11645	0.03000
2743.83068	0.02953
2742.54491	0.02915
2741.25914	0.02905
2739.97337	0.02925
2738.68760	0.02956
2737.40183	0.02976
2736.11606	0.02976
2734.83029	0.02962
2733.54453	0.02945
2732.25876	0.02931
2730.97299	0.02923
2729.68722	0.02918
2728.40145	0.02915
2727.11568	0.02914
2725.82991	0.02915
2724.54414	0.02913
2723.25838	0.02905
2721.97261	0.02891
2720.68684	0.02874
2719.40107	0.02863
2718.11530	0.02863
2716.82953	0.02867
2715.54376	0.02866
2714.25799	0.02857
2712.97222	0.02847
2711.68646	0.02846
2710.40069	0.02852
2709.11492	0.02854
2707.82915	0.02844
2706.54338	0.02821
2705.25761	0.02793
2703.97184	0.02767
2702.68607	0.02750
2701.40031	0.02743
2700.11454	0.02744
2698.82877	0.02753
2697.54300	0.02765
2696.25723	0.02776
2694.97146	0.02779
2693.68569	0.02774
2692.39992	0.02770
2691.11415	0.02772
2689.82839	0.02772
2688.54262	0.02764
2687.25685	0.02755
2685.97108	0.02754
2684.68531	0.02763
2683.39954	0.02772
2682.11377	0.02773
2680.82800	0.02763
2679.54224	0.02749
2678.25647	0.02742
2676.97070	0.02745
2675.68493	0.02752
2674.39916	0.02751
2673.11339	0.02733
2671.82762	0.02703
2670.54185	0.02675
2669.25608	0.02658
2667.97032	0.02653
2666.68455	0.02655
2665.39878	0.02657
2664.11301	0.02657
2662.82724	0.02657
2661.54147	0.02661
2660.25570	0.02675
2658.96993	0.02694
2657.68417	0.02711
2656.39840	0.02720
2655.11263	0.02716
2653.82686	0.02696
2652.54109	0.02663
2651.25532	0.02625
2649.96955	0.02596
2648.68378	0.02580
2647.39801	0.02573
2646.11225	0.02567
2644.82648	0.02561
2643.54071	0.02558
2642.25494	0.02560
2640.96917	0.02562
2639.68340	0.02555
2638.39763	0.02536
2637.11186	0.02506
2635.82609	0.02468
2634.54033	0.02431
2633.25456	0.02408
2631.96879	0.02411
2630.68302	0.02437
2629.39725	0.02465
2628.11148	0.02477
2626.82571	0.02469
2625.53994	0.02455
2624.25418	0.02448
2622.96841	0.02447
2621.68264	0.02441
2620.39687	0.02425
2619.11110	0.02399
2617.82533	0.02367
2616.53956	0.02342
2615.25379	0.02335
2613.96802	0.02353
2612.68226	0.02379
2611.39649	0.02390
2610.11072	0.02375
2608.82495	0.02347
2607.53918	0.02321
2606.25341	0.02304
2604.96764	0.02290
2603.68187	0.02276
2602.39611	0.02257
2601.11034	0.02236
2599.82457	0.02222
2598.53880	0.02223
2597.25303	0.02239
2595.96726	0.02262
2594.68149	0.02284
2593.39572	0.02303
2592.10995	0.02321
2590.82419	0.02330
2589.53842	0.02320
2588.25265	0.02294
2586.96688	0.02270
2585.68111	0.02265
2584.39534	0.02275
2583.10957	0.02280
2581.82380	0.02271
2580.53804	0.02251
2579.25227	0.02225
2577.96650	0.02193
2576.68073	0.02161
2575.39496	0.02134
2574.10919	0.02110
2572.82342	0.02081
2571.53765	0.02052
2570.25188	0.02040
2568.96612	0.02061
2567.68035	0.02105
2566.39458	0.02153
2565.10881	0.02191
2563.82304	0.02218
2562.53727	0.02236
2561.25150	0.02239
2559.96573	0.02219
2558.67997	0.02183
2557.39420	0.02147
2556.10843	0.02120
2554.82266	0.02103
2553.53689	0.02091
2552.25112	0.02080
2550.96535	0.02068
2549.67958	0.02053
2548.39381	0.02035
2547.10805	0.02011
2545.82228	0.01988
2544.53651	0.01977
2543.25074	0.01983
2541.96497	0.02004
2540.67920	0.02035
2539.39343	0.02065
2538.10766	0.02084
2536.82190	0.02090
2535.53613	0.02086
2534.25036	0.02076
2532.96459	0.02059
2531.67882	0.02034
2530.39305	0.02003
2529.10728	0.01972
2527.82151	0.01953
2526.53574	0.01961
2525.24998	0.01997
2523.96421	0.02038
2522.67844	0.02061
2521.39267	0.02062
2520.10690	0.02053
2518.82113	0.02045
2517.53536	0.02040
2516.24959	0.02038
2514.96383	0.02042
2513.67806	0.02050
2512.39229	0.02051
2511.10652	0.02036
2509.82075	0.02001
2508.53498	0.01961
2507.24921	0.01935
2505.96344	0.01939
2504.67767	0.01964
2503.39191	0.01990
2502.10614	0.02006
2500.82037	0.02018
2499.53460	0.02032
2498.24883	0.02032
2496.96306	0.02003
2495.67729	0.01955
2494.39152	0.01912
2493.10576	0.01885
2491.81999	0.01871
2490.53422	0.01870
2489.24845	0.01879
2487.96268	0.01888
2486.67691	0.01890
2485.39114	0.01893
2484.10537	0.01910
2482.81960	0.01939
2481.53384	0.01964
2480.24807	0.01972
2478.96230	0.01972
2477.67653	0.01980
2476.39076	0.01999
2475.10499	0.02015
2473.81922	0.02008
2472.53345	0.01976
2471.24769	0.01937
2469.96192	0.01912
2468.67615	0.01909
2467.39038	0.01923
2466.10461	0.01942
2464.81884	0.01962
2463.53307	0.01975
2462.24730	0.01978
2460.96153	0.01967
2459.67577	0.01941
2458.39000	0.01908
2457.10423	0.01886
2455.81846	0.01889
2454.53269	0.01907
2453.24692	0.01916
2451.96115	0.01913
2450.67538	0.01917
2449.38962	0.01943
2448.10385	0.01976
2446.81808	0.01989
2445.53231	0.01977
2444.24654	0.01957
2442.96077	0.01948
2441.67500	0.01953
2440.38923	0.01960
2439.10346	0.01958
2437.81770	0.01942
2436.53193	0.01919
2435.24616	0.01901
2433.96039	0.01897
2432.67462	0.01910
2431.38885	0.01930
2430.10308	0.01942
2428.81731	0.01939
2427.53155	0.01925
2426.24578	0.01907
2424.96001	0.01891
2423.67424	0.01883
2422.38847	0.01889
2421.10270	0.01899
2419.81693	0.01894
2418.53116	0.01862
2417.24539	0.01821
2415.95963	0.01798
2414.67386	0.01809
2413.38809	0.01840
2412.10232	0.01866
2410.81655	0.01876
2409.53078	0.01877
2408.24501	0.01885
2406.95924	0.01899
2405.67347	0.01911
2404.38771	0.01916
2403.10194	0.01914
2401.81617	0.01910
2400.53040	0.01904
2399.24463	0.01880
2397.95886	0.01873
2396.67309	0.01856
2395.38732	0.01826
2394.10156	0.01804
2392.81579	0.01799
2391.53002	0.01808
2390.24425	0.01816
2388.95848	0.01817
2387.67271	0.01815
2386.38694	0.01815
2385.10117	0.01818
2383.81540	0.01823
2382.52964	0.01832
2381.24387	0.01845
2379.95810	0.01863
2378.67233	0.01882
2377.38656	0.01900
2376.10079	0.01914
2374.81502	0.01918
2373.52925	0.01919
2372.24349	0.01923
2370.95772	0.01938
2369.67195	0.01956
2368.38618	0.01972
2367.10041	0.01980
2365.81464	0.01984
2364.52887	0.01984
2363.24310	0.01992
2361.95733	0.02014
2360.67157	0.02052
2359.38580	0.02073
2358.10003	0.02069
2356.81426	0.02053
2355.52849	0.02030
2354.24272	0.01998
2352.95695	0.01964
2351.67118	0.01954
2350.38542	0.01960
2349.09965	0.01954
2347.81388	0.01943
2346.52811	0.01975
2345.24234	0.02027
2343.95657	0.02029
2342.67080	0.01985
2341.38503	0.01999
2340.09926	0.02071
2338.81350	0.02052
2337.52773	0.01948
2336.24196	0.01957
2334.95619	0.02055
2333.67042	0.02036
2332.38465	0.01941
2331.09888	0.01966
2329.81311	0.01993
2328.52735	0.01903
2327.24158	0.01912
2325.95581	0.01980
2324.67004	0.01937
2323.38427	0.01903
2322.09850	0.01911
2320.81273	0.01835
2319.52696	0.01795
2318.24119	0.01807
2316.95543	0.01793
2315.66966	0.01824
2314.38389	0.01873
2313.09812	0.01883
2311.81235	0.01896
2310.52658	0.01880
2309.24081	0.01846
2307.95504	0.01823
2306.66928	0.01798
2305.38351	0.01790
2304.09774	0.01783
2302.81197	0.01761
2301.52620	0.01736
2300.24043	0.01712
2298.95466	0.01706
2297.66889	0.01713
2296.38312	0.01724
2295.09736	0.01730
2293.81159	0.01720
2292.52582	0.01693
2291.24005	0.01656
2289.95428	0.01631
2288.66851	0.01626
2287.38274	0.01637
2286.09697	0.01649
2284.81121	0.01658
2283.52544	0.01661
2282.23967	0.01653
2280.95390	0.01627
2279.66813	0.01584
2278.38236	0.01541
2277.09659	0.01517
2275.81082	0.01511
2274.52505	0.01509
2273.23929	0.01497
2271.95352	0.01482
2270.66775	0.01478
2269.38198	0.01486
2268.09621	0.01502
2266.81044	0.01524
2265.52467	0.01554
2264.23890	0.01582
2262.95314	0.01598
2261.66737	0.01593
2260.38160	0.01567
2259.09583	0.01528
2257.81006	0.01493
2256.52429	0.01481
2255.23852	0.01493
2253.95275	0.01505
2252.66698	0.01477
2251.38122	0.01396
2250.09545	0.01293
2248.80968	0.01200
2247.52391	0.01163
2246.23814	0.01174
2244.95237	0.01214
2243.66660	0.01260
2242.38083	0.01286
2241.09507	0.01275
2239.80930	0.01247
2238.52353	0.01239
2237.23776	0.01268
2235.95199	0.01305
2234.66622	0.01313
2233.38045	0.01292
2232.09468	0.01284
2230.80891	0.01317
2229.52315	0.01360
2228.23738	0.01370
2226.95161	0.01353
2225.66584	0.01348
2224.38007	0.01354
2223.09430	0.01326
2221.80853	0.01248
2220.52276	0.01160
2219.23700	0.01121
2217.95123	0.01150
2216.66546	0.01209
2215.37969	0.01241
2214.09392	0.01217
2212.80815	0.01158
2211.52238	0.01102
2210.23661	0.01060
2208.95084	0.01022
2207.66508	0.00994
2206.37931	0.01001
2205.09354	0.01051
2203.80777	0.01123
2202.52200	0.01179
2201.23623	0.01189
2199.95046	0.01158
2198.66469	0.01124
2197.37893	0.01129
2196.09316	0.01177
2194.80739	0.01229
2193.52162	0.01249
2192.23585	0.01240
2190.95008	0.01222
2189.66431	0.01203
2188.37854	0.01169
2187.09277	0.01115
2185.80701	0.01070
2184.52124	0.01067
2183.23547	0.01119
2181.94970	0.01199
2180.66393	0.01262
2179.37816	0.01277
2178.09239	0.01247
2176.80662	0.01197
2175.52085	0.01142
2174.23509	0.01076
2172.94932	0.00993
2171.66355	0.00915
2170.37778	0.00881
2169.09201	0.00917
2167.80624	0.01015
2166.52047	0.01145
2165.23470	0.01257
2163.94894	0.01294
2162.66317	0.01220
2161.37740	0.01056
2160.09163	0.00864
2158.80586	0.00707
2157.52009	0.00627
2156.23432	0.00637
2154.94855	0.00710
2153.66278	0.00780
2152.37702	0.00792
2151.09125	0.00757
2149.80548	0.00732
2148.51971	0.00748
2147.23394	0.00777
2145.94817	0.00779
2144.66240	0.00760
2143.37663	0.00761
2142.09087	0.00808
2140.80510	0.00887
2139.51933	0.00966
2138.23356	0.01035
2136.94779	0.01102
2135.66202	0.01162
2134.37625	0.01191
2133.09048	0.01174
2131.80471	0.01136
2130.51895	0.01121
2129.23318	0.01152
2127.94741	0.01208
2126.66164	0.01246
2125.37587	0.01242
2124.09010	0.01209
2122.80433	0.01189
2121.51856	0.01206
2120.23280	0.01249
2118.94703	0.01291
2117.66126	0.01324
2116.37549	0.01345
2115.08972	0.01339
2113.80395	0.01294
2112.51818	0.01225
2111.23241	0.01165
2109.94664	0.01132
2108.66088	0.01119
2107.37511	0.01112
2106.08934	0.01106
2104.80357	0.01109
2103.51780	0.01129
2102.23203	0.01154
2100.94626	0.01186
2099.66049	0.01738
2098.37473	0.01993
2097.08896	0.01966
2095.80319	0.01842
2094.51742	0.01661
2093.23165	0.01451
2091.94588	0.01272
2090.66011	0.01168
2089.37434	0.01133
2088.08857	0.01128
2086.80281	0.01125
2085.51704	0.01129
2084.23127	0.01161
2082.94550	0.01226
2081.65973	0.01305
2080.37396	0.01377
2079.08819	0.01443
2077.80242	0.01531
2076.51666	0.01663
2075.23089	0.01827
2073.94512	0.01976
2072.65935	0.02059
2071.37358	0.02059
2070.08781	0.01997
2068.80204	0.01909
2067.51627	0.01817
2066.23050	0.01720
2064.94474	0.01611
2063.65897	0.01494
2062.37320	0.01381
2061.08743	0.01279
2059.80166	0.01192
2058.51589	0.01123
2057.23012	0.01065
2055.94435	0.00989
2054.65859	0.00890
2053.37282	0.00830
2052.08705	0.00922
2050.80128	0.01206
2049.51551	0.01591
2048.22974	0.01915
2046.94397	0.02078
2045.65820	0.02088
2044.37243	0.02008
2043.08667	0.01889
2041.80090	0.01770
2040.51513	0.01700
2039.22936	0.01715
2037.94359	0.01800
2036.65782	0.01895
2035.37205	0.01946
2034.08628	0.01938
2032.80052	0.01884
2031.51475	0.01790
2030.22898	0.01657
2028.94321	0.01495
2027.65744	0.01336
2026.37167	0.01217
2025.08590	0.01170
2023.80013	0.01212
2022.51436	0.01330
2021.22860	0.01470
2019.94283	0.01566
2018.65706	0.01586
2017.37129	0.01563
2016.08552	0.01561
2014.79975	0.01613
2013.51398	0.01700
2012.22821	0.01789
2010.94245	0.01878
2009.65668	0.01990
2008.37091	0.02123
2007.08514	0.02216
2005.79937	0.02193
2004.51360	0.02038
2003.22783	0.01809
2001.94206	0.01570
2000.65629	0.01345
1999.37053	0.01127
1998.08476	0.00927
1996.79899	0.00775
1995.51322	0.00696
1994.22745	0.00682
1992.94168	0.00699
1991.65591	0.00716
1990.37014	0.00730
1989.08438	0.00766
1987.79861	0.00843
1986.51284	0.00950
1985.22707	0.01072
1983.94130	0.01220
1982.65553	0.01432
1981.36976	0.01745
1980.08399	0.02146
1978.79822	0.02554
1977.51246	0.02855
1976.22669	0.02967
1974.94092	0.02884
1973.65515	0.02657
1972.36938	0.02365
1971.08361	0.02094
1969.79784	0.01917
1968.51207	0.01858
1967.22631	0.01887
1965.94054	0.01949
1964.65477	0.02001
1963.36900	0.02015
1962.08323	0.01979
1960.79746	0.01889
1959.51169	0.01751
1958.22592	0.01592
1956.94015	0.01453
1955.65439	0.01377
1954.36862	0.01366
1953.08285	0.01386
1951.79708	0.01396
1950.51131	0.01388
1949.22554	0.01386
1947.93977	0.01415
1946.65400	0.01472
1945.36823	0.01538
1944.08247	0.01600
1942.79670	0.01651
1941.51093	0.01680
1940.22516	0.01675
1938.93939	0.01649
1937.65362	0.01630
1936.36785	0.01632
1935.08208	0.01647
1933.79632	0.01645
1932.51055	0.01614
1931.22478	0.01570
1929.93901	0.01542
1928.65324	0.01546
1927.36747	0.01569
1926.08170	0.01579
1924.79593	0.01553
1923.51016	0.01498
1922.22440	0.01440
1920.93863	0.01413
1919.65286	0.01428
1918.36709	0.01465
1917.08132	0.01492
1915.79555	0.01499
1914.50978	0.01502
1913.22401	0.01514
1911.93825	0.01533
1910.65248	0.01550
1909.36671	0.01558
1908.08094	0.01559
1906.79517	0.01567
1905.50940	0.01587
1904.22363	0.01606
1902.93786	0.01606
1901.65209	0.01582
1900.36633	0.01549
1899.08056	0.01520
1897.79479	0.01503
1896.50902	0.01496
1895.22325	0.01500
1893.93748	0.01513
1892.65171	0.01528
1891.36594	0.01529
1890.08018	0.01506
1888.79441	0.01463
1887.50864	0.01426
1886.22287	0.01412
1884.93710	0.01413
1883.65133	0.01407
1882.36556	0.01381
1881.07979	0.01344
1879.79402	0.01312
1878.50826	0.01299
1877.22249	0.01308
1875.93672	0.01330
1874.65095	0.01349
1873.36518	0.01351
1872.07941	0.01345
1870.79364	0.01349
1869.50787	0.01366
1868.22211	0.01377
1866.93634	0.01371
1865.65057	0.01359
1864.36480	0.01358
1863.07903	0.01371
1861.79326	0.01386
1860.50749	0.01393
1859.22172	0.01395
1857.93595	0.01397
1856.65019	0.01400
1855.36442	0.01400
1854.07865	0.01394
1852.79288	0.01384
1851.50711	0.01375
1850.22134	0.01365
1848.93557	0.01351
1847.64980	0.01332
1846.36404	0.01313
1845.07827	0.01298
1843.79250	0.01280
1842.50673	0.01258
1841.22096	0.01242
1839.93519	0.01239
1838.64942	0.01242
1837.36365	0.01244
1836.07788	0.01241
1834.79212	0.01234
1833.50635	0.01229
1832.22058	0.01237
1830.93481	0.01264
1829.64904	0.01302
1828.36327	0.01344
1827.07750	0.01392
1825.79173	0.01449
1824.50597	0.01514
1823.22020	0.01589
1821.93443	0.01672
1820.64866	0.01737
1819.36289	0.01747
1818.07712	0.01671
1816.79135	0.01518
1815.50558	0.01335
1814.21981	0.01175
1812.93405	0.01068
1811.64828	0.01013
1810.36251	0.00998
1809.07674	0.01011
1807.79097	0.01039
1806.50520	0.01067
1805.21943	0.01085
1803.93366	0.01092
1802.64790	0.01093
1801.36213	0.01098
1800.07636	0.01108
1798.79059	0.01123
1797.50482	0.01137
1796.21905	0.01150
1794.93328	0.01168
1793.64751	0.01197
1792.36174	0.01225
1791.07598	0.01238
1789.79021	0.01232
1788.50444	0.01222
1787.21867	0.01216
1785.93290	0.01217
1784.64713	0.01216
1783.36136	0.01212
1782.07559	0.01211
1780.78983	0.01218
1779.50406	0.01224
1778.21829	0.01217
1776.93252	0.01194
1775.64675	0.01162
1774.36098	0.01139
1773.07521	0.01126
1771.78944	0.01110
1770.50367	0.01089
1769.21791	0.01075
1767.93214	0.01068
1766.64637	0.01060
1765.36060	0.01054
1764.07483	0.01058
1762.78906	0.01067
1761.50329	0.01067
1760.21752	0.01058
1758.93176	0.01054
1757.64599	0.01057
1756.36022	0.01054
1755.07445	0.01041
1753.78868	0.01028
1752.50291	0.01024
1751.21714	0.01021
1749.93137	0.01016
1748.64560	0.01017
1747.35984	0.01028
1746.07407	0.01043
1744.78830	0.01055
1743.50253	0.01061
1742.21676	0.01067
1740.93099	0.01076
1739.64522	0.01082
1738.35945	0.01076
1737.07369	0.01073
1735.78792	0.01089
1734.50215	0.01112
1733.21638	0.01121
1731.93061	0.01117
1730.64484	0.01124
1729.35907	0.01144
1728.07330	0.01167
1726.78753	0.01188
1725.50177	0.01207
1724.21600	0.01220
1722.93023	0.01219
1721.64446	0.01207
1720.35869	0.01202
1719.07292	0.01215
1717.78715	0.01237
1716.50138	0.01252
1715.21561	0.01265
1713.92985	0.01289
1712.64408	0.01330
1711.35831	0.01383
1710.07254	0.01441
1708.78677	0.01501
1707.50100	0.01562
1706.21523	0.01623
1704.92946	0.01674
1703.64370	0.01723
1702.35793	0.01796
1701.07216	0.01893
1699.78639	0.01989
1698.50062	0.02082
1697.21485	0.02195
1695.92908	0.02317
1694.64331	0.02420
1693.35754	0.02511
1692.07178	0.02612
1690.78601	0.02712
1689.50024	0.02790
1688.21447	0.02854
1686.92870	0.02940
1685.64293	0.03065
1684.35716	0.03201
1683.07139	0.03318
1681.78563	0.03425
1680.49986	0.03535
1679.21409	0.03647
1677.92832	0.03767
1676.64255	0.03899
1675.35678	0.04032
1674.07101	0.04153
1672.78524	0.04268
1671.49947	0.04395
1670.21371	0.04530
1668.92794	0.04659
1667.64217	0.04772
1666.35640	0.04879
1665.07063	0.04994
1663.78486	0.05119
1662.49909	0.05244
1661.21332	0.05359
1659.92756	0.05461
1658.64179	0.05542
1657.35602	0.05601
1656.07025	0.05661
1654.78448	0.05753
1653.49871	0.05862
1652.21294	0.05942
1650.92717	0.05981
1649.64140	0.06017
1648.35564	0.06071
1647.06987	0.06133
1645.78410	0.06186
1644.49833	0.06227
1643.21256	0.06265
1641.92679	0.06299
1640.64102	0.06325
1639.35525	0.06344
1638.06949	0.06372
1636.78372	0.06417
1635.49795	0.06462
1634.21218	0.06485
1632.92641	0.06486
1631.64064	0.06478
1630.35487	0.06462
1629.06910	0.06434
1627.78333	0.06394
1626.49757	0.06344
1625.21180	0.06292
1623.92603	0.06235
1622.64026	0.06156
1621.35449	0.06051
1620.06872	0.05936
1618.78295	0.05835
1617.49718	0.05748
1616.21142	0.05654
1614.92565	0.05542
1613.63988	0.05427
1612.35411	0.05315
1611.06834	0.05206
1609.78257	0.05097
1608.49680	0.04991
1607.21103	0.04889
1605.92526	0.04787
1604.63950	0.04685
1603.35373	0.04586
1602.06796	0.04497
1600.78219	0.04419
1599.49642	0.04346
1598.21065	0.04275
1596.92488	0.04205
1595.63911	0.04139
1594.35335	0.04079
1593.06758	0.04024
1591.78181	0.03975
1590.49604	0.03935
1589.21027	0.03907
1587.92450	0.03887
1586.63873	0.03869
1585.35296	0.03852
1584.06719	0.03839
1582.78143	0.03830
1581.49566	0.03824
1580.20989	0.03820
1578.92412	0.03827
1577.63835	0.03861
1576.35258	0.03907
1575.06681	0.03945
1573.78104	0.03976
1572.49528	0.04021
1571.20951	0.04081
1569.92374	0.04144
1568.63797	0.04197
1567.35220	0.04249
1566.06643	0.04307
1564.78066	0.04361
1563.49489	0.04403
1562.20912	0.04450
1560.92336	0.04521
1559.63759	0.04607
1558.35182	0.04683
1557.06605	0.04749
1555.78028	0.04827
1554.49451	0.04917
1553.20874	0.04999
1551.92297	0.05067
1550.63721	0.05129
1549.35144	0.05184
1548.06567	0.05228
1546.77990	0.05268
1545.49413	0.05302
1544.20836	0.05326
1542.92259	0.05349
1541.63682	0.05386
1540.35105	0.05435
1539.06529	0.05474
1537.77952	0.05491
1536.49375	0.05506
1535.20798	0.05535
1533.92221	0.05570
1532.63644	0.05593
1531.35067	0.05605
1530.06490	0.05614
1528.77914	0.05620
1527.49337	0.05618
1526.20760	0.05603
1524.92183	0.05580
1523.63606	0.05565
1522.35029	0.05566
1521.06452	0.05566
1519.77875	0.05555
1518.49298	0.05544
1517.20722	0.05536
1515.92145	0.05519
1514.63568	0.05488
1513.34991	0.05446
1512.06414	0.05390
1510.77837	0.05321
1509.49260	0.05256
1508.20683	0.05209
1506.92107	0.05172
1505.63530	0.05119
1504.34953	0.05045
1503.06376	0.04963
1501.77799	0.04880
1500.49222	0.04792
1499.20645	0.04702
1497.92068	0.04617
1496.63491	0.04537
1495.34915	0.04452
1494.06338	0.04363
1492.77761	0.04279
1491.49184	0.04203
1490.20607	0.04125
1488.92030	0.04045
1487.63453	0.03970
1486.34876	0.03906
1485.06299	0.03850
1483.77723	0.03803
1482.49146	0.03762
1481.20569	0.03722
1479.91992	0.03681
1478.63415	0.03641
1477.34838	0.03606
1476.06261	0.03584
1474.77684	0.03583
1473.49108	0.03605
1472.20531	0.03634
1470.91954	0.03658
1469.63377	0.03680
1468.34800	0.03710
1467.06223	0.03748
1465.77646	0.03790
1464.49069	0.03832
1463.20492	0.03867
1461.91916	0.03899
1460.63339	0.03936
1459.34762	0.03992
1458.06185	0.04070
1456.77608	0.04149
1455.49031	0.04209
1454.20454	0.04254
1452.91877	0.04291
1451.63301	0.04314
1450.34724	0.04324
1449.06147	0.04326
1447.77570	0.04323
1446.48993	0.04310
1445.20416	0.04289
1443.91839	0.04264
1442.63262	0.04237
1441.34685	0.04207
1440.06109	0.04177
1438.77532	0.04154
1437.48955	0.04136
1436.20378	0.04106
1434.91801	0.04062
1433.63224	0.04018
1432.34647	0.03985
1431.06070	0.03961
1429.77494	0.03939
1428.48917	0.03915
1427.20340	0.03892
1425.91763	0.03873
1424.63186	0.03857
1423.34609	0.03842
1422.06032	0.03832
1420.77455	0.03832
1419.48878	0.03835
1418.20302	0.03828
1416.91725	0.03817
1415.63148	0.03811
1414.34571	0.03811
1413.05994	0.03811
1411.77417	0.03808
1410.48840	0.03803
1409.20263	0.03801
1407.91687	0.03805
1406.63110	0.03817
1405.34533	0.03834
1404.05956	0.03847
1402.77379	0.03851
1401.48802	0.03849
1400.20225	0.03842
1398.91648	0.03828
1397.63071	0.03812
1396.34495	0.03801
1395.05918	0.03797
1393.77341	0.03795
1392.48764	0.03788
1391.20187	0.03779
1389.91610	0.03772
1388.63033	0.03766
1387.34456	0.03758
1386.05880	0.03745
1384.77303	0.03728
1383.48726	0.03711
1382.20149	0.03695
1380.91572	0.03680
1379.62995	0.03666
1378.34418	0.03651
1377.05841	0.03633
1375.77264	0.03611
1374.48688	0.03584
1373.20111	0.03556
1371.91534	0.03528
1370.62957	0.03505
1369.34380	0.03485
1368.05803	0.03461
1366.77226	0.03431
1365.48649	0.03397
1364.20073	0.03361
1362.91496	0.03324
1361.62919	0.03289
1360.34342	0.03258
1359.05765	0.03234
1357.77188	0.03213
1356.48611	0.03193
1355.20034	0.03173
1353.91457	0.03157
1352.62881	0.03146
1351.34304	0.03139
1350.05727	0.03136
1348.77150	0.03134
1347.48573	0.03135
1346.19996	0.03142
1344.91419	0.03153
1343.62842	0.03169
1342.34266	0.03187
1341.05689	0.03204
1339.77112	0.03222
1338.48535	0.03239
1337.19958	0.03252
1335.91381	0.03258
1334.62804	0.03257
1333.34227	0.03249
1332.05650	0.03234
1330.77074	0.03214
1329.48497	0.03193
1328.19920	0.03174
1326.91343	0.03159
1325.62766	0.03148
1324.34189	0.03142
1323.05612	0.03138
1321.77035	0.03136
1320.48459	0.03133
1319.19882	0.03126
1317.91305	0.03114
1316.62728	0.03100
1315.34151	0.03090
1314.05574	0.03085
1312.76997	0.03082
1311.48420	0.03076
1310.19843	0.03067
1308.91267	0.03059
1307.62690	0.03057
1306.34113	0.03058
1305.05536	0.03055
1303.76959	0.03044
1302.48382	0.03029
1301.19805	0.03016
1299.91228	0.03007
1298.62652	0.02999
1297.34075	0.02989
1296.05498	0.02977
1294.76921	0.02968
1293.48344	0.02965
1292.19767	0.02969
1290.91190	0.02978
1289.62613	0.02988
1288.34036	0.02999
1287.05460	0.03010
1285.76883	0.03021
1284.48306	0.03032
1283.19729	0.03044
1281.91152	0.03057
1280.62575	0.03069
1279.33998	0.03075
1278.05421	0.03074
1276.76845	0.03068
1275.48268	0.03063
1274.19691	0.03063
1272.91114	0.03067
1271.62537	0.03072
1270.33960	0.03077
1269.05383	0.03083
1267.76806	0.03093
1266.48229	0.03108
1265.19653	0.03127
1263.91076	0.03147
1262.62499	0.03166
1261.33922	0.03183
1260.05345	0.03199
1258.76768	0.03213
1257.48191	0.03227
1256.19614	0.03242
1254.91037	0.03257
1253.62461	0.03272
1252.33884	0.03289
1251.05307	0.03309
1249.76730	0.03337
1248.48153	0.03372
1247.19576	0.03413
1245.90999	0.03455
1244.62422	0.03497
1243.33846	0.03538
1242.05269	0.03576
1240.76692	0.03611
1239.48115	0.03643
1238.19538	0.03671
1236.90961	0.03695
1235.62384	0.03715
1234.33807	0.03729
1233.05230	0.03735
1231.76654	0.03735
1230.48077	0.03726
1229.19500	0.03709
1227.90923	0.03685
1226.62346	0.03657
1225.33769	0.03626
1224.05192	0.03593
1222.76615	0.03556
1221.48039	0.03517
1220.19462	0.03477
1218.90885	0.03440
1217.62308	0.03408
1216.33731	0.03381
1215.05154	0.03359
1213.76577	0.03340
1212.48000	0.03323
1211.19423	0.03312
1209.90847	0.03308
1208.62270	0.03313
1207.33693	0.03323
1206.05116	0.03334
1204.76539	0.03342
1203.47962	0.03350
1202.19385	0.03354
1200.90808	0.03316
1199.62232	0.03216
1198.33655	0.03201
1197.05078	0.03188
1195.76501	0.03169
1194.47924	0.03142
1193.19347	0.03109
1191.90770	0.03078
1190.62193	0.03051
1189.33616	0.03025
1188.05040	0.02997
1186.76463	0.02967
1185.47886	0.02939
1184.19309	0.02919
1182.90732	0.02907
1181.62155	0.02899
1180.33578	0.02892
1179.05001	0.02883
1177.76425	0.02872
1176.47848	0.02861
1175.19271	0.02852
1173.90694	0.02847
1172.62117	0.02847
1171.33540	0.02854
1170.04963	0.02868
1168.76386	0.02885
1167.47809	0.02901
1166.19233	0.02918
1164.90656	0.02936
1163.62079	0.02950
1162.33502	0.02959
1161.04925	0.02966
1159.76348	0.02974
1158.47771	0.02987
1157.19194	0.02997
1155.90618	0.02999
1154.62041	0.02993
1153.33464	0.02986
1152.04887	0.02980
1150.76310	0.02971
1149.47733	0.02955
1148.19156	0.02933
1146.90579	0.02912
1145.62002	0.02893
1144.33426	0.02874
1143.04849	0.02853
1141.76272	0.02837
1140.47695	0.02835
1139.19118	0.02846
1137.90541	0.02866
1136.61964	0.02886
1135.33387	0.02903
1134.04811	0.02920
1132.76234	0.02939
1131.47657	0.02963
1130.19080	0.02996
1128.90503	0.03038
1127.61926	0.03090
1126.33349	0.03151
1125.04772	0.03222
1123.76195	0.03305
1122.47619	0.03395
1121.19042	0.03487
1119.90465	0.03580
1118.61888	0.03679
1117.33311	0.03784
1116.04734	0.03891
1114.76157	0.03996
1113.47580	0.04095
1112.19004	0.04190
1110.90427	0.04280
1109.61850	0.04366
1108.33273	0.04452
1107.04696	0.04544
1105.76119	0.04645
1104.47542	0.04745
1103.18965	0.04834
1101.90388	0.04908
1100.61812	0.04970
1099.33235	0.05025
1098.04658	0.05070
1096.76081	0.05102
1095.47504	0.05124
1094.18927	0.05142
1092.90350	0.05156
1091.61773	0.05160
1090.33197	0.05153
1089.04620	0.05143
1087.76043	0.05143
1086.47466	0.05162
1085.18889	0.05203
1083.90312	0.05263
1082.61735	0.05333
1081.33158	0.05409
1080.04581	0.05489
1078.76005	0.05571
1077.47428	0.05651
1076.18851	0.05727
1074.90274	0.05798
1073.61697	0.05870
1072.33120	0.05942
1071.04543	0.06011
1069.75966	0.06074
1068.47390	0.06133
1067.18813	0.06192
1065.90236	0.06255
1064.61659	0.06317
1063.33082	0.06377
1062.04505	0.06439
1060.75928	0.06512
1059.47351	0.06593
1058.18774	0.06673
1056.90198	0.06744
1055.61621	0.06808
1054.33044	0.06870
1053.04467	0.06932
1051.75890	0.06995
1050.47313	0.07059
1049.18736	0.07123
1047.90159	0.07188
1046.61583	0.07256
1045.33006	0.07335
1044.04429	0.07428
1042.75852	0.07532
1041.47275	0.07636
1040.18698	0.07733
1038.90121	0.07824
1037.61544	0.07917
1036.32967	0.08018
1035.04391	0.08127
1033.75814	0.08238
1032.47237	0.08340
1031.18660	0.08427
1029.90083	0.08490
1028.61506	0.08523
1027.32929	0.08516
1026.04352	0.08467
1024.75775	0.08387
1023.47199	0.08294
1022.18622	0.08199
1020.90045	0.08097
1019.61468	0.07978
1018.32891	0.07839
1017.04314	0.07684
1015.75737	0.07526
1014.47160	0.07373
1013.18584	0.07229
1011.90007	0.07097
1010.61430	0.06975
1009.32853	0.06863
1008.04276	0.06754
1006.75699	0.06650
1005.47122	0.06549
1004.18545	0.06452
1002.89968	0.06354
1001.61392	0.06250
1000.32815	0.06140
999.04238	0.06030
997.75661	0.05927
996.47084	0.05835
995.18507	0.05752
993.89930	0.05675
992.61353	0.05603
991.32777	0.05530
990.04200	0.05452
988.75623	0.05368
987.47046	0.05285
986.18469	0.05210
984.89892	0.05142
983.61315	0.05074
982.32738	0.05003
981.04161	0.04930
979.75585	0.04865
978.47008	0.04813
977.18431	0.04775
975.89854	0.04740
974.61277	0.04704
973.32700	0.04669
972.04123	0.04637
970.75546	0.04612
969.46970	0.04596
968.18393	0.04588
966.89816	0.04590
965.61239	0.04595
964.32662	0.04594
963.04085	0.04578
961.75508	0.04548
960.46931	0.04508
959.18354	0.04462
957.89778	0.04413
956.61201	0.04362
955.32624	0.04313
954.04047	0.04269
952.75470	0.04227
951.46893	0.04184
950.18316	0.04137
948.89739	0.04091
947.61163	0.04050
946.32586	0.04014
945.04009	0.03979
943.75432	0.03943
942.46855	0.03905
941.18278	0.03869
939.89701	0.03837
938.61124	0.03815
937.32547	0.03799
936.03971	0.03781
934.75394	0.03752
933.46817	0.03715
932.18240	0.03679
930.89663	0.03647
929.61086	0.03619
928.32509	0.03590
927.03932	0.03560
925.75356	0.03532
924.46779	0.03506
923.18202	0.03480
921.89625	0.03452
920.61048	0.03422
919.32471	0.03398
918.03894	0.03381
916.75317	0.03367
915.46740	0.03343
914.18164	0.03305
912.89587	0.03263
911.61010	0.03227
910.32433	0.03203
909.03856	0.03190
907.75279	0.03181
906.46702	0.03167
905.18125	0.03146
903.89549	0.03120
902.60972	0.03092
901.32395	0.03064
900.03818	0.03043
898.75241	0.03033
897.46664	0.03033
896.18087	0.03034
894.89510	0.03030
893.60933	0.03020
892.32357	0.03006
891.03780	0.02987
889.75203	0.02965
888.46626	0.02944
887.18049	0.02935
885.89472	0.02937
884.60895	0.02943
883.32318	0.02944
882.03742	0.02935
880.75165	0.02922
879.46588	0.02915
878.18011	0.02917
876.89434	0.02925
875.60857	0.02929
874.32280	0.02927
873.03703	0.02923
871.75126	0.02925
870.46550	0.02936
869.17973	0.02947
867.89396	0.02947
866.60819	0.02935
865.32242	0.02919
864.03665	0.02910
862.75088	0.02905
861.46511	0.02899
860.17935	0.02888
858.89358	0.02874
857.60781	0.02856
856.32204	0.02833
855.03627	0.02809
853.75050	0.02791
852.46473	0.02786
851.17896	0.02787
849.89319	0.02784
848.60743	0.02769
847.32166	0.02742
846.03589	0.02713
844.75012	0.02686
843.46435	0.02662
842.17858	0.02640
840.89281	0.02621
839.60704	0.02606
838.32128	0.02595
837.03551	0.02583
835.74974	0.02568
834.46397	0.02552
833.17820	0.02543
831.89243	0.02539
830.60666	0.02532
829.32089	0.02517
828.03512	0.02502
826.74936	0.02497
825.46359	0.02501
824.17782	0.02506
822.89205	0.02507
821.60628	0.02506
820.32051	0.02503
819.03474	0.02498
817.74897	0.02490
816.46321	0.02486
815.17744	0.02488
813.89167	0.02493
812.60590	0.02499
811.32013	0.02499
810.03436	0.02492
808.74859	0.02481
807.46282	0.02472
806.17705	0.02471
804.89129	0.02475
803.60552	0.02477
802.31975	0.02475
801.03398	0.02472
799.74821	0.02472
798.46244	0.02477
797.17667	0.02478
795.89090	0.02466
794.60513	0.02440
793.31937	0.02413
792.03360	0.02405
790.74783	0.02426
789.46206	0.02467
788.17629	0.02502
786.89052	0.02513
785.60475	0.02496
784.31898	0.02465
783.03322	0.02436
781.74745	0.02421
780.46168	0.02420
779.17591	0.02428
777.89014	0.02443
776.60437	0.02461
775.31860	0.02477
774.03283	0.02482
772.74706	0.02471
771.46130	0.02446
770.17553	0.02417
768.88976	0.02399
767.60399	0.02399
766.31822	0.02416
765.03245	0.02440
763.74668	0.02461
762.46091	0.02474
761.17515	0.02479
759.88938	0.02479
758.60361	0.02478
757.31784	0.02480
756.03207	0.02485
754.74630	0.02486
753.46053	0.02480
752.17476	0.02474
750.88899	0.02478
749.60323	0.02495
748.31746	0.02515
747.03169	0.02530
745.74592	0.02539
744.46015	0.02549
743.17438	0.02566
741.88861	0.02584
740.60284	0.02598
739.31708	0.02604
738.03131	0.02600
736.74554	0.02589
735.45977	0.02582
734.17400	0.02582
732.88823	0.02589
731.60246	0.02598
730.31669	0.02603
729.03092	0.02600
727.74516	0.02589
726.45939	0.02582
725.17362	0.02587
723.88785	0.02598
722.60208	0.02623
721.31631	0.02642
720.03054	0.02646
718.74477	0.02641
717.45901	0.02637
716.17324	0.02638
714.88747	0.02642
713.60170	0.02644
712.31593	0.02645
711.03016	0.02650
709.74439	0.02661
708.45862	0.02677
707.17285	0.02693
705.88709	0.02701
704.60132	0.02701
703.31555	0.02695
702.02978	0.02691
700.74401	0.02692
699.45824	0.02696
698.17247	0.02700
696.88670	0.02698
695.60094	0.02694
694.31517	0.02690
693.02940	0.02687
691.74363	0.02687
690.45786	0.02690
689.17209	0.02692
687.88632	0.02692
686.60055	0.02690
685.31478	0.02689
684.02902	0.02693
682.74325	0.02702
681.45748	0.02711
680.17171	0.02714
678.88594	0.02709
677.60017	0.02700
676.31440	0.02693
675.02863	0.02688
673.74287	0.02685
672.45710	0.02685
671.17133	0.02691
669.88556	0.02703
668.59979	0.02710
667.31402	0.02712
666.02825	0.02723
664.74248	0.02726
663.45671	0.02727
662.17095	0.02724
660.88518	0.02720
659.59941	0.02721
658.31364	0.02731
657.02787	0.02745
655.74210	0.02749
654.45633	0.02737
653.17056	0.02715
651.88480	0.02698
650.59903	0.02693
649.31326	0.02698
648.02749	0.02708
646.74172	0.02717
645.45595	0.02719
644.17018	0.02711
642.88441	0.02692
641.59864	0.02675
640.31288	0.02669
639.02711	0.02674
637.74134	0.02682
636.45557	0.02682
635.16980	0.02675
633.88403	0.02656
632.59826	0.02618
631.31249	0.02647
630.02673	0.03066
628.74096	0.03685
627.45519	0.03239
626.16942	0.03980
624.88365	0.05526
623.59788	0.06968
622.31211	0.07891
621.02634	0.08125
619.74057	0.07710
618.45481	0.06878
617.16904	0.05908
615.88327	0.05048
614.59750	0.04503
613.31173	0.04415
612.02596	0.04773
610.74019	0.05378
609.45442	0.05970
608.16866	0.06416
606.88289	0.06743
605.59712	0.06977
604.31135	0.07056
603.02558	0.06896
601.73981	0.06524
600.45404	0.06074
599.16827	0.05679
597.88250	0.05384
596.59674	0.05165
595.31097	0.04983
594.02520	0.04824
592.73943	0.04695
591.45366	0.04602
590.16789	0.04545
588.88212	0.04517
587.59635	0.04513
586.31059	0.04524
585.02482	0.04546
583.73905	0.04578
582.45328	0.04629
581.16751	0.04710
579.88174	0.04818
578.59597	0.04930
577.31020	0.05015
576.02443	0.05069
574.73867	0.05119
573.45290	0.05200
572.16713	0.05330
570.88136	0.05499
569.59559	0.05683
568.30982	0.05850
567.02405	0.05967
565.73828	0.06018
564.45251	0.06008
563.16675	0.05960
561.88098	0.05891
560.59521	0.05807
559.30944	0.05702
558.02367	0.05577
556.73790	0.05448
555.45213	0.05340
554.16636	0.05266
552.88060	0.05215
551.59483	0.05162
550.30906	0.05092
549.02329	0.05010
547.73752	0.04930
546.45175	0.04863
545.16598	0.04807
543.88021	0.04751
542.59444	0.04682
541.30868	0.04599
540.02291	0.04514
538.73714	0.04443
537.45137	0.04399
536.16560	0.04378
534.87983	0.04362
533.59406	0.04333
532.30829	0.04283
531.02253	0.04224
529.73676	0.04176
528.45099	0.04148
527.16522	0.04132
525.87945	0.04111
524.59368	0.04077
523.30791	0.04029
522.02214	0.03976
520.73637	0.03930
519.45061	0.03898
518.16484	0.03883
516.87907	0.03877
515.59330	0.03860
514.30753	0.03816
513.02176	0.03748
511.73599	0.03676
510.45022	0.03627
509.16446	0.03608
507.87869	0.03604
506.59292	0.03589
505.30715	0.03551
504.02138	0.03498
502.73561	0.03438
501.44984	0.03378
500.16407	0.03324
498.87830	0.03287
497.59254	0.03276
496.30677	0.03285
495.02100	0.03295
493.73523	0.03293
492.44946	0.03279
491.16369	0.03264
489.87792	0.03258
488.59215	0.03259
487.30639	0.03259
486.02062	0.03246
484.73485	0.03219
483.44908	0.03182
482.16331	0.03140
480.87754	0.03095
479.59177	0.03052
478.30600	0.03022
477.02023	0.03009
475.73447	0.03009
474.44870	0.03010
473.16293	0.03003
471.87716	0.02992
470.59139	0.02982
469.30562	0.02980
468.01985	0.02980
466.73408	0.02975
465.44832	0.02959
464.16255	0.02935
462.87678	0.02910
461.59101	0.02889
460.30524	0.02871
459.01947	0.02854
457.73370	0.02833
456.44793	0.02808
455.16216	0.02785
453.87640	0.02765
452.59063	0.02747
451.30486	0.02727
450.01909	0.02703
448.73332	0.02676
447.44755	0.02646
446.16178	0.02619
444.87601	0.02600
443.59025	0.02587
442.30448	0.02577
441.01871	0.02568
439.73294	0.02558
438.44717	0.02550
437.16140	0.02543
435.87563	0.02534
434.58986	0.02524
433.30409	0.02515
432.01833	0.02506
430.73256	0.02495
429.44679	0.02480
428.16102	0.02461
426.87525	0.02442
425.58948	0.02430
424.30371	0.02425
423.01794	0.02422
421.73218	0.02417
420.44641	0.02407
419.16064	0.02390
417.87487	0.02370
416.58910	0.02354
415.30333	0.02348
414.01756	0.02349
412.73179	0.02346
411.44602	0.02334
410.16026	0.02313
408.87449	0.02289
407.58872	0.02270
406.30295	0.02260
405.01718	0.02256
403.73141	0.02252
402.44564	0.02235
401.15987	0.02210
399.87411	0.02180
