3997.45528	0.02927
3996.16951	0.02860
3994.88374	0.02778
3993.59798	0.02712
3992.31221	0.02691
3991.02644	0.02714
3989.74067	0.02757
3988.45490	0.02806
3987.16913	0.02858
3985.88336	0.02917
3984.59759	0.02968
3983.31183	0.02976
3982.02606	0.02920
3980.74029	0.02826
3979.45452	0.02758
3978.16875	0.02760
3976.88298	0.02823
3975.59721	0.02886
3974.31144	0.02881
3973.02567	0.02777
3971.73991	0.02603
3970.45414	0.02427
3969.16837	0.02321
3967.88260	0.02316
3966.59683	0.02381
3965.31106	0.02455
3964.02529	0.02496
3962.73952	0.02512
3961.45376	0.02541
3960.16799	0.02604
3958.88222	0.02673
3957.59645	0.02703
3956.31068	0.02686
3955.02491	0.02650
3953.73914	0.02623
3952.45337	0.02602
3951.16760	0.02571
3949.88184	0.02537
3948.59607	0.02535
3947.31030	0.02589
3946.02453	0.02674
3944.73876	0.02728
3943.45299	0.02719
3942.16722	0.02674
3940.88145	0.02642
3939.59569	0.02641
3938.30992	0.02653
3937.02415	0.02661
3935.73838	0.02657
3934.45261	0.02639
3933.16684	0.02615
3931.88107	0.02605
3930.59530	0.02620
3929.30953	0.02652
3928.02377	0.02673
3926.73800	0.02653
3925.45223	0.02583
3924.16646	0.02490
3922.88069	0.02420
3921.59492	0.02405
3920.30915	0.02449
3919.02338	0.02525
3917.73762	0.02593
3916.45185	0.02626
3915.16608	0.02621
3913.88031	0.02592
3912.59454	0.02566
3911.30877	0.02563
3910.02300	0.02590
3908.73723	0.02628
3907.45146	0.02657
3906.16570	0.02669
3904.87993	0.02676
3903.59416	0.02686
3902.30839	0.02689
3901.02262	0.02678
3899.73685	0.02658
3898.45108	0.02633
3897.16531	0.02598
3895.87955	0.02553
3894.59378	0.02515
3893.30801	0.02500
3892.02224	0.02514
3890.73647	0.02559
3889.45070	0.02632
3888.16493	0.02715
3886.87916	0.02790
3885.59339	0.02854
3884.30763	0.02901
3883.02186	0.02911
3881.73609	0.02872
3880.45032	0.02803
3879.16455	0.02746
3877.87878	0.02734
3876.59301	0.02770
3875.30724	0.02823
3874.02148	0.02856
3872.73571	0.02842
3871.44994	0.02785
3870.16417	0.02724
3868.87840	0.02692
3867.59263	0.02682
3866.30686	0.02672
3865.02109	0.02664
3863.73532	0.02667
3862.44956	0.02662
3861.16379	0.02623
3859.87802	0.02553
3858.59225	0.02487
3857.30648	0.02457
3856.02071	0.02459
3854.73494	0.02475
3853.44917	0.02498
3852.16341	0.02517
3850.87764	0.02519
3849.59187	0.02510
3848.30610	0.02509
3847.02033	0.02513
3845.73456	0.02503
3844.44879	0.02481
3843.16302	0.02474
3841.87725	0.02504
3840.59149	0.02548
3839.30572	0.02573
3838.01995	0.02570
3836.73418	0.02564
3835.44841	0.02571
3834.16264	0.02589
3832.87687	0.02604
3831.59110	0.02597
3830.30534	0.02556
3829.01957	0.02487
3827.73380	0.02418
3826.44803	0.02377
3825.16226	0.02359
3823.87649	0.02331
3822.59072	0.02280
3821.30495	0.02239
3820.01918	0.02249
3818.73342	0.02312
3817.44765	0.02405
3816.16188	0.02506
3814.87611	0.02583
3813.59034	0.02597
3812.30457	0.02547
3811.01880	0.02479
3809.73303	0.02431
3808.44726	0.02403
3807.16150	0.02384
3805.87573	0.02373
3804.58996	0.02361
3803.30419	0.02345
3802.01842	0.02343
3800.73265	0.02376
3799.44688	0.02429
3798.16111	0.02466
3796.87535	0.02469
3795.58958	0.02444
3794.30381	0.02408
3793.01804	0.02376
3791.73227	0.02364
3790.44650	0.02373
3789.16073	0.02394
3787.87496	0.02414
3786.58919	0.02419
3785.30343	0.02401
3784.01766	0.02374
3782.73189	0.02369
3781.44612	0.02402
3780.16035	0.02466
3778.87458	0.02527
3777.58881	0.02546
3776.30304	0.02509
3775.01728	0.02440
3773.73151	0.02384
3772.44574	0.02365
3771.15997	0.02377
3769.87420	0.02403
3768.58843	0.02428
3767.30266	0.02443
3766.01689	0.02446
3764.73112	0.02444
3763.44536	0.02444
3762.15959	0.02451
3760.87382	0.02463
3759.58805	0.02474
3758.30228	0.02483
3757.01651	0.02494
3755.73074	0.02506
3754.44497	0.02505
3753.15921	0.02478
3751.87344	0.02433
3750.58767	0.02383
3749.30190	0.02342
3748.01613	0.02312
3746.73036	0.02281
3745.44459	0.02249
3744.15882	0.02238
3742.87305	0.02252
3741.58729	0.02263
3740.30152	0.02268
3739.01575	0.02278
3737.72998	0.02288
3736.44421	0.02286
3735.15844	0.02271
3733.87267	0.02247
3732.58690	0.02233
3731.30114	0.02258
3730.01537	0.02324
3728.72960	0.02398
3727.44383	0.02454
3726.15806	0.02497
3724.87229	0.02525
3723.58652	0.02524
3722.30075	0.02484
3721.01498	0.02425
3719.72922	0.02376
3718.44345	0.02358
3717.15768	0.02374
3715.87191	0.02415
3714.58614	0.02457
3713.30037	0.02473
3712.01460	0.02449
3710.72883	0.02396
3709.44307	0.02334
3708.15730	0.02281
3706.87153	0.02243
3705.58576	0.02218
3704.29999	0.02195
3703.01422	0.02168
3701.72845	0.02143
3700.44268	0.02146
3699.15691	0.02190
3697.87115	0.02250
3696.58538	0.02291
3695.29961	0.02302
3694.01384	0.02308
3692.72807	0.02328
3691.44230	0.02347
3690.15653	0.02332
3688.87076	0.02279
3687.58500	0.02219
3686.29923	0.02185
3685.01346	0.02174
3683.72769	0.02173
3682.44192	0.02174
3681.15615	0.02175
3679.87038	0.02176
3678.58461	0.02176
3677.29884	0.02183
3676.01308	0.02229
3674.72731	0.02329
3673.44154	0.02441
3672.15577	0.02509
3670.87000	0.02522
3669.58423	0.02508
3668.29846	0.02482
3667.01269	0.02439
3665.72693	0.02387
3664.44116	0.02341
3663.15539	0.02317
3661.86962	0.02314
3660.58385	0.02323
3659.29808	0.02325
3658.01231	0.02309
3656.72654	0.02290
3655.44077	0.02286
3654.15501	0.02299
3652.86924	0.02319
3651.58347	0.02341
3650.29770	0.02371
3649.01193	0.02413
3647.72616	0.02460
3646.44039	0.02498
3645.15462	0.02509
3643.86886	0.02496
3642.58309	0.02485
3641.29732	0.02508
3640.01155	0.02567
3638.72578	0.02624
3637.44001	0.02633
3636.15424	0.02589
3634.86847	0.02541
3633.58270	0.02547
3632.29694	0.02607
3631.01117	0.02674
3629.72540	0.02718
3628.43963	0.02768
3627.15386	0.02839
3625.86809	0.02899
3624.58232	0.02897
3623.29655	0.02826
3622.01079	0.02725
3620.72502	0.02659
3619.43925	0.02671
3618.15348	0.02745
3616.86771	0.02824
3615.58194	0.02863
3614.29617	0.02872
3613.01040	0.02889
3611.72463	0.02926
3610.43887	0.02964
3609.15310	0.02991
3607.86733	0.03022
3606.58156	0.03066
3605.29579	0.03115
3604.01002	0.03156
3602.72425	0.03194
3601.43848	0.03234
3600.15272	0.03265
3598.86695	0.03254
3597.58118	0.03179
3596.29541	0.03062
3595.00964	0.02970
3593.72387	0.02964
3592.43810	0.03042
3591.15233	0.03142
3589.86656	0.03201
3588.58080	0.03197
3587.29503	0.03159
3586.00926	0.03128
3584.72349	0.03127
3583.43772	0.03151
3582.15195	0.03183
3580.86618	0.03221
3579.58041	0.03263
3578.29464	0.03306
3577.00888	0.03350
3575.72311	0.03399
3574.43734	0.03458
3573.15157	0.03524
3571.86580	0.03581
3570.58003	0.03616
3569.29426	0.03630
3568.00849	0.03639
3566.72273	0.03653
3565.43696	0.03660
3564.15119	0.03645
3562.86542	0.03612
3561.57965	0.03584
3560.29388	0.03579
3559.00811	0.03591
3557.72234	0.03601
3556.43657	0.03602
3555.15081	0.03602
3553.86504	0.03620
3552.57927	0.03659
3551.29350	0.03710
3550.00773	0.03751
3548.72196	0.03772
3547.43619	0.03777
3546.15042	0.03778
3544.86466	0.03793
3543.57889	0.03831
3542.29312	0.03894
3541.00735	0.03970
3539.72158	0.04042
3538.43581	0.04092
3537.15004	0.04114
3535.86427	0.04119
3534.57850	0.04118
3533.29274	0.04119
3532.00697	0.04130
3530.72120	0.04159
3529.43543	0.04208
3528.14966	0.04264
3526.86389	0.04305
3525.57812	0.04324
3524.29235	0.04323
3523.00659	0.04303
3521.72082	0.04265
3520.43505	0.04220
3519.14928	0.04190
3517.86351	0.04188
3516.57774	0.04199
3515.29197	0.04204
3514.00620	0.04192
3512.72043	0.04173
3511.43467	0.04177
3510.14890	0.04227
3508.86313	0.04311
3507.57736	0.04383
3506.29159	0.04401
3505.00582	0.04378
3503.72005	0.04363
3502.43428	0.04390
3501.14852	0.04442
3499.86275	0.04472
3498.57698	0.04461
3497.29121	0.04432
3496.00544	0.04428
3494.71967	0.04455
3493.43390	0.04485
3492.14813	0.04493
3490.86236	0.04491
3489.57660	0.04508
3488.29083	0.04546
3487.00506	0.04579
3485.71929	0.04586
3484.43352	0.04580
3483.14775	0.04600
3481.86198	0.04664
3480.57621	0.04746
3479.29045	0.04802
3478.00468	0.04813
3476.71891	0.04810
3475.43314	0.04823
3474.14737	0.04849
3472.86160	0.04859
3471.57583	0.04847
3470.29006	0.04837
3469.00429	0.04853
3467.71853	0.04891
3466.43276	0.04933
3465.14699	0.04967
3463.86122	0.04992
3462.57545	0.05008
3461.28968	0.05016
3460.00391	0.05021
3458.71814	0.05025
3457.43238	0.05018
3456.14661	0.04993
3454.86084	0.04968
3453.57507	0.04976
3452.28930	0.05030
3451.00353	0.05102
3449.71776	0.05142
3448.43199	0.05138
3447.14622	0.05116
3445.86046	0.05111
3444.57469	0.05130
3443.28892	0.05165
3442.00315	0.05206
3440.71738	0.05244
3439.43161	0.05267
3438.14584	0.05267
3436.86007	0.05253
3435.57431	0.05246
3434.28854	0.05258
3433.00277	0.05283
3431.71700	0.05302
3430.43123	0.05305
3429.14546	0.05301
3427.85969	0.05308
3426.57392	0.05338
3425.28815	0.05375
3424.00239	0.05393
3422.71662	0.05384
3421.43085	0.05365
3420.14508	0.05353
3418.85931	0.05345
3417.57354	0.05328
3416.28777	0.05311
3415.00200	0.05326
3413.71624	0.05390
3412.43047	0.05480
3411.14470	0.05560
3409.85893	0.05605
3408.57316	0.05610
3407.28739	0.05583
3406.00162	0.05550
3404.71585	0.05543
3403.43008	0.05582
3402.14432	0.05653
3400.85855	0.05710
3399.57278	0.05714
3398.28701	0.05668
3397.00124	0.05609
3395.71547	0.05584
3394.42970	0.05610
3393.14393	0.05665
3391.85817	0.05713
3390.57240	0.05728
3389.28663	0.05718
3388.00086	0.05712
3386.71509	0.05732
3385.42932	0.05782
3384.14355	0.05841
3382.85778	0.05887
3381.57201	0.05906
3380.28625	0.05897
3379.00048	0.05868
3377.71471	0.05834
3376.42894	0.05811
3375.14317	0.05803
3373.85740	0.05809
3372.57163	0.05828
3371.28586	0.05857
3370.00010	0.05895
3368.71433	0.05939
3367.42856	0.05987
3366.14279	0.06036
3364.85702	0.06078
3363.57125	0.06108
3362.28548	0.06126
3360.99971	0.06139
3359.71394	0.06147
3358.42818	0.06157
3357.14241	0.06176
3355.85664	0.06207
3354.57087	0.06240
3353.28510	0.06266
3351.99933	0.06296
3350.71356	0.06338
3349.42779	0.06385
3348.14202	0.06415
3346.85626	0.06427
3345.57049	0.06436
3344.28472	0.06452
3342.99895	0.06472
3341.71318	0.06493
3340.42741	0.06527
3339.14164	0.06572
3337.85587	0.06604
3336.57011	0.06602
3335.28434	0.06579
3333.99857	0.06564
3332.71280	0.06570
3331.42703	0.06585
3330.14126	0.06594
3328.85549	0.06602
3327.56972	0.06629
3326.28395	0.06680
3324.99819	0.06737
3323.71242	0.06768
3322.42665	0.06766
3321.14088	0.06751
3319.85511	0.06754
3318.56934	0.06785
3317.28357	0.06834
3315.99780	0.06882
3314.71204	0.06922
3313.42627	0.06955
3312.14050	0.06979
3310.85473	0.06984
3309.56896	0.06964
3308.28319	0.06934
3306.99742	0.06914
3305.71165	0.06915
3304.42588	0.06928
3303.14012	0.06944
3301.85435	0.06959
3300.56858	0.06970
3299.28281	0.06969
3297.99704	0.06962
3296.71127	0.06967
3295.42550	0.06996
3294.13973	0.07035
3292.85397	0.07044
3291.56820	0.07006
3290.28243	0.06950
3288.99666	0.06928
3287.71089	0.06965
3286.42512	0.07040
3285.13935	0.07108
3283.85358	0.07146
3282.56781	0.07160
3281.28205	0.07168
3279.99628	0.07173
3278.71051	0.07166
3277.42474	0.07144
3276.13897	0.07115
3274.85320	0.07094
3273.56743	0.07089
3272.28166	0.07101
3270.99590	0.07124
3269.71013	0.07143
3268.42436	0.07141
3267.13859	0.07115
3265.85282	0.07072
3264.56705	0.07027
3263.28128	0.06991
3261.99551	0.06969
3260.70974	0.06961
3259.42398	0.06962
3258.13821	0.06968
3256.85244	0.06968
3255.56667	0.06957
3254.28090	0.06941
3252.99513	0.06936
3251.70936	0.06946
3250.42359	0.06952
3249.13783	0.06934
3247.85206	0.06894
3246.56629	0.06851
3245.28052	0.06819
3243.99475	0.06792
3242.70898	0.06761
3241.42321	0.06728
3240.13744	0.06708
3238.85167	0.06711
3237.56591	0.06732
3236.28014	0.06751
3234.99437	0.06751
3233.70860	0.06736
3232.42283	0.06719
3231.13706	0.06709
3229.85129	0.06706
3228.56552	0.06708
3227.27976	0.06710
3225.99399	0.06704
3224.70822	0.06687
3223.42245	0.06665
3222.13668	0.06654
3220.85091	0.06656
3219.56514	0.06654
3218.27937	0.06625
3216.99360	0.06559
3215.70784	0.06472
3214.42207	0.06391
3213.13630	0.06339
3211.85053	0.06325
3210.56476	0.06341
3209.27899	0.06373
3207.99322	0.06408
3206.70745	0.06440
3205.42169	0.06472
3204.13592	0.06500
3202.85015	0.06513
3201.56438	0.06506
3200.27861	0.06487
3198.99284	0.06469
3197.70707	0.06449
3196.42130	0.06417
3195.13553	0.06374
3193.84977	0.06336
3192.56400	0.06315
3191.27823	0.06308
3189.99246	0.06307
3188.70669	0.06309
3187.42092	0.06318
3186.13515	0.06331
3184.84938	0.06339
3183.56362	0.06332
3182.27785	0.06307
3180.99208	0.06266
3179.70631	0.06223
3178.42054	0.06188
3177.13477	0.06165
3175.84900	0.06152
3174.56323	0.06145
3173.27746	0.06139
3171.99170	0.06128
3170.70593	0.06109
3169.42016	0.06081
3168.13439	0.06048
3166.84862	0.06017
3165.56285	0.05988
3164.27708	0.05964
3162.99131	0.05952
3161.70555	0.05960
3160.41978	0.05972
3159.13401	0.05966
3157.84824	0.05931
3156.56247	0.05885
3155.27670	0.05852
3153.99093	0.05840
3152.70516	0.05834
3151.41939	0.05821
3150.13363	0.05802
3148.84786	0.05785
3147.56209	0.05774
3146.27632	0.05769
3144.99055	0.05766
3143.70478	0.05762
3142.41901	0.05749
3141.13324	0.05725
3139.84748	0.05698
3138.56171	0.05682
3137.27594	0.05673
3135.99017	0.05655
3134.70440	0.05615
3133.41863	0.05572
3132.13286	0.05553
3130.84709	0.05568
3129.56132	0.05593
3128.27556	0.05592
3126.98979	0.05559
3125.70402	0.05517
3124.41825	0.05499
3123.13248	0.05509
3121.84671	0.05526
3120.56094	0.05527
3119.27517	0.05508
3117.98940	0.05483
3116.70364	0.05468
3115.41787	0.05473
3114.13210	0.05491
3112.84633	0.05499
3111.56056	0.05483
3110.27479	0.05444
3108.98902	0.05401
3107.70325	0.05375
3106.41749	0.05369
3105.13172	0.05374
3103.84595	0.05390
3102.56018	0.05425
3101.27441	0.05481
3099.98864	0.05530
3098.70287	0.05537
3097.41710	0.05493
3096.13133	0.05431
3094.84557	0.05395
3093.55980	0.05409
3092.27403	0.05462
3090.98826	0.05524
3089.70249	0.05568
3088.41672	0.05586
3087.13095	0.05585
3085.84518	0.05573
3084.55942	0.05555
3083.27365	0.05532
3081.98788	0.05507
3080.70211	0.05486
3079.41634	0.05477
3078.13057	0.05483
3076.84480	0.05497
3075.55903	0.05508
3074.27326	0.05511
3072.98750	0.05509
3071.70173	0.05506
3070.41596	0.05505
3069.13019	0.05508
3067.84442	0.05516
3066.55865	0.05530
3065.27288	0.05544
3063.98711	0.05558
3062.70135	0.05568
3061.41558	0.05572
3060.12981	0.05563
3058.84404	0.05547
3057.55827	0.05539
3056.27250	0.05544
3054.98673	0.05547
3053.70096	0.05534
3052.41519	0.05512
3051.12943	0.05500
3049.84366	0.05505
3048.55789	0.05510
3047.27212	0.05495
3045.98635	0.05461
3044.70058	0.05429
3043.41481	0.05412
3042.12904	0.05398
3040.84328	0.05369
3039.55751	0.05320
3038.27174	0.05270
3036.98597	0.05239
3035.70020	0.05229
3034.41443	0.05231
3033.12866	0.05234
3031.84289	0.05227
3030.55712	0.05206
3029.27136	0.05174
3027.98559	0.05140
3026.69982	0.05116
3025.41405	0.05104
3024.12828	0.05107
3022.84251	0.05120
3021.55674	0.05135
3020.27097	0.05139
3018.98521	0.05129
3017.69944	0.05117
3016.41367	0.05116
3015.12790	0.05128
3013.84213	0.05145
3012.55636	0.05152
3011.27059	0.05137
3009.98482	0.05098
3008.69905	0.05044
3007.41329	0.04995
3006.12752	0.04965
3004.84175	0.04954
3003.55598	0.04954
3002.27021	0.04963
3000.98444	0.04986
2999.69867	0.05016
2998.41290	0.05036
2997.12714	0.05024
2995.84137	0.04991
2994.55560	0.04964
2993.26983	0.04961
2991.98406	0.04980
2990.69829	0.05003
2989.41252	0.05020
2988.12675	0.05027
2986.84098	0.05025
2985.55522	0.05021
2984.26945	0.05031
2982.98368	0.05062
2981.69791	0.05111
2980.41214	0.05163
2979.12637	0.05204
2977.84060	0.05232
2976.55483	0.05253
2975.26907	0.05275
2973.98330	0.05297
2972.69753	0.05318
2971.41176	0.05338
2970.12599	0.05355
2968.84022	0.05370
2967.55445	0.05385
2966.26868	0.05411
2964.98291	0.05454
2963.69715	0.05505
2962.41138	0.05547
2961.12561	0.05572
2959.83984	0.05587
2958.55407	0.05598
2957.26830	0.05598
2955.98253	0.05576
2954.69676	0.05538
2953.41100	0.05502
2952.12523	0.05479
2950.83946	0.05463
2949.55369	0.05447
2948.26792	0.05436
2946.98215	0.05441
2945.69638	0.05465
2944.41061	0.05497
2943.12484	0.05525
2941.83908	0.05551
2940.55331	0.05583
2939.26754	0.05619
2937.98177	0.05643
2936.69600	0.05651
2935.41023	0.05654
2934.12446	0.05666
2932.83869	0.05687
2931.55293	0.05710
2930.26716	0.05729
2928.98139	0.05744
2927.69562	0.05747
2926.40985	0.05737
2925.12408	0.05719
2923.83831	0.05702
2922.55254	0.05689
2921.26677	0.05675
2919.98101	0.05661
2918.69524	0.05648
2917.40947	0.05634
2916.12370	0.05605
2914.83793	0.05553
2913.55216	0.05484
2912.26639	0.05415
2910.98062	0.05363
2909.69486	0.05334
2908.40909	0.05328
2907.12332	0.05334
2905.83755	0.05337
2904.55178	0.05317
2903.26601	0.05269
2901.98024	0.05209
2900.69447	0.05162
2899.40870	0.05141
2898.12294	0.05137
2896.83717	0.05136
2895.55140	0.05128
2894.26563	0.05112
2892.97986	0.05095
2891.69409	0.05088
2890.40832	0.05092
2889.12255	0.05097
2887.83678	0.05090
2886.55102	0.05066
2885.26525	0.05035
2883.97948	0.05012
2882.69371	0.05009
2881.40794	0.05025
2880.12217	0.05042
2878.83640	0.05044
2877.55063	0.05035
2876.26487	0.05029
2874.97910	0.05035
2873.69333	0.05050
2872.40756	0.05067
2871.12179	0.05085
2869.83602	0.05093
2868.55025	0.05076
2867.26448	0.05031
2865.97871	0.04976
2864.69295	0.04933
2863.40718	0.04906
2862.12141	0.04891
2860.83564	0.04886
2859.54987	0.04896
2858.26410	0.04914
2856.97833	0.04924
2855.69256	0.04912
2854.40680	0.04882
2853.12103	0.04848
2851.83526	0.04824
2850.54949	0.04813
2849.26372	0.04807
2847.97795	0.04797
2846.69218	0.04778
2845.40641	0.04755
2844.12064	0.04730
2842.83488	0.04704
2841.54911	0.04676
2840.26334	0.04648
2838.97757	0.04623
2837.69180	0.04598
2836.40603	0.04567
2835.12026	0.04529
2833.83449	0.04490
2832.54873	0.04459
2831.26296	0.04440
2829.97719	0.04434
2828.69142	0.04437
2827.40565	0.04446
2826.11988	0.04460
2824.83411	0.04472
2823.54834	0.04476
2822.26257	0.04464
2820.97681	0.04437
2819.69104	0.04407
2818.40527	0.04386
2817.11950	0.04379
2815.83373	0.04380
2814.54796	0.04379
2813.26219	0.04366
2811.97642	0.04342
2810.69066	0.04318
2809.40489	0.04305
2808.11912	0.04303
2806.83335	0.04304
2805.54758	0.04301
2804.26181	0.04297
2802.97604	0.04289
2801.69027	0.04273
2800.40450	0.04250
2799.11874	0.04235
2797.83297	0.04240
2796.54720	0.04259
2795.26143	0.04267
2793.97566	0.04255
2792.68989	0.04239
2791.40412	0.04237
2790.11835	0.04244
2788.83259	0.04244
2787.54682	0.04235
2786.26105	0.04233
2784.97528	0.04242
2783.68951	0.04251
2782.40374	0.04244
2781.11797	0.04218
2779.83220	0.04180
2778.54643	0.04137
2777.26067	0.04095
2775.97490	0.04062
2774.68913	0.04046
2773.40336	0.04048
2772.11759	0.04056
2770.83182	0.04061
2769.54605	0.04063
2768.26028	0.04066
2766.97452	0.04073
2765.68875	0.04080
2764.40298	0.04078
2763.11721	0.04065
2761.83144	0.04042
2760.54567	0.04012
2759.25990	0.03983
2757.97413	0.03968
2756.68836	0.03968
2755.40260	0.03975
2754.11683	0.03976
2752.83106	0.03967
2751.54529	0.03954
2750.25952	0.03947
2748.97375	0.03950
2747.68798	0.03959
2746.40221	0.03968
2745.11645	0.03968
2743.83068	0.03957
2742.54491	0.03934
2741.25914	0.03902
2739.97337	0.03869
2738.68760	0.03847
2737.40183	0.03839
2736.11606	0.03839
2734.83029	0.03842
2733.54453	0.03844
2732.25876	0.03843
2730.97299	0.03837
2729.68722	0.03824
2728.40145	0.03810
2727.11568	0.03800
2725.82991	0.03801
2724.54414	0.03819
2723.25838	0.03846
2721.97261	0.03864
2720.68684	0.03854
2719.40107	0.03816
2718.11530	0.03766
2716.82953	0.03721
2715.54376	0.03690
2714.25799	0.03676
2712.97222	0.03677
2711.68646	0.03687
2710.40069	0.03698
2709.11492	0.03704
2707.82915	0.03701
2706.54338	0.03691
2705.25761	0.03676
2703.97184	0.03661
2702.68607	0.03650
2701.40031	0.03645
2700.11454	0.03647
2698.82877	0.03651
2697.54300	0.03655
2696.25723	0.03657
2694.97146	0.03651
2693.68569	0.03634
2692.39992	0.03606
2691.11415	0.03579
2689.82839	0.03566
2688.54262	0.03561
2687.25685	0.03547
2685.97108	0.03516
2684.68531	0.03480
2683.39954	0.03458
2682.11377	0.03457
2680.82800	0.03470
2679.54224	0.03492
2678.25647	0.03524
2676.97070	0.03553
2675.68493	0.03562
2674.39916	0.03549
2673.11339	0.03527
2671.82762	0.03512
2670.54185	0.03509
2669.25608	0.03515
2667.97032	0.03528
2666.68455	0.03539
2665.39878	0.03542
2664.11301	0.03531
2662.82724	0.03512
2661.54147	0.03496
2660.25570	0.03487
2658.96993	0.03477
2657.68417	0.03459
2656.39840	0.03438
2655.11263	0.03426
2653.82686	0.03433
2652.54109	0.03448
2651.25532	0.03450
2649.96955	0.03427
2648.68378	0.03386
2647.39801	0.03349
2646.11225	0.03333
2644.82648	0.03336
2643.54071	0.03345
2642.25494	0.03350
2640.96917	0.03350
2639.68340	0.03343
2638.39763	0.03327
2637.11186	0.03302
2635.82609	0.03277
2634.54033	0.03262
2633.25456	0.03263
2631.96879	0.03270
2630.68302	0.03269
2629.39725	0.03252
2628.11148	0.03221
2626.82571	0.03191
2625.53994	0.03178
2624.25418	0.03180
2622.96841	0.03185
2621.68264	0.03180
2620.39687	0.03161
2619.11110	0.03138
2617.82533	0.03121
2616.53956	0.03110
2615.25379	0.03100
2613.96802	0.03083
2612.68226	0.03054
2611.39649	0.03013
2610.11072	0.02966
2608.82495	0.02928
2607.53918	0.02910
2606.25341	0.02910
2604.96764	0.02923
2603.68187	0.02943
2602.39611	0.02961
2601.11034	0.02966
2599.82457	0.02953
2598.53880	0.02937
2597.25303	0.02934
2595.96726	0.02939
2594.68149	0.02927
2593.39572	0.02879
2592.10995	0.02809
2590.82419	0.02760
2589.53842	0.02763
2588.25265	0.02816
2586.96688	0.02887
2585.68111	0.02940
2584.39534	0.02956
2583.10957	0.02934
2581.82380	0.02886
2580.53804	0.02833
2579.25227	0.02799
2577.96650	0.02793
2576.68073	0.02807
2575.39496	0.02824
2574.10919	0.02828
2572.82342	0.02813
2571.53765	0.02789
2570.25188	0.02769
2568.96612	0.02763
2567.68035	0.02774
2566.39458	0.02800
2565.10881	0.02822
2563.82304	0.02814
2562.53727	0.02774
2561.25150	0.02729
2559.96573	0.02704
2558.67997	0.02695
2557.39420	0.02689
2556.10843	0.02689
2554.82266	0.02703
2553.53689	0.02723
2552.25112	0.02732
2550.96535	0.02723
2549.67958	0.02708
2548.39381	0.02704
2547.10805	0.02707
2545.82228	0.02706
2544.53651	0.02700
2543.25074	0.02707
2541.96497	0.02740
2540.67920	0.02782
2539.39343	0.02806
2538.10766	0.02798
2536.82190	0.02765
2535.53613	0.02724
2534.25036	0.02683
2532.96459	0.02647
2531.67882	0.02615
2530.39305	0.02586
2529.10728	0.02553
2527.82151	0.02526
2526.53574	0.02524
2525.24998	0.02562
2523.96421	0.02618
2522.67844	0.02653
2521.39267	0.02648
2520.10690	0.02614
2518.82113	0.02575
2517.53536	0.02546
2516.24959	0.02538
2514.96383	0.02557
2513.67806	0.02593
2512.39229	0.02628
2511.10652	0.02652
2509.82075	0.02664
2508.53498	0.02669
2507.24921	0.02669
2505.96344	0.02665
2504.67767	0.02656
2503.39191	0.02642
2502.10614	0.02627
2500.82037	0.02617
2499.53460	0.02619
2498.24883	0.02630
2496.96306	0.02637
2495.67729	0.02630
2494.39152	0.02607
2493.10576	0.02576
2491.81999	0.02558
2490.53422	0.02565
2489.24845	0.02593
2487.96268	0.02618
2486.67691	0.02620
2485.39114	0.02597
2484.10537	0.02558
2482.81960	0.02514
2481.53384	0.02478
2480.24807	0.02466
2478.96230	0.02480
2477.67653	0.02501
2476.39076	0.02510
2475.10499	0.02512
2473.81922	0.02531
2472.53345	0.02578
2471.24769	0.02630
2469.96192	0.02652
2468.67615	0.02629
2467.39038	0.02579
2466.10461	0.02534
2464.81884	0.02513
2463.53307	0.02507
2462.24730	0.02509
2460.96153	0.02525
2459.67577	0.02564
2458.39000	0.02619
2457.10423	0.02656
2455.81846	0.02650
2454.53269	0.02603
2453.24692	0.02544
2451.96115	0.02507
2450.67538	0.02501
2449.38962	0.02513
2448.10385	0.02525
2446.81808	0.02526
2445.53231	0.02515
2444.24654	0.02499
2442.96077	0.02489
2441.67500	0.02492
2440.38923	0.02506
2439.10346	0.02515
2437.81770	0.02511
2436.53193	0.02494
2435.24616	0.02473
2433.96039	0.02459
2432.67462	0.02456
2431.38885	0.02461
2430.10308	0.02463
2428.81731	0.02460
2427.53155	0.02463
2426.24578	0.02484
2424.96001	0.02515
2423.67424	0.02537
2422.38847	0.02535
2421.10270	0.02516
2419.81693	0.02501
2418.53116	0.02502
2417.24539	0.02516
2415.95963	0.02531
2414.67386	0.02544
2413.38809	0.02560
2412.10232	0.02580
2410.81655	0.02590
2409.53078	0.02576
2408.24501	0.02538
2406.95924	0.02494
2405.67347	0.02469
2404.38771	0.02468
2403.10194	0.02479
2401.81617	0.02489
2400.53040	0.02491
2399.24463	0.02483
2397.95886	0.02483
2396.67309	0.02496
2395.38732	0.02515
2394.10156	0.02530
2392.81579	0.02532
2391.53002	0.02525
2390.24425	0.02519
2388.95848	0.02514
2387.67271	0.02503
2386.38694	0.02482
2385.10117	0.02459
2383.81540	0.02449
2382.52964	0.02461
2381.24387	0.02493
2379.95810	0.02530
2378.67233	0.02545
2377.38656	0.02541
2376.10079	0.02534
2374.81502	0.02528
2373.52925	0.02500
2372.24349	0.02455
2370.95772	0.02424
2369.67195	0.02420
2368.38618	0.02432
2367.10041	0.02445
2365.81464	0.02464
2364.52887	0.02486
2363.24310	0.02509
2361.95733	0.02522
2360.67157	0.02514
2359.38580	0.02496
2358.10003	0.02491
2356.81426	0.02507
2355.52849	0.02539
2354.24272	0.02579
2352.95695	0.02606
2351.67118	0.02595
2350.38542	0.02569
2349.09965	0.02555
2347.81388	0.02542
2346.52811	0.02511
2345.24234	0.02495
2343.95657	0.02523
2342.67080	0.02586
2341.38503	0.02579
2340.09926	0.02511
2338.81350	0.02502
2337.52773	0.02549
2336.24196	0.02534
2334.95619	0.02492
2333.67042	0.02510
2332.38465	0.02569
2331.09888	0.02537
2329.81311	0.02528
2328.52735	0.02578
2327.24158	0.02600
2325.95581	0.02621
2324.67004	0.02660
2323.38427	0.02693
2322.09850	0.02668
2320.81273	0.02633
2319.52696	0.02587
2318.24119	0.02537
2316.95543	0.02500
2315.66966	0.02466
2314.38389	0.02446
2313.09812	0.02435
2311.81235	0.02414
2310.52658	0.02392
2309.24081	0.02368
2307.95504	0.02344
2306.66928	0.02337
2305.38351	0.02338
2304.09774	0.02337
2302.81197	0.02323
2301.52620	0.02301
2300.24043	0.02290
2298.95466	0.02299
2297.66889	0.02317
2296.38312	0.02330
2295.09736	0.02333
2293.81159	0.02324
2292.52582	0.02301
2291.24005	0.02263
2289.95428	0.02219
2288.66851	0.02191
2287.38274	0.02190
2286.09697	0.02207
2284.81121	0.02231
2283.52544	0.02256
2282.23967	0.02286
2280.95390	0.02310
2279.66813	0.02305
2278.38236	0.02260
2277.09659	0.02190
2275.81082	0.02115
2274.52505	0.02046
2273.23929	0.01986
2271.95352	0.01953
2270.66775	0.01972
2269.38198	0.02048
2268.09621	0.02144
2266.81044	0.02208
2265.52467	0.02209
2264.23890	0.02153
2262.95314	0.02073
2261.66737	0.02002
2260.38160	0.01958
2259.09583	0.01934
2257.81006	0.01920
2256.52429	0.01908
2255.23852	0.01888
2253.95275	0.01840
2252.66698	0.01757
2251.38122	0.01663
2250.09545	0.01607
2248.80968	0.01619
2247.52391	0.01674
2246.23814	0.01755
2244.95237	0.01826
2243.66660	0.01873
2242.38083	0.01907
2241.09507	0.01934
2239.80930	0.01928
2238.52353	0.01863
2237.23776	0.01752
2235.95199	0.01647
2234.66622	0.01589
2233.38045	0.01572
2232.09468	0.01566
2230.80891	0.01558
2229.52315	0.01559
2228.23738	0.01592
2226.95161	0.01655
2225.66584	0.01718
2224.38007	0.01744
2223.09430	0.01722
2221.80853	0.01678
2220.52276	0.01654
2219.23700	0.01674
2217.95123	0.01723
2216.66546	0.01766
2215.37969	0.01784
2214.09392	0.01785
2212.80815	0.01777
2211.52238	0.01734
2210.23661	0.01609
2208.95084	0.01402
2207.66508	0.01194
2206.37931	0.01090
2205.09354	0.01116
2203.80777	0.01199
2202.52200	0.01254
2201.23623	0.01251
2199.95046	0.01206
2198.66469	0.01147
2197.37893	0.01120
2196.09316	0.01175
2194.80739	0.01313
2193.52162	0.01472
2192.23585	0.01574
2190.95008	0.01580
2189.66431	0.01494
2188.37854	0.01361
2187.09277	0.01252
2185.80701	0.01222
2184.52124	0.01250
2183.23547	0.01262
2181.94970	0.01228
2180.66393	0.01196
2179.37816	0.01209
2178.09239	0.01227
2176.80662	0.01180
2175.52085	0.01066
2174.23509	0.00949
2172.94932	0.00893
2171.66355	0.00916
2170.37778	0.01005
2169.09201	0.01116
2167.80624	0.01186
2166.52047	0.01173
2165.23470	0.01104
2163.94894	0.01039
2162.66317	0.01001
2161.37740	0.00960
2160.09163	0.00893
2158.80586	0.00829
2157.52009	0.00807
2156.23432	0.00822
2154.94855	0.00848
2153.66278	0.00896
2152.37702	0.01001
2151.09125	0.01164
2149.80548	0.01324
2148.51971	0.01400
2147.23394	0.01366
2145.94817	0.01265
2144.66240	0.01168
2143.37663	0.01126
2142.09087	0.01138
2140.80510	0.01173
2139.51933	0.01205
2138.23356	0.01229
2136.94779	0.01250
2135.66202	0.01262
2134.37625	0.01256
2133.09048	0.01238
2131.80471	0.01227
2130.51895	0.01243
2129.23318	0.01285
2127.94741	0.01342
2126.66164	0.01395
2125.37587	0.01430
2124.09010	0.01438
2122.80433	0.01424
2121.51856	0.01409
2120.23280	0.01409
2118.94703	0.01416
2117.66126	0.01416
2116.37549	0.01415
2115.08972	0.01430
2113.80395	0.01458
2112.51818	0.01470
2111.23241	0.01447
2109.94664	0.01401
2108.66088	0.01369
2107.37511	0.01370
2106.08934	0.01391
2104.80357	0.01402
2103.51780	0.01390
2102.23203	0.01379
2100.94626	0.01392
2099.66049	0.01411
2098.37473	0.01412
2097.08896	0.01390
2095.80319	0.01363
2094.51742	0.01351
2093.23165	0.01349
2091.94588	0.01344
2090.66011	0.01325
2089.37434	0.01299
2088.08857	0.01277
2086.80281	0.01270
2085.51704	0.01275
2084.23127	0.01279
2082.94550	0.01277
2081.65973	0.01271
2080.37396	0.01270
2079.08819	0.01282
2077.80242	0.01304
2076.51666	0.01319
2075.23089	0.01309
2073.94512	0.01279
2072.65935	0.01256
2071.37358	0.01266
2070.08781	0.01304
2068.80204	0.01344
2067.51627	0.01356
2066.23050	0.01334
2064.94474	0.01292
2063.65897	0.01246
2062.37320	0.01207
2061.08743	0.01180
2059.80166	0.01166
2058.51589	0.01154
2057.23012	0.01122
2055.94435	0.01068
2054.65859	0.01021
2053.37282	0.01013
2052.08705	0.01042
2050.80128	0.01059
2049.51551	0.01017
2048.22974	0.00908
2046.94397	0.00774
2045.65820	0.00679
2044.37243	0.00662
2043.08667	0.00702
2041.80090	0.00742
2040.51513	0.00746
2039.22936	0.00732
2037.94359	0.00743
2036.65782	0.00793
2035.37205	0.00862
2034.08628	0.00913
2032.80052	0.00914
2031.51475	0.00855
2030.22898	0.00758
2028.94321	0.00663
2027.65744	0.00596
2026.37167	0.00546
2025.08590	0.00492
2023.80013	0.00442
2022.51436	0.00439
2021.22860	0.00513
2019.94283	0.00627
2018.65706	0.00699
2017.37129	0.00671
2016.08552	0.00562
2014.79975	0.00450
2013.51398	0.00414
2012.22821	0.00475
2010.94245	0.00595
2009.65668	0.00715
2008.37091	0.00798
2007.08514	0.00852
2005.79937	0.00896
2004.51360	0.00932
2003.22783	0.00951
2001.94206	0.00949
2000.65629	0.00934
1999.37053	0.00914
1998.08476	0.00895
1996.79899	0.00893
1995.51322	0.00929
1994.22745	0.01005
1992.94168	0.01089
1991.65591	0.01138
1990.37014	0.01129
1989.08438	0.01071
1987.79861	0.00990
1986.51284	0.00909
1985.22707	0.00850
1983.94130	0.00835
1982.65553	0.00863
1981.36976	0.00903
1980.08399	0.00905
1978.79822	0.00858
1977.51246	0.00805
1976.22669	0.00793
1974.94092	0.00819
1973.65515	0.00837
1972.36938	0.00817
1971.08361	0.00780
1969.79784	0.00771
1968.51207	0.00806
1967.22631	0.00853
1965.94054	0.00873
1964.65477	0.00861
1963.36900	0.00845
1962.08323	0.00859
1960.79746	0.00911
1959.51169	0.00981
1958.22592	0.01039
1956.94015	0.01066
1955.65439	0.01069
1954.36862	0.01064
1953.08285	0.01056
1951.79708	0.01037
1950.51131	0.01009
1949.22554	0.00983
1947.93977	0.00967
1946.65400	0.00956
1945.36823	0.00949
1944.08247	0.00963
1942.79670	0.01024
1941.51093	0.01125
1940.22516	0.01218
1938.93939	0.01253
1937.65362	0.01227
1936.36785	0.01180
1935.08208	0.01150
1933.79632	0.01151
1932.51055	0.01176
1931.22478	0.01209
1929.93901	0.01225
1928.65324	0.01206
1927.36747	0.01157
1926.08170	0.01103
1924.79593	0.01074
1923.51016	0.01078
1922.22440	0.01102
1920.93863	0.01129
1919.65286	0.01150
1918.36709	0.01171
1917.08132	0.01198
1915.79555	0.01229
1914.50978	0.01260
1913.22401	0.01292
1911.93825	0.01318
1910.65248	0.01328
1909.36671	0.01316
1908.08094	0.01289
1906.79517	0.01258
1905.50940	0.01233
1904.22363	0.01220
1902.93786	0.01220
1901.65209	0.01223
1900.36633	0.01217
1899.08056	0.01201
1897.79479	0.01184
1896.50902	0.01177
1895.22325	0.01179
1893.93748	0.01185
1892.65171	0.01195
1891.36594	0.01217
1890.08018	0.01248
1888.79441	0.01274
1887.50864	0.01281
1886.22287	0.01271
1884.93710	0.01259
1883.65133	0.01263
1882.36556	0.01285
1881.07979	0.01311
1879.79402	0.01325
1878.50826	0.01323
1877.22249	0.01311
1875.93672	0.01298
1874.65095	0.01292
1873.36518	0.01298
1872.07941	0.01312
1870.79364	0.01325
1869.50787	0.01327
1868.22211	0.01324
1866.93634	0.01327
1865.65057	0.01334
1864.36480	0.01334
1863.07903	0.01322
1861.79326	0.01305
1860.50749	0.01296
1859.22172	0.01298
1857.93595	0.01303
1856.65019	0.01304
1855.36442	0.01296
1854.07865	0.01285
1852.79288	0.01275
1851.50711	0.01267
1850.22134	0.01269
1848.93557	0.01287
1847.64980	0.01318
1846.36404	0.01345
1845.07827	0.01356
1843.79250	0.01356
1842.50673	0.01357
1841.22096	0.01359
1839.93519	0.01355
1838.64942	0.01340
1837.36365	0.01315
1836.07788	0.01285
1834.79212	0.01261
1833.50635	0.01258
1832.22058	0.01280
1830.93481	0.01319
1829.64904	0.01356
1828.36327	0.01369
1827.07750	0.01354
1825.79173	0.01322
1824.50597	0.01294
1823.22020	0.01285
1821.93443	0.01292
1820.64866	0.01303
1819.36289	0.01307
1818.07712	0.01302
1816.79135	0.01301
1815.50558	0.01317
1814.21981	0.01348
1812.93405	0.01376
1811.64828	0.01385
1810.36251	0.01380
1809.07674	0.01377
1807.79097	0.01386
1806.50520	0.01406
1805.21943	0.01422
1803.93366	0.01421
1802.64790	0.01400
1801.36213	0.01371
1800.07636	0.01349
1798.79059	0.01343
1797.50482	0.01352
1796.21905	0.01371
1794.93328	0.01389
1793.64751	0.01395
1792.36174	0.01388
1791.07598	0.01375
1789.79021	0.01365
1788.50444	0.01360
1787.21867	0.01360
1785.93290	0.01362
1784.64713	0.01362
1783.36136	0.01360
1782.07559	0.01357
1780.78983	0.01357
1779.50406	0.01361
1778.21829	0.01364
1776.93252	0.01363
1775.64675	0.01359
1774.36098	0.01355
1773.07521	0.01361
1771.78944	0.01376
1770.50367	0.01390
1769.21791	0.01392
1767.93214	0.01387
1766.64637	0.01387
1765.36060	0.01396
1764.07483	0.01407
1762.78906	0.01414
1761.50329	0.01418
1760.21752	0.01424
1758.93176	0.01431
1757.64599	0.01438
1756.36022	0.01445
1755.07445	0.01452
1753.78868	0.01453
1752.50291	0.01450
1751.21714	0.01452
1749.93137	0.01471
1748.64560	0.01500
1747.35984	0.01530
1746.07407	0.01551
1744.78830	0.01559
1743.50253	0.01564
1742.21676	0.01576
1740.93099	0.01597
1739.64522	0.01627
1738.35945	0.01660
1737.07369	0.01684
1735.78792	0.01692
1734.50215	0.01696
1733.21638	0.01708
1731.93061	0.01730
1730.64484	0.01752
1729.35907	0.01770
1728.07330	0.01790
1726.78753	0.01813
1725.50177	0.01833
1724.21600	0.01846
1722.93023	0.01855
1721.64446	0.01864
1720.35869	0.01878
1719.07292	0.01898
1717.78715	0.01926
1716.50138	0.01959
1715.21561	0.01988
1713.92985	0.02011
1712.64408	0.02032
1711.35831	0.02064
1710.07254	0.02112
1708.78677	0.02175
1707.50100	0.02245
1706.21523	0.02319
1704.92946	0.02395
1703.64370	0.02473
1702.35793	0.02548
1701.07216	0.02627
1699.78639	0.02723
1698.50062	0.02831
1697.21485	0.02933
1695.92908	0.03033
1694.64331	0.03142
1693.35754	0.03257
1692.07178	0.03364
1690.78601	0.03468
1689.50024	0.03581
1688.21447	0.03702
1686.92870	0.03819
1685.64293	0.03927
1684.35716	0.04035
1683.07139	0.04150
1681.78563	0.04268
1680.49986	0.04388
1679.21409	0.04518
1677.92832	0.04655
1676.64255	0.04789
1675.35678	0.04918
1674.07101	0.05045
1672.78524	0.05174
1671.49947	0.05305
1670.21371	0.05441
1668.92794	0.05582
1667.64217	0.05721
1666.35640	0.05852
1665.07063	0.05973
1663.78486	0.06092
1662.49909	0.06216
1661.21332	0.06341
1659.92756	0.06458
1658.64179	0.06563
1657.35602	0.06662
1656.07025	0.06755
1654.78448	0.06839
1653.49871	0.06924
1652.21294	0.07017
1650.92717	0.07107
1649.64140	0.07170
1648.35564	0.07203
1647.06987	0.07226
1645.78410	0.07257
1644.49833	0.07298
1643.21256	0.07339
1641.92679	0.07375
1640.64102	0.07404
1639.35525	0.07425
1638.06949	0.07434
1636.78372	0.07432
1635.49795	0.07429
1634.21218	0.07428
1632.92641	0.07421
1631.64064	0.07398
1630.35487	0.07356
1629.06910	0.07299
1627.78333	0.07233
1626.49757	0.07158
1625.21180	0.07072
1623.92603	0.06973
1622.64026	0.06867
1621.35449	0.06760
1620.06872	0.06648
1618.78295	0.06525
1617.49718	0.06391
1616.21142	0.06253
1614.92565	0.06115
1613.63988	0.05975
1612.35411	0.05833
1611.06834	0.05692
1609.78257	0.05555
1608.49680	0.05421
1607.21103	0.05290
1605.92526	0.05163
1604.63950	0.05043
1603.35373	0.04935
1602.06796	0.04837
1600.78219	0.04748
1599.49642	0.04666
1598.21065	0.04591
1596.92488	0.04521
1595.63911	0.04453
1594.35335	0.04389
1593.06758	0.04328
1591.78181	0.04274
1590.49604	0.04228
1589.21027	0.04195
1587.92450	0.04174
1586.63873	0.04161
1585.35296	0.04151
1584.06719	0.04140
1582.78143	0.04132
1581.49566	0.04131
1580.20989	0.04140
1578.92412	0.04153
1577.63835	0.04168
1576.35258	0.04192
1575.06681	0.04235
1573.78104	0.04287
1572.49528	0.04336
1571.20951	0.04378
1569.92374	0.04425
1568.63797	0.04482
1567.35220	0.04549
1566.06643	0.04621
1564.78066	0.04700
1563.49489	0.04784
1562.20912	0.04865
1560.92336	0.04935
1559.63759	0.05005
1558.35182	0.05086
1557.06605	0.05175
1555.78028	0.05255
1554.49451	0.05324
1553.20874	0.05392
1551.92297	0.05461
1550.63721	0.05526
1549.35144	0.05588
1548.06567	0.05645
1546.77990	0.05695
1545.49413	0.05741
1544.20836	0.05786
1542.92259	0.05828
1541.63682	0.05862
1540.35105	0.05887
1539.06529	0.05910
1537.77952	0.05934
1536.49375	0.05951
1535.20798	0.05956
1533.92221	0.05956
1532.63644	0.05956
1531.35067	0.05956
1530.06490	0.05951
1528.77914	0.05940
1527.49337	0.05927
1526.20760	0.05914
1524.92183	0.05902
1523.63606	0.05887
1522.35029	0.05869
1521.06452	0.05855
1519.77875	0.05843
1518.49298	0.05821
1517.20722	0.05783
1515.92145	0.05737
1514.63568	0.05690
1513.34991	0.05639
1512.06414	0.05586
1510.77837	0.05527
1509.49260	0.05457
1508.20683	0.05372
1506.92107	0.05281
1505.63530	0.05199
1504.34953	0.05122
1503.06376	0.05039
1501.77799	0.04943
1500.49222	0.04843
1499.20645	0.04747
1497.92068	0.04654
1496.63491	0.04563
1495.34915	0.04474
1494.06338	0.04384
1492.77761	0.04290
1491.49184	0.04198
1490.20607	0.04114
1488.92030	0.04040
1487.63453	0.03974
1486.34876	0.03911
1485.06299	0.03852
1483.77723	0.03798
1482.49146	0.03752
1481.20569	0.03719
1479.91992	0.03704
1478.63415	0.03701
1477.34838	0.03708
1476.06261	0.03721
1474.77684	0.03738
1473.49108	0.03761
1472.20531	0.03794
1470.91954	0.03835
1469.63377	0.03880
1468.34800	0.03920
1467.06223	0.03951
1465.77646	0.03975
1464.49069	0.04000
1463.20492	0.04033
1461.91916	0.04074
1460.63339	0.04118
1459.34762	0.04154
1458.06185	0.04182
1456.77608	0.04208
1455.49031	0.04239
1454.20454	0.04268
1452.91877	0.04286
1451.63301	0.04293
1450.34724	0.04292
1449.06147	0.04286
1447.77570	0.04276
1446.48993	0.04264
1445.20416	0.04247
1443.91839	0.04224
1442.63262	0.04197
1441.34685	0.04173
1440.06109	0.04155
1438.77532	0.04140
1437.48955	0.04125
1436.20378	0.04111
1434.91801	0.04095
1433.63224	0.04070
1432.34647	0.04037
1431.06070	0.04004
1429.77494	0.03980
1428.48917	0.03967
1427.20340	0.03961
1425.91763	0.03957
1424.63186	0.03954
1423.34609	0.03951
1422.06032	0.03943
1420.77455	0.03928
1419.48878	0.03913
1418.20302	0.03904
1416.91725	0.03898
1415.63148	0.03892
1414.34571	0.03886
1413.05994	0.03882
1411.77417	0.03879
1410.48840	0.03876
1409.20263	0.03872
1407.91687	0.03865
1406.63110	0.03854
1405.34533	0.03844
1404.05956	0.03836
1402.77379	0.03831
1401.48802	0.03824
1400.20225	0.03813
1398.91648	0.03800
1397.63071	0.03786
1396.34495	0.03773
1395.05918	0.03760
1393.77341	0.03750
1392.48764	0.03741
1391.20187	0.03729
1389.91610	0.03716
1388.63033	0.03702
1387.34456	0.03690
1386.05880	0.03679
1384.77303	0.03667
1383.48726	0.03653
1382.20149	0.03640
1380.91572	0.03627
1379.62995	0.03611
1378.34418	0.03592
1377.05841	0.03570
1375.77264	0.03543
1374.48688	0.03514
1373.20111	0.03483
1371.91534	0.03455
1370.62957	0.03428
1369.34380	0.03404
1368.05803	0.03379
1366.77226	0.03354
1365.48649	0.03330
1364.20073	0.03306
1362.91496	0.03282
1361.62919	0.03257
1360.34342	0.03234
1359.05765	0.03216
1357.77188	0.03203
1356.48611	0.03192
1355.20034	0.03182
1353.91457	0.03174
1352.62881	0.03173
1351.34304	0.03181
1350.05727	0.03195
1348.77150	0.03209
1347.48573	0.03220
1346.19996	0.03229
1344.91419	0.03240
1343.62842	0.03254
1342.34266	0.03269
1341.05689	0.03282
1339.77112	0.03290
1338.48535	0.03294
1337.19958	0.03295
1335.91381	0.03291
1334.62804	0.03282
1333.34227	0.03270
1332.05650	0.03258
1330.77074	0.03247
1329.48497	0.03237
1328.19920	0.03228
1326.91343	0.03221
1325.62766	0.03219
1324.34189	0.03218
1323.05612	0.03216
1321.77035	0.03212
1320.48459	0.03205
1319.19882	0.03200
1317.91305	0.03196
1316.62728	0.03192
1315.34151	0.03187
1314.05574	0.03180
1312.76997	0.03175
1311.48420	0.03171
1310.19843	0.03168
1308.91267	0.03163
1307.62690	0.03155
1306.34113	0.03142
1305.05536	0.03127
1303.76959	0.03113
1302.48382	0.03108
1301.19805	0.03111
1299.91228	0.03119
1298.62652	0.03126
1297.34075	0.03131
1296.05498	0.03133
1294.76921	0.03135
1293.48344	0.03139
1292.19767	0.03145
1290.91190	0.03153
1289.62613	0.03165
1288.34036	0.03180
1287.05460	0.03195
1285.76883	0.03210
1284.48306	0.03225
1283.19729	0.03242
1281.91152	0.03259
1280.62575	0.03275
1279.33998	0.03287
1278.05421	0.03295
1276.76845	0.03301
1275.48268	0.03308
1274.19691	0.03317
1272.91114	0.03326
1271.62537	0.03335
1270.33960	0.03346
1269.05383	0.03360
1267.76806	0.03380
1266.48229	0.03401
1265.19653	0.03422
1263.91076	0.03441
1262.62499	0.03457
1261.33922	0.03471
1260.05345	0.03481
1258.76768	0.03494
1257.48191	0.03514
1256.19614	0.03542
1254.91037	0.03576
1253.62461	0.03610
1252.33884	0.03642
1251.05307	0.03671
1249.76730	0.03699
1248.48153	0.03727
1247.19576	0.03754
1245.90999	0.03781
1244.62422	0.03808
1243.33846	0.03832
1242.05269	0.03853
1240.76692	0.03871
1239.48115	0.03888
1238.19538	0.03911
1236.90961	0.03938
1235.62384	0.03964
1234.33807	0.03980
1233.05230	0.03982
1231.76654	0.03973
1230.48077	0.03959
1229.19500	0.03944
1227.90923	0.03931
1226.62346	0.03918
1225.33769	0.03902
1224.05192	0.03882
1222.76615	0.03855
1221.48039	0.03823
1220.19462	0.03791
1218.90885	0.03764
1217.62308	0.03747
1216.33731	0.03737
1215.05154	0.03727
1213.76577	0.03714
1212.48000	0.03698
1211.19423	0.03680
1209.90847	0.03667
1208.62270	0.03662
1207.33693	0.03664
1206.05116	0.03671
1204.76539	0.03677
1203.47962	0.03678
1202.19385	0.03673
1200.90808	0.03663
1199.62232	0.03648
1198.33655	0.03631
1197.05078	0.03612
1195.76501	0.03593
1194.47924	0.03574
1193.19347	0.03558
1191.90770	0.03546
1190.62193	0.03542
1189.33616	0.03545
1188.05040	0.03545
1186.76463	0.03537
1185.47886	0.03524
1184.19309	0.03514
1182.90732	0.03512
1181.62155	0.03517
1180.33578	0.03528
1179.05001	0.03541
1177.76425	0.03557
1176.47848	0.03570
1175.19271	0.03581
1173.90694	0.03590
1172.62117	0.03602
1171.33540	0.03618
1170.04963	0.03638
1168.76386	0.03662
1167.47809	0.03688
1166.19233	0.03716
1164.90656	0.03743
1163.62079	0.03770
1162.33502	0.03799
1161.04925	0.03829
1159.76348	0.03855
1158.47771	0.03870
1157.19194	0.03875
1155.90618	0.03878
1154.62041	0.03886
1153.33464	0.03898
1152.04887	0.03910
1150.76310	0.03917
1149.47733	0.03921
1148.19156	0.03923
1146.90579	0.03927
1145.62002	0.03933
1144.33426	0.03939
1143.04849	0.03941
1141.76272	0.03938
1140.47695	0.03931
1139.19118	0.03927
1137.90541	0.03934
1136.61964	0.03955
1135.33387	0.03986
1134.04811	0.04022
1132.76234	0.04063
1131.47657	0.04114
1130.19080	0.04172
1128.90503	0.04235
1127.61926	0.04298
1126.33349	0.04363
1125.04772	0.04435
1123.76195	0.04517
1122.47619	0.04605
1121.19042	0.04696
1119.90465	0.04791
1118.61888	0.04896
1117.33311	0.05009
1116.04734	0.05123
1114.76157	0.05233
1113.47580	0.05340
1112.19004	0.05450
1110.90427	0.05565
1109.61850	0.05677
1108.33273	0.05780
1107.04696	0.05876
1105.76119	0.05971
1104.47542	0.06069
1103.18965	0.06168
1101.90388	0.06263
1100.61812	0.06348
1099.33235	0.06419
1098.04658	0.06477
1096.76081	0.06526
1095.47504	0.06570
1094.18927	0.06606
1092.90350	0.06636
1091.61773	0.06655
1090.33197	0.06661
1089.04620	0.06653
1087.76043	0.06638
1086.47466	0.06633
1085.18889	0.06651
1083.90312	0.06698
1082.61735	0.06772
1081.33158	0.06862
1080.04581	0.06959
1078.76005	0.07055
1077.47428	0.07147
1076.18851	0.07233
1074.90274	0.07315
1073.61697	0.07395
1072.33120	0.07473
1071.04543	0.07549
1069.75966	0.07622
1068.47390	0.07694
1067.18813	0.07767
1065.90236	0.07838
1064.61659	0.07908
1063.33082	0.07979
1062.04505	0.08057
1060.75928	0.08143
1059.47351	0.08233
1058.18774	0.08320
1056.90198	0.08403
1055.61621	0.08484
1054.33044	0.08569
1053.04467	0.08655
1051.75890	0.08739
1050.47313	0.08819
1049.18736	0.08898
1047.90159	0.08982
1046.61583	0.09073
1045.33006	0.09171
1044.04429	0.09273
1042.75852	0.09375
1041.47275	0.09480
1040.18698	0.09589
1038.90121	0.09701
1037.61544	0.09816
1036.32967	0.09930
1035.04391	0.10041
1033.75814	0.10147
1032.47237	0.10242
1031.18660	0.10322
1029.90083	0.10378
1028.61506	0.10401
1027.32929	0.10385
1026.04352	0.10338
1024.75775	0.10273
1023.47199	0.10195
1022.18622	0.10100
1020.90045	0.09983
1019.61468	0.09843
1018.32891	0.09683
1017.04314	0.09506
1015.75737	0.09322
1014.47160	0.09138
1013.18584	0.08959
1011.90007	0.08781
1010.61430	0.08605
1009.32853	0.08439
1008.04276	0.08288
1006.75699	0.08149
1005.47122	0.08009
1004.18545	0.07864
1002.89968	0.07716
1001.61392	0.07575
1000.32815	0.07445
999.04238	0.07321
997.75661	0.07199
996.47084	0.07076
995.18507	0.06953
993.89930	0.06832
992.61353	0.06720
991.32777	0.06621
990.04200	0.06535
988.75623	0.06456
987.47046	0.06378
986.18469	0.06299
984.89892	0.06222
983.61315	0.06150
982.32738	0.06083
981.04161	0.06012
979.75585	0.05934
978.47008	0.05854
977.18431	0.05785
975.89854	0.05731
974.61277	0.05687
973.32700	0.05646
972.04123	0.05613
970.75546	0.05598
969.46970	0.05608
968.18393	0.05638
966.89816	0.05676
965.61239	0.05705
964.32662	0.05709
963.04085	0.05683
961.75508	0.05633
960.46931	0.05574
959.18354	0.05513
957.89778	0.05456
956.61201	0.05404
955.32624	0.05357
954.04047	0.05315
952.75470	0.05269
951.46893	0.05217
950.18316	0.05160
948.89739	0.05104
947.61163	0.05057
946.32586	0.05020
945.04009	0.04987
943.75432	0.04953
942.46855	0.04913
941.18278	0.04871
939.89701	0.04831
938.61124	0.04793
937.32547	0.04757
936.03971	0.04721
934.75394	0.04683
933.46817	0.04646
932.18240	0.04608
930.89663	0.04568
929.61086	0.04525
928.32509	0.04482
927.03932	0.04440
925.75356	0.04396
924.46779	0.04349
923.18202	0.04303
921.89625	0.04266
920.61048	0.04237
919.32471	0.04208
918.03894	0.04171
916.75317	0.04127
915.46740	0.04084
914.18164	0.04048
912.89587	0.04020
911.61010	0.03995
910.32433	0.03968
909.03856	0.03940
907.75279	0.03912
906.46702	0.03883
905.18125	0.03849
903.89549	0.03809
902.60972	0.03768
901.32395	0.03736
900.03818	0.03719
898.75241	0.03713
897.46664	0.03708
896.18087	0.03694
894.89510	0.03671
893.60933	0.03649
892.32357	0.03638
891.03780	0.03636
889.75203	0.03634
888.46626	0.03627
887.18049	0.03612
885.89472	0.03595
884.60895	0.03582
883.32318	0.03578
882.03742	0.03584
880.75165	0.03596
879.46588	0.03608
878.18011	0.03618
876.89434	0.03621
875.60857	0.03614
874.32280	0.03601
873.03703	0.03590
871.75126	0.03585
870.46550	0.03582
869.17973	0.03575
867.89396	0.03562
866.60819	0.03546
865.32242	0.03533
864.03665	0.03528
862.75088	0.03532
861.46511	0.03535
860.17935	0.03525
858.89358	0.03500
857.60781	0.03464
856.32204	0.03426
855.03627	0.03390
853.75050	0.03359
852.46473	0.03335
851.17896	0.03316
849.89319	0.03294
848.60743	0.03267
847.32166	0.03238
846.03589	0.03210
844.75012	0.03185
843.46435	0.03158
842.17858	0.03134
840.89281	0.03115
839.60704	0.03103
838.32128	0.03092
837.03551	0.03073
835.74974	0.03047
834.46397	0.03019
833.17820	0.02998
831.89243	0.02991
830.60666	0.02992
829.32089	0.02990
828.03512	0.02978
826.74936	0.02965
825.46359	0.02960
824.17782	0.02961
822.89205	0.02956
821.60628	0.02940
820.32051	0.02918
819.03474	0.02899
817.74897	0.02886
816.46321	0.02878
815.17744	0.02875
813.89167	0.02877
812.60590	0.02882
811.32013	0.02887
810.03436	0.02893
808.74859	0.02897
807.46282	0.02897
806.17705	0.02888
804.89129	0.02873
803.60552	0.02859
802.31975	0.02853
801.03398	0.02856
799.74821	0.02863
798.46244	0.02870
797.17667	0.02873
795.89090	0.02869
794.60513	0.02858
793.31937	0.02838
792.03360	0.02820
790.74783	0.02811
789.46206	0.02814
788.17629	0.02820
786.89052	0.02823
785.60475	0.02824
784.31898	0.02825
783.03322	0.02828
781.74745	0.02830
780.46168	0.02831
779.17591	0.02831
777.89014	0.02828
776.60437	0.02820
775.31860	0.02811
774.03283	0.02803
772.74706	0.02796
771.46130	0.02790
770.17553	0.02790
768.88976	0.02795
767.60399	0.02804
766.31822	0.02813
765.03245	0.02823
763.74668	0.02835
762.46091	0.02848
761.17515	0.02859
759.88938	0.02864
758.60361	0.02862
757.31784	0.02856
756.03207	0.02851
754.74630	0.02850
753.46053	0.02854
752.17476	0.02860
750.88899	0.02867
749.60323	0.02867
748.31746	0.02859
747.03169	0.02849
745.74592	0.02845
744.46015	0.02853
743.17438	0.02870
741.88861	0.02888
740.60284	0.02894
739.31708	0.02886
738.03131	0.02872
736.74554	0.02866
735.45977	0.02865
734.17400	0.02863
732.88823	0.02859
731.60246	0.02863
730.31669	0.02876
729.03092	0.02890
727.74516	0.02897
726.45939	0.02902
725.17362	0.02909
723.88785	0.02914
722.60208	0.02929
721.31631	0.02948
720.03054	0.02967
718.74477	0.02980
717.45901	0.02984
716.17324	0.02977
714.88747	0.02963
713.60170	0.02947
712.31593	0.02936
711.03016	0.02931
709.74439	0.02934
708.45862	0.02942
707.17285	0.02951
705.88709	0.02959
704.60132	0.02964
703.31555	0.02966
702.02978	0.02965
700.74401	0.02963
699.45824	0.02963
698.17247	0.02964
696.88670	0.02964
695.60094	0.02964
694.31517	0.02964
693.02940	0.02962
691.74363	0.02959
690.45786	0.02954
689.17209	0.02950
687.88632	0.02949
686.60055	0.02953
685.31478	0.02958
684.02902	0.02959
682.74325	0.02954
681.45748	0.02942
680.17171	0.02928
678.88594	0.02919
677.60017	0.02919
676.31440	0.02926
675.02863	0.02934
673.74287	0.02941
672.45710	0.02946
671.17133	0.02952
669.88556	0.02959
668.59979	0.02966
667.31402	0.02973
666.02825	0.02972
664.74248	0.02966
663.45671	0.02959
662.17095	0.02953
660.88518	0.02951
659.59941	0.02954
658.31364	0.02963
657.02787	0.02975
655.74210	0.02982
654.45633	0.02983
653.17056	0.02980
651.88480	0.02978
650.59903	0.02979
649.31326	0.02980
648.02749	0.02974
646.74172	0.02962
645.45595	0.02948
644.17018	0.02935
642.88441	0.02926
641.59864	0.02918
640.31288	0.02909
639.02711	0.02898
637.74134	0.02886
636.45557	0.02875
635.16980	0.02867
633.88403	0.02863
632.59826	0.02866
631.31249	0.02877
630.02673	0.02891
628.74096	0.02897
627.45519	0.02880
626.16942	0.02819
624.88365	0.02737
623.59788	0.02696
622.31211	0.02752
621.02634	0.02888
619.74057	0.03032
618.45481	0.03141
617.16904	0.03205
615.88327	0.03215
614.59750	0.03179
613.31173	0.03153
612.02596	0.03241
610.74019	0.03524
609.45442	0.03967
608.16866	0.04400
606.88289	0.04669
605.59712	0.04759
604.31135	0.04769
603.02558	0.04782
601.73981	0.04803
600.45404	0.04791
599.16827	0.04731
597.88250	0.04636
596.59674	0.04530
595.31097	0.04426
594.02520	0.04340
592.73943	0.04283
591.45366	0.04251
590.16789	0.04230
588.88212	0.04205
587.59635	0.04178
586.31059	0.04166
585.02482	0.04183
583.73905	0.04235
582.45328	0.04323
581.16751	0.04442
579.88174	0.04579
578.59597	0.04710
577.31020	0.04820
576.02443	0.04907
574.73867	0.04979
573.45290	0.05043
572.16713	0.05102
570.88136	0.05162
569.59559	0.05238
568.30982	0.05341
567.02405	0.05463
565.73828	0.05574
564.45251	0.05644
563.16675	0.05667
561.88098	0.05652
560.59521	0.05611
559.30944	0.05548
558.02367	0.05464
556.73790	0.05367
555.45213	0.05264
554.16636	0.05164
552.88060	0.05079
551.59483	0.05015
550.30906	0.04963
549.02329	0.04911
547.73752	0.04848
546.45175	0.04784
545.16598	0.04730
543.88021	0.04693
542.59444	0.04667
541.30868	0.04644
540.02291	0.04622
538.73714	0.04598
537.45137	0.04567
536.16560	0.04531
534.87983	0.04496
533.59406	0.04474
532.30829	0.04467
531.02253	0.04465
529.73676	0.04458
528.45099	0.04441
527.16522	0.04417
525.87945	0.04387
524.59368	0.04355
523.30791	0.04321
522.02214	0.04282
520.73637	0.04238
519.45061	0.04192
518.16484	0.04153
516.87907	0.04122
515.59330	0.04096
514.30753	0.04069
513.02176	0.04046
511.73599	0.04036
510.45022	0.04038
509.16446	0.04039
507.87869	0.04021
506.59292	0.03978
505.30715	0.03921
504.02138	0.03865
502.73561	0.03817
501.44984	0.03775
500.16407	0.03736
498.87830	0.03700
497.59254	0.03670
496.30677	0.03649
495.02100	0.03630
493.73523	0.03609
492.44946	0.03581
491.16369	0.03546
489.87792	0.03508
488.59215	0.03475
487.30639	0.03451
486.02062	0.03435
484.73485	0.03422
483.44908	0.03409
482.16331	0.03391
480.87754	0.03368
479.59177	0.03342
478.30600	0.03322
477.02023	0.03312
475.73447	0.03310
474.44870	0.03310
473.16293	0.03307
471.87716	0.03301
470.59139	0.03296
469.30562	0.03293
468.01985	0.03288
466.73408	0.03273
465.44832	0.03243
464.16255	0.03202
462.87678	0.03159
461.59101	0.03126
460.30524	0.03105
459.01947	0.03086
457.73370	0.03063
456.44793	0.03038
455.16216	0.03018
453.87640	0.03003
452.59063	0.02987
451.30486	0.02964
450.01909	0.02933
448.73332	0.02899
447.44755	0.02870
446.16178	0.02849
444.87601	0.02837
443.59025	0.02828
442.30448	0.02819
441.01871	0.02806
439.73294	0.02792
438.44717	0.02776
437.16140	0.02761
435.87563	0.02750
434.58986	0.02741
433.30409	0.02733
432.01833	0.02726
430.73256	0.02722
429.44679	0.02719
428.16102	0.02712
426.87525	0.02700
425.58948	0.02682
424.30371	0.02663
423.01794	0.02645
421.73218	0.02633
420.44641	0.02625
419.16064	0.02618
417.87487	0.02609
416.58910	0.02593
415.30333	0.02573
414.01756	0.02553
412.73179	0.02535
411.44602	0.02516
410.16026	0.02497
408.87449	0.02481
407.58872	0.02467
406.30295	0.02455
405.01718	0.02444
403.73141	0.02436
402.44564	0.02435
401.15987	0.02435
399.87411	0.02436
