3997.45528	0.09081
3996.16951	0.09089
3994.88374	0.09078
3993.59798	0.09055
3992.31221	0.09032
3991.02644	0.09006
3989.74067	0.08977
3988.45490	0.08961
3987.16913	0.08971
3985.88336	0.09002
3984.59759	0.09036
3983.31183	0.09061
3982.02606	0.09065
3980.74029	0.09030
3979.45452	0.08950
3978.16875	0.08852
3976.88298	0.08782
3975.59721	0.08771
3974.31144	0.08808
3973.02567	0.08862
3971.73991	0.08908
3970.45414	0.08944
3969.16837	0.08978
3967.88260	0.09009
3966.59683	0.09014
3965.31106	0.08967
3964.02529	0.08880
3962.73952	0.08797
3961.45376	0.08758
3960.16799	0.08769
3958.88222	0.08817
3957.59645	0.08879
3956.31068	0.08924
3955.02491	0.08918
3953.73914	0.08855
3952.45337	0.08784
3951.16760	0.08769
3949.88184	0.08828
3948.59607	0.08900
3947.31030	0.08908
3946.02453	0.08826
3944.73876	0.08694
3943.45299	0.08574
3942.16722	0.08502
3940.88145	0.08488
3939.59569	0.08533
3938.30992	0.08626
3937.02415	0.08735
3935.73838	0.08823
3934.45261	0.08862
3933.16684	0.08843
3931.88107	0.08776
3930.59530	0.08689
3929.30953	0.08620
3928.02377	0.08595
3926.73800	0.08606
3925.45223	0.08620
3924.16646	0.08612
3922.88069	0.08595
3921.59492	0.08596
3920.30915	0.08623
3919.02338	0.08638
3917.73762	0.08592
3916.45185	0.08483
3915.16608	0.08372
3913.88031	0.08329
3912.59454	0.08369
3911.30877	0.08450
3910.02300	0.08515
3908.73723	0.08527
3907.45146	0.08474
3906.16570	0.08389
3904.87993	0.08331
3903.59416	0.08342
3902.30839	0.08405
3901.02262	0.08464
3899.73685	0.08480
3898.45108	0.08452
3897.16531	0.08398
3895.87955	0.08335
3894.59378	0.08271
3893.30801	0.08214
3892.02224	0.08178
3890.73647	0.08179
3889.45070	0.08225
3888.16493	0.08305
3886.87916	0.08393
3885.59339	0.08465
3884.30763	0.08510
3883.02186	0.08526
3881.73609	0.08521
3880.45032	0.08502
3879.16455	0.08471
3877.87878	0.08425
3876.59301	0.08368
3875.30724	0.08319
3874.02148	0.08299
3872.73571	0.08318
3871.44994	0.08369
3870.16417	0.08437
3868.87840	0.08497
3867.59263	0.08518
3866.30686	0.08483
3865.02109	0.08413
3863.73532	0.08359
3862.44956	0.08357
3861.16379	0.08394
3859.87802	0.08432
3858.59225	0.08445
3857.30648	0.08440
3856.02071	0.08431
3854.73494	0.08414
3853.44917	0.08379
3852.16341	0.08330
3850.87764	0.08287
3849.59187	0.08262
3848.30610	0.08247
3847.02033	0.08228
3845.73456	0.08199
3844.44879	0.08168
3843.16302	0.08154
3841.87725	0.08167
3840.59149	0.08202
3839.30572	0.08230
3838.01995	0.08218
3836.73418	0.08162
3835.44841	0.08105
3834.16264	0.08099
3832.87687	0.08155
3831.59110	0.08224
3830.30534	0.08242
3829.01957	0.08195
3827.73380	0.08121
3826.44803	0.08072
3825.16226	0.08075
3823.87649	0.08119
3822.59072	0.08166
3821.30495	0.08177
3820.01918	0.08141
3818.73342	0.08075
3817.44765	0.08014
3816.16188	0.07982
3814.87611	0.07981
3813.59034	0.07991
3812.30457	0.07984
3811.01880	0.07953
3809.73303	0.07916
3808.44726	0.07891
3807.16150	0.07880
3805.87573	0.07870
3804.58996	0.07859
3803.30419	0.07849
3802.01842	0.07838
3800.73265	0.07821
3799.44688	0.07788
3798.16111	0.07735
3796.87535	0.07677
3795.58958	0.07649
3794.30381	0.07678
3793.01804	0.07752
3791.73227	0.07827
3790.44650	0.07850
3789.16073	0.07796
3787.87496	0.07684
3786.58919	0.07570
3785.30343	0.07517
3784.01766	0.07553
3782.73189	0.07649
3781.44612	0.07741
3780.16035	0.07768
3778.87458	0.07705
3777.58881	0.07589
3776.30304	0.07492
3775.01728	0.07468
3773.73151	0.07503
3772.44574	0.07539
3771.15997	0.07541
3769.87420	0.07530
3768.58843	0.07546
3767.30266	0.07599
3766.01689	0.07655
3764.73112	0.07672
3763.44536	0.07634
3762.15959	0.07552
3760.87382	0.07460
3759.58805	0.07392
3758.30228	0.07366
3757.01651	0.07373
3755.73074	0.07388
3754.44497	0.07398
3753.15921	0.07408
3751.87344	0.07426
3750.58767	0.07460
3749.30190	0.07515
3748.01613	0.07585
3746.73036	0.07648
3745.44459	0.07676
3744.15882	0.07659
3742.87305	0.07614
3741.58729	0.07564
3740.30152	0.07524
3739.01575	0.07497
3737.72998	0.07465
3736.44421	0.07403
3735.15844	0.07307
3733.87267	0.07214
3732.58690	0.07181
3731.30114	0.07228
3730.01537	0.07314
3728.72960	0.07369
3727.44383	0.07354
3726.15806	0.07293
3724.87229	0.07235
3723.58652	0.07206
3722.30075	0.07191
3721.01498	0.07163
3719.72922	0.07124
3718.44345	0.07101
3717.15768	0.07109
3715.87191	0.07129
3714.58614	0.07125
3713.30037	0.07079
3712.01460	0.07012
3710.72883	0.06968
3709.44307	0.06971
3708.15730	0.07007
3706.87153	0.07040
3705.58576	0.07059
3704.29999	0.07074
3703.01422	0.07095
3701.72845	0.07115
3700.44268	0.07117
3699.15691	0.07097
3697.87115	0.07065
3696.58538	0.07039
3695.29961	0.07029
3694.01384	0.07027
3692.72807	0.07012
3691.44230	0.06976
3690.15653	0.06942
3688.87076	0.06944
3687.58500	0.06983
3686.29923	0.07027
3685.01346	0.07051
3683.72769	0.07069
3682.44192	0.07109
3681.15615	0.07177
3679.87038	0.07253
3678.58461	0.07305
3677.29884	0.07310
3676.01308	0.07268
3674.72731	0.07213
3673.44154	0.07190
3672.15577	0.07216
3670.87000	0.07269
3669.58423	0.07321
3668.29846	0.07360
3667.01269	0.07388
3665.72693	0.07407
3664.44116	0.07412
3663.15539	0.07410
3661.86962	0.07415
3660.58385	0.07430
3659.29808	0.07448
3658.01231	0.07458
3656.72654	0.07461
3655.44077	0.07467
3654.15501	0.07492
3652.86924	0.07536
3651.58347	0.07582
3650.29770	0.07609
3649.01193	0.07621
3647.72616	0.07644
3646.44039	0.07694
3645.15462	0.07752
3643.86886	0.07793
3642.58309	0.07820
3641.29732	0.07853
3640.01155	0.07901
3638.72578	0.07953
3637.44001	0.07999
3636.15424	0.08044
3634.86847	0.08094
3633.58270	0.08136
3632.29694	0.08156
3631.01117	0.08155
3629.72540	0.08152
3628.43963	0.08176
3627.15386	0.08239
3625.86809	0.08339
3624.58232	0.08459
3623.29655	0.08575
3622.01079	0.08663
3620.72502	0.08706
3619.43925	0.08711
3618.15348	0.08707
3616.86771	0.08714
3615.58194	0.08738
3614.29617	0.08778
3613.01040	0.08838
3611.72463	0.08920
3610.43887	0.09017
3609.15310	0.09118
3607.86733	0.09227
3606.58156	0.09357
3605.29579	0.09499
3604.01002	0.09628
3602.72425	0.09714
3601.43848	0.09752
3600.15272	0.09763
3598.86695	0.09779
3597.58118	0.09830
3596.29541	0.09920
3595.00964	0.10021
3593.72387	0.10104
3592.43810	0.10163
3591.15233	0.10220
3589.86656	0.10286
3588.58080	0.10348
3587.29503	0.10390
3586.00926	0.10424
3584.72349	0.10482
3583.43772	0.10579
3582.15195	0.10702
3580.86618	0.10821
3579.58041	0.10925
3578.29464	0.11025
3577.00888	0.11129
3575.72311	0.11230
3574.43734	0.11318
3573.15157	0.11394
3571.86580	0.11467
3570.58003	0.11538
3569.29426	0.11604
3568.00849	0.11667
3566.72273	0.11746
3565.43696	0.11854
3564.15119	0.11987
3562.86542	0.12109
3561.57965	0.12182
3560.29388	0.12203
3559.00811	0.12216
3557.72234	0.12268
3556.43657	0.12360
3555.15081	0.12453
3553.86504	0.12516
3552.57927	0.12570
3551.29350	0.12657
3550.00773	0.12792
3548.72196	0.12944
3547.43619	0.13069
3546.15042	0.13149
3544.86466	0.13194
3543.57889	0.13224
3542.29312	0.13255
3541.00735	0.13297
3539.72158	0.13368
3538.43581	0.13480
3537.15004	0.13621
3535.86427	0.13762
3534.57850	0.13876
3533.29274	0.13957
3532.00697	0.14014
3530.72120	0.14064
3529.43543	0.14128
3528.14966	0.14218
3526.86389	0.14324
3525.57812	0.14414
3524.29235	0.14466
3523.00659	0.14490
3521.72082	0.14514
3520.43505	0.14563
3519.14928	0.14652
3517.86351	0.14786
3516.57774	0.14943
3515.29197	0.15087
3514.00620	0.15190
3512.72043	0.15249
3511.43467	0.15278
3510.14890	0.15294
3508.86313	0.15312
3507.57736	0.15350
3506.29159	0.15420
3505.00582	0.15521
3503.72005	0.15637
3502.43428	0.15746
3501.14852	0.15837
3499.86275	0.15912
3498.57698	0.15983
3497.29121	0.16053
3496.00544	0.16121
3494.71967	0.16180
3493.43390	0.16230
3492.14813	0.16279
3490.86236	0.16339
3489.57660	0.16412
3488.29083	0.16485
3487.00506	0.16544
3485.71929	0.16601
3484.43352	0.16686
3483.14775	0.16815
3481.86198	0.16958
3480.57621	0.17063
3479.29045	0.17097
3478.00468	0.17067
3476.71891	0.17014
3475.43314	0.16981
3474.14737	0.16997
3472.86160	0.17061
3471.57583	0.17148
3470.29006	0.17233
3469.00429	0.17312
3467.71853	0.17400
3466.43276	0.17503
3465.14699	0.17608
3463.86122	0.17693
3462.57545	0.17755
3461.28968	0.17809
3460.00391	0.17864
3458.71814	0.17927
3457.43238	0.17995
3456.14661	0.18060
3454.86084	0.18102
3453.57507	0.18113
3452.28930	0.18116
3451.00353	0.18156
3449.71776	0.18255
3448.43199	0.18397
3447.14622	0.18535
3445.86046	0.18627
3444.57469	0.18661
3443.28892	0.18662
3442.00315	0.18675
3440.71738	0.18727
3439.43161	0.18804
3438.14584	0.18883
3436.86007	0.18959
3435.57431	0.19047
3434.28854	0.19149
3433.00277	0.19247
3431.71700	0.19319
3430.43123	0.19355
3429.14546	0.19369
3427.85969	0.19384
3426.57392	0.19423
3425.28815	0.19489
3424.00239	0.19574
3422.71662	0.19668
3421.43085	0.19760
3420.14508	0.19833
3418.85931	0.19879
3417.57354	0.19910
3416.28777	0.19953
3415.00200	0.20024
3413.71624	0.20114
3412.43047	0.20196
3411.14470	0.20259
3409.85893	0.20318
3408.57316	0.20392
3407.28739	0.20488
3406.00162	0.20595
3404.71585	0.20699
3403.43008	0.20792
3402.14432	0.20864
3400.85855	0.20909
3399.57278	0.20930
3398.28701	0.20940
3397.00124	0.20962
3395.71547	0.21008
3394.42970	0.21078
3393.14393	0.21162
3391.85817	0.21249
3390.57240	0.21323
3389.28663	0.21376
3388.00086	0.21412
3386.71509	0.21455
3385.42932	0.21533
3384.14355	0.21650
3382.85778	0.21778
3381.57201	0.21881
3380.28625	0.21947
3379.00048	0.21995
3377.71471	0.22045
3376.42894	0.22107
3375.14317	0.22184
3373.85740	0.22282
3372.57163	0.22398
3371.28586	0.22513
3370.00010	0.22604
3368.71433	0.22679
3367.42856	0.22769
3366.14279	0.22903
3364.85702	0.23070
3363.57125	0.23232
3362.28548	0.23366
3360.99971	0.23486
3359.71394	0.23623
3358.42818	0.23777
3357.14241	0.23928
3355.85664	0.24063
3354.57087	0.24191
3353.28510	0.24322
3351.99933	0.24434
3350.71356	0.24506
3349.42779	0.24549
3348.14202	0.24602
3346.85626	0.24694
3345.57049	0.24821
3344.28472	0.24965
3342.99895	0.25116
3341.71318	0.25271
3340.42741	0.25421
3339.14164	0.25554
3337.85587	0.25668
3336.57011	0.25772
3335.28434	0.25881
3333.99857	0.26007
3332.71280	0.26143
3331.42703	0.26266
3330.14126	0.26353
3328.85549	0.26404
3327.56972	0.26453
3326.28395	0.26534
3324.99819	0.26646
3323.71242	0.26755
3322.42665	0.26834
3321.14088	0.26893
3319.85511	0.26966
3318.56934	0.27068
3317.28357	0.27178
3315.99780	0.27267
3314.71204	0.27333
3313.42627	0.27406
3312.14050	0.27510
3310.85473	0.27644
3309.56896	0.27783
3308.28319	0.27906
3306.99742	0.28006
3305.71165	0.28080
3304.42588	0.28129
3303.14012	0.28156
3301.85435	0.28176
3300.56858	0.28200
3299.28281	0.28234
3297.99704	0.28279
3296.71127	0.28336
3295.42550	0.28400
3294.13973	0.28459
3292.85397	0.28504
3291.56820	0.28529
3290.28243	0.28535
3288.99666	0.28530
3287.71089	0.28527
3286.42512	0.28538
3285.13935	0.28556
3283.85358	0.28569
3282.56781	0.28557
3281.28205	0.28512
3279.99628	0.28440
3278.71051	0.28362
3277.42474	0.28305
3276.13897	0.28273
3274.85320	0.28249
3273.56743	0.28207
3272.28166	0.28140
3270.99590	0.28064
3269.71013	0.27992
3268.42436	0.27920
3267.13859	0.27837
3265.85282	0.27737
3264.56705	0.27627
3263.28128	0.27519
3261.99551	0.27414
3260.70974	0.27302
3259.42398	0.27177
3258.13821	0.27048
3256.85244	0.26937
3255.56667	0.26855
3254.28090	0.26787
3252.99513	0.26701
3251.70936	0.26581
3250.42359	0.26437
3249.13783	0.26298
3247.85206	0.26179
3246.56629	0.26079
3245.28052	0.25979
3243.99475	0.25870
3242.70898	0.25757
3241.42321	0.25654
3240.13744	0.25571
3238.85167	0.25510
3237.56591	0.25460
3236.28014	0.25403
3234.99437	0.25328
3233.70860	0.25238
3232.42283	0.25138
3231.13706	0.25033
3229.85129	0.24922
3228.56552	0.24807
3227.27976	0.24695
3225.99399	0.24592
3224.70822	0.24509
3223.42245	0.24460
3222.13668	0.24445
3220.85091	0.24444
3219.56514	0.24427
3218.27937	0.24386
3216.99360	0.24333
3215.70784	0.24282
3214.42207	0.24229
3213.13630	0.24159
3211.85053	0.24059
3210.56476	0.23931
3209.27899	0.23798
3207.99322	0.23692
3206.70745	0.23634
3205.42169	0.23617
3204.13592	0.23614
3202.85015	0.23596
3201.56438	0.23549
3200.27861	0.23469
3198.99284	0.23361
3197.70707	0.23242
3196.42130	0.23130
3195.13553	0.23029
3193.84977	0.22932
3192.56400	0.22828
3191.27823	0.22717
3189.99246	0.22605
3188.70669	0.22500
3187.42092	0.22402
3186.13515	0.22311
3184.84938	0.22220
3183.56362	0.22125
3182.27785	0.22022
3180.99208	0.21922
3179.70631	0.21834
3178.42054	0.21747
3177.13477	0.21639
3175.84900	0.21496
3174.56323	0.21341
3173.27746	0.21211
3171.99170	0.21130
3170.70593	0.21085
3169.42016	0.21044
3168.13439	0.20974
3166.84862	0.20861
3165.56285	0.20719
3164.27708	0.20581
3162.99131	0.20479
3161.70555	0.20418
3160.41978	0.20369
3159.13401	0.20298
3157.84824	0.20194
3156.56247	0.20065
3155.27670	0.19928
3153.99093	0.19790
3152.70516	0.19658
3151.41939	0.19538
3150.13363	0.19437
3148.84786	0.19355
3147.56209	0.19285
3146.27632	0.19211
3144.99055	0.19124
3143.70478	0.19022
3142.41901	0.18911
3141.13324	0.18799
3139.84748	0.18702
3138.56171	0.18636
3137.27594	0.18600
3135.99017	0.18577
3134.70440	0.18542
3133.41863	0.18492
3132.13286	0.18439
3130.84709	0.18382
3129.56132	0.18311
3128.27556	0.18224
3126.98979	0.18138
3125.70402	0.18079
3124.41825	0.18060
3123.13248	0.18069
3121.84671	0.18084
3120.56094	0.18079
3119.27517	0.18042
3117.98940	0.17976
3116.70364	0.17899
3115.41787	0.17831
3114.13210	0.17787
3112.84633	0.17776
3111.56056	0.17797
3110.27479	0.17839
3108.98902	0.17882
3107.70325	0.17909
3106.41749	0.17913
3105.13172	0.17907
3103.84595	0.17906
3102.56018	0.17910
3101.27441	0.17910
3099.98864	0.17907
3098.70287	0.17915
3097.41710	0.17941
3096.13133	0.17977
3094.84557	0.18010
3093.55980	0.18038
3092.27403	0.18067
3090.98826	0.18096
3089.70249	0.18123
3088.41672	0.18146
3087.13095	0.18168
3085.84518	0.18187
3084.55942	0.18201
3083.27365	0.18217
3081.98788	0.18246
3080.70211	0.18288
3079.41634	0.18329
3078.13057	0.18346
3076.84480	0.18330
3075.55903	0.18292
3074.27326	0.18252
3072.98750	0.18225
3071.70173	0.18207
3070.41596	0.18188
3069.13019	0.18171
3067.84442	0.18172
3066.55865	0.18193
3065.27288	0.18214
3063.98711	0.18204
3062.70135	0.18146
3061.41558	0.18057
3060.12981	0.17963
3058.84404	0.17884
3057.55827	0.17814
3056.27250	0.17739
3054.98673	0.17650
3053.70096	0.17554
3052.41519	0.17463
3051.12943	0.17385
3049.84366	0.17313
3048.55789	0.17237
3047.27212	0.17153
3045.98635	0.17066
3044.70058	0.16984
3043.41481	0.16914
3042.12904	0.16859
3040.84328	0.16811
3039.55751	0.16749
3038.27174	0.16655
3036.98597	0.16530
3035.70020	0.16397
3034.41443	0.16284
3033.12866	0.16204
3031.84289	0.16155
3030.55712	0.16118
3029.27136	0.16079
3027.98559	0.16030
3026.69982	0.15974
3025.41405	0.15916
3024.12828	0.15854
3022.84251	0.15785
3021.55674	0.15701
3020.27097	0.15600
3018.98521	0.15489
3017.69944	0.15381
3016.41367	0.15289
3015.12790	0.15224
3013.84213	0.15193
3012.55636	0.15191
3011.27059	0.15204
3009.98482	0.15211
3008.69905	0.15200
3007.41329	0.15173
3006.12752	0.15135
3004.84175	0.15089
3003.55598	0.15044
3002.27021	0.15011
3000.98444	0.15000
2999.69867	0.15020
2998.41290	0.15067
2997.12714	0.15126
2995.84137	0.15176
2994.55560	0.15206
2993.26983	0.15217
2991.98406	0.15222
2990.69829	0.15238
2989.41252	0.15283
2988.12675	0.15363
2986.84098	0.15470
2985.55522	0.15587
2984.26945	0.15712
2982.98368	0.15848
2981.69791	0.15986
2980.41214	0.16101
2979.12637	0.16182
2977.84060	0.16242
2976.55483	0.16309
2975.26907	0.16393
2973.98330	0.16487
2972.69753	0.16583
2971.41176	0.16690
2970.12599	0.16824
2968.84022	0.16984
2967.55445	0.17146
2966.26868	0.17288
2964.98291	0.17402
2963.69715	0.17496
2962.41138	0.17572
2961.12561	0.17632
2959.83984	0.17686
2958.55407	0.17739
2957.26830	0.17779
2955.98253	0.17787
2954.69676	0.17757
2953.41100	0.17714
2952.12523	0.17688
2950.83946	0.17692
2949.55369	0.17721
2948.26792	0.17764
2946.98215	0.17816
2945.69638	0.17877
2944.41061	0.17945
2943.12484	0.18019
2941.83908	0.18103
2940.55331	0.18199
2939.26754	0.18311
2937.98177	0.18435
2936.69600	0.18561
2935.41023	0.18682
2934.12446	0.18795
2932.83869	0.18901
2931.55293	0.19003
2930.26716	0.19097
2928.98139	0.19176
2927.69562	0.19226
2926.40985	0.19239
2925.12408	0.19222
2923.83831	0.19185
2922.55254	0.19125
2921.26677	0.19034
2919.98101	0.18911
2918.69524	0.18764
2917.40947	0.18600
2916.12370	0.18412
2914.83793	0.18192
2913.55216	0.17945
2912.26639	0.17692
2910.98062	0.17458
2909.69486	0.17259
2908.40909	0.17094
2907.12332	0.16952
2905.83755	0.16816
2904.55178	0.16673
2903.26601	0.16527
2901.98024	0.16390
2900.69447	0.16267
2899.40870	0.16157
2898.12294	0.16055
2896.83717	0.15964
2895.55140	0.15889
2894.26563	0.15830
2892.97986	0.15782
2891.69409	0.15740
2890.40832	0.15693
2889.12255	0.15633
2887.83678	0.15558
2886.55102	0.15479
2885.26525	0.15419
2883.97948	0.15388
2882.69371	0.15386
2881.40794	0.15402
2880.12217	0.15429
2878.83640	0.15457
2877.55063	0.15481
2876.26487	0.15496
2874.97910	0.15498
2873.69333	0.15475
2872.40756	0.15420
2871.12179	0.15346
2869.83602	0.15275
2868.55025	0.15222
2867.26448	0.15179
2865.97871	0.15129
2864.69295	0.15074
2863.40718	0.15027
2862.12141	0.15001
2860.83564	0.14995
2859.54987	0.15004
2858.26410	0.15031
2856.97833	0.15075
2855.69256	0.15133
2854.40680	0.15185
2853.12103	0.15206
2851.83526	0.15173
2850.54949	0.15077
2849.26372	0.14923
2847.97795	0.14729
2846.69218	0.14509
2845.40641	0.14280
2844.12064	0.14059
2842.83488	0.13861
2841.54911	0.13689
2840.26334	0.13537
2838.97757	0.13400
2837.69180	0.13276
2836.40603	0.13167
2835.12026	0.13072
2833.83449	0.12990
2832.54873	0.12915
2831.26296	0.12843
2829.97719	0.12776
2828.69142	0.12723
2827.40565	0.12687
2826.11988	0.12657
2824.83411	0.12618
2823.54834	0.12561
2822.26257	0.12486
2820.97681	0.12401
2819.69104	0.12319
2818.40527	0.12254
2817.11950	0.12209
2815.83373	0.12173
2814.54796	0.12133
2813.26219	0.12087
2811.97642	0.12039
2810.69066	0.11993
2809.40489	0.11949
2808.11912	0.11910
2806.83335	0.11878
2805.54758	0.11852
2804.26181	0.11827
2802.97604	0.11804
2801.69027	0.11783
2800.40450	0.11762
2799.11874	0.11734
2797.83297	0.11692
2796.54720	0.11640
2795.26143	0.11590
2793.97566	0.11546
2792.68989	0.11501
2791.40412	0.11449
2790.11835	0.11397
2788.83259	0.11351
2787.54682	0.11310
2786.26105	0.11273
2784.97528	0.11246
2783.68951	0.11240
2782.40374	0.11254
2781.11797	0.11270
2779.83220	0.11262
2778.54643	0.11224
2777.26067	0.11170
2775.97490	0.11127
2774.68913	0.11106
2773.40336	0.11095
2772.11759	0.11074
2770.83182	0.11034
2769.54605	0.10986
2768.26028	0.10945
2766.97452	0.10912
2765.68875	0.10882
2764.40298	0.10848
2763.11721	0.10812
2761.83144	0.10784
2760.54567	0.10764
2759.25990	0.10749
2757.97413	0.10730
2756.68836	0.10703
2755.40260	0.10671
2754.11683	0.10639
2752.83106	0.10606
2751.54529	0.10569
2750.25952	0.10529
2748.97375	0.10490
2747.68798	0.10457
2746.40221	0.10430
2745.11645	0.10407
2743.83068	0.10390
2742.54491	0.10377
2741.25914	0.10364
2739.97337	0.10337
2738.68760	0.10293
2737.40183	0.10243
2736.11606	0.10206
2734.83029	0.10189
2733.54453	0.10185
2732.25876	0.10180
2730.97299	0.10165
2729.68722	0.10141
2728.40145	0.10115
2727.11568	0.10091
2725.82991	0.10065
2724.54414	0.10032
2723.25838	0.09992
2721.97261	0.09943
2720.68684	0.09886
2719.40107	0.09834
2718.11530	0.09803
2716.82953	0.09797
2715.54376	0.09802
2714.25799	0.09800
2712.97222	0.09789
2711.68646	0.09773
2710.40069	0.09752
2709.11492	0.09721
2707.82915	0.09683
2706.54338	0.09650
2705.25761	0.09630
2703.97184	0.09620
2702.68607	0.09612
2701.40031	0.09604
2700.11454	0.09594
2698.82877	0.09580
2697.54300	0.09558
2696.25723	0.09533
2694.97146	0.09513
2693.68569	0.09501
2692.39992	0.09488
2691.11415	0.09467
2689.82839	0.09439
2688.54262	0.09416
2687.25685	0.09405
2685.97108	0.09405
2684.68531	0.09413
2683.39954	0.09421
2682.11377	0.09422
2680.82800	0.09410
2679.54224	0.09391
2678.25647	0.09378
2676.97070	0.09373
2675.68493	0.09368
2674.39916	0.09351
2673.11339	0.09318
2671.82762	0.09276
2670.54185	0.09238
2669.25608	0.09212
2667.97032	0.09197
2666.68455	0.09186
2665.39878	0.09179
2664.11301	0.09179
2662.82724	0.09184
2661.54147	0.09188
2660.25570	0.09177
2658.96993	0.09151
2657.68417	0.09116
2656.39840	0.09081
2655.11263	0.09050
2653.82686	0.09018
2652.54109	0.08984
2651.25532	0.08949
2649.96955	0.08916
2648.68378	0.08883
2647.39801	0.08846
2646.11225	0.08806
2644.82648	0.08768
2643.54071	0.08730
2642.25494	0.08688
2640.96917	0.08639
2639.68340	0.08588
2638.39763	0.08546
2637.11186	0.08517
2635.82609	0.08495
2634.54033	0.08471
2633.25456	0.08444
2631.96879	0.08415
2630.68302	0.08389
2629.39725	0.08367
2628.11148	0.08346
2626.82571	0.08323
2625.53994	0.08299
2624.25418	0.08276
2622.96841	0.08248
2621.68264	0.08213
2620.39687	0.08177
2619.11110	0.08145
2617.82533	0.08118
2616.53956	0.08094
2615.25379	0.08076
2613.96802	0.08065
2612.68226	0.08051
2611.39649	0.08029
2610.11072	0.08001
2608.82495	0.07968
2607.53918	0.07925
2606.25341	0.07870
2604.96764	0.07810
2603.68187	0.07763
2602.39611	0.07740
2601.11034	0.07738
2599.82457	0.07742
2598.53880	0.07741
2597.25303	0.07735
2595.96726	0.07725
2594.68149	0.07707
2593.39572	0.07672
2592.10995	0.07627
2590.82419	0.07591
2589.53842	0.07571
2588.25265	0.07554
2586.96688	0.07521
2585.68111	0.07472
2584.39534	0.07420
2583.10957	0.07381
2581.82380	0.07362
2580.53804	0.07360
2579.25227	0.07364
2577.96650	0.07361
2576.68073	0.07348
2575.39496	0.07335
2574.10919	0.07327
2572.82342	0.07322
2571.53765	0.07310
2570.25188	0.07281
2568.96612	0.07236
2567.68035	0.07181
2566.39458	0.07133
2565.10881	0.07109
2563.82304	0.07116
2562.53727	0.07142
2561.25150	0.07168
2559.96573	0.07173
2558.67997	0.07139
2557.39420	0.07069
2556.10843	0.06990
2554.82266	0.06934
2553.53689	0.06911
2552.25112	0.06905
2550.96535	0.06895
2549.67958	0.06874
2548.39381	0.06847
2547.10805	0.06820
2545.82228	0.06796
2544.53651	0.06784
2543.25074	0.06789
2541.96497	0.06801
2540.67920	0.06802
2539.39343	0.06778
2538.10766	0.06738
2536.82190	0.06695
2535.53613	0.06658
2534.25036	0.06623
2532.96459	0.06591
2531.67882	0.06563
2530.39305	0.06541
2529.10728	0.06533
2527.82151	0.06550
2526.53574	0.06596
2525.24998	0.06650
2523.96421	0.06672
2522.67844	0.06645
2521.39267	0.06587
2520.10690	0.06540
2518.82113	0.06533
2517.53536	0.06556
2516.24959	0.06583
2514.96383	0.06592
2513.67806	0.06577
2512.39229	0.06542
2511.10652	0.06485
2509.82075	0.06422
2508.53498	0.06377
2507.24921	0.06369
2505.96344	0.06392
2504.67767	0.06416
2503.39191	0.06420
2502.10614	0.06397
2500.82037	0.06359
2499.53460	0.06327
2498.24883	0.06310
2496.96306	0.06304
2495.67729	0.06294
2494.39152	0.06280
2493.10576	0.06269
2491.81999	0.06261
2490.53422	0.06253
2489.24845	0.06241
2487.96268	0.06226
2486.67691	0.06216
2485.39114	0.06210
2484.10537	0.06210
2482.81960	0.06218
2481.53384	0.06233
2480.24807	0.06249
2478.96230	0.06255
2477.67653	0.06251
2476.39076	0.06245
2475.10499	0.06245
2473.81922	0.06249
2472.53345	0.06252
2471.24769	0.06254
2469.96192	0.06252
2468.67615	0.06238
2467.39038	0.06204
2466.10461	0.06165
2464.81884	0.06148
2463.53307	0.06158
2462.24730	0.06171
2460.96153	0.06158
2459.67577	0.06118
2458.39000	0.06077
2457.10423	0.06063
2455.81846	0.06076
2454.53269	0.06094
2453.24692	0.06103
2451.96115	0.06104
2450.67538	0.06107
2449.38962	0.06112
2448.10385	0.06114
2446.81808	0.06101
2445.53231	0.06068
2444.24654	0.06015
2442.96077	0.05965
2441.67500	0.05941
2440.38923	0.05953
2439.10346	0.05981
2437.81770	0.05998
2436.53193	0.05989
2435.24616	0.05964
2433.96039	0.05946
2432.67462	0.05945
2431.38885	0.05957
2430.10308	0.05969
2428.81731	0.05967
2427.53155	0.05946
2426.24578	0.05912
2424.96001	0.05875
2423.67424	0.05849
2422.38847	0.05838
2421.10270	0.05843
2419.81693	0.05861
2418.53116	0.05889
2417.24539	0.05917
2415.95963	0.05934
2414.67386	0.05926
2413.38809	0.05890
2412.10232	0.05844
2410.81655	0.05814
2409.53078	0.05806
2408.24501	0.05803
2406.95924	0.05791
2405.67347	0.05780
2404.38771	0.05785
2403.10194	0.05802
2401.81617	0.05817
2400.53040	0.05821
2399.24463	0.05810
2397.95886	0.05794
2396.67309	0.05780
2395.38732	0.05772
2394.10156	0.05776
2392.81579	0.05789
2391.53002	0.05804
2390.24425	0.05816
2388.95848	0.05823
2387.67271	0.05822
2386.38694	0.05817
2385.10117	0.05813
2383.81540	0.05820
2382.52964	0.05836
2381.24387	0.05850
2379.95810	0.05853
2378.67233	0.05843
2377.38656	0.05829
2376.10079	0.05818
2374.81502	0.05818
2373.52925	0.05830
2372.24349	0.05848
2370.95772	0.05864
2369.67195	0.05874
2368.38618	0.05884
2367.10041	0.05903
2365.81464	0.05931
2364.52887	0.05959
2363.24310	0.05983
2361.95733	0.06000
2360.67157	0.06008
2359.38580	0.06000
2358.10003	0.05975
2356.81426	0.05942
2355.52849	0.05912
2354.24272	0.05890
2352.95695	0.05875
2351.67118	0.05866
2350.38542	0.05864
2349.09965	0.05869
2347.81388	0.05877
2346.52811	0.05887
2345.24234	0.05895
2343.95657	0.05895
2342.67080	0.05889
2341.38503	0.05889
2340.09926	0.05895
2338.81350	0.05890
2337.52773	0.05873
2336.24196	0.05864
2334.95619	0.05865
2333.67042	0.05858
2332.38465	0.05835
2331.09888	0.05810
2329.81311	0.05782
2328.52735	0.05760
2327.24158	0.05781
2325.95581	0.05827
2324.67004	0.05855
2323.38427	0.05858
2322.09850	0.05838
2320.81273	0.05793
2319.52696	0.05749
2318.24119	0.05707
2316.95543	0.05659
2315.66966	0.05615
2314.38389	0.05573
2313.09812	0.05520
2311.81235	0.05458
2310.52658	0.05394
2309.24081	0.05346
2307.95504	0.05326
2306.66928	0.05327
2305.38351	0.05339
2304.09774	0.05353
2302.81197	0.05359
2301.52620	0.05341
2300.24043	0.05292
2298.95466	0.05227
2297.66889	0.05175
2296.38312	0.05151
2295.09736	0.05144
2293.81159	0.05132
2292.52582	0.05108
2291.24005	0.05077
2289.95428	0.05048
2288.66851	0.05018
2287.38274	0.04988
2286.09697	0.04957
2284.81121	0.04926
2283.52544	0.04893
2282.23967	0.04859
2280.95390	0.04830
2279.66813	0.04806
2278.38236	0.04786
2277.09659	0.04767
2275.81082	0.04738
2274.52505	0.04681
2273.23929	0.04593
2271.95352	0.04497
2270.66775	0.04422
2269.38198	0.04374
2268.09621	0.04336
2266.81044	0.04294
2265.52467	0.04257
2264.23890	0.04240
2262.95314	0.04250
2261.66737	0.04280
2260.38160	0.04317
2259.09583	0.04347
2257.81006	0.04358
2256.52429	0.04338
2255.23852	0.04279
2253.95275	0.04191
2252.66698	0.04103
2251.38122	0.04050
2250.09545	0.04049
2248.80968	0.04087
2247.52391	0.04105
2246.23814	0.04115
2244.95237	0.04114
2243.66660	0.04087
2242.38083	0.04033
2241.09507	0.03985
2239.80930	0.03979
2238.52353	0.04013
2237.23776	0.04038
2235.95199	0.04009
2234.66622	0.03923
2233.38045	0.03818
2232.09468	0.03752
2230.80891	0.03762
2229.52315	0.03836
2228.23738	0.03912
2226.95161	0.03918
2225.66584	0.03838
2224.38007	0.03716
2223.09430	0.03611
2221.80853	0.03552
2220.52276	0.03533
2219.23700	0.03531
2217.95123	0.03526
2216.66546	0.03513
2215.37969	0.03495
2214.09392	0.03475
2212.80815	0.03460
2211.52238	0.03460
2210.23661	0.03477
2208.95084	0.03494
2207.66508	0.03489
2206.37931	0.03462
2205.09354	0.03432
2203.80777	0.03415
2202.52200	0.03401
2201.23623	0.03365
2199.95046	0.03294
2198.66469	0.03204
2197.37893	0.03126
2196.09316	0.03082
2194.80739	0.03092
2193.52162	0.03155
2192.23585	0.03238
2190.95008	0.03268
2189.66431	0.03190
2188.37854	0.03025
2187.09277	0.02861
2185.80701	0.02780
2184.52124	0.02788
2183.23547	0.02828
2181.94970	0.02865
2180.66393	0.02912
2179.37816	0.02992
2178.09239	0.03075
2176.80662	0.03105
2175.52085	0.03062
2174.23509	0.02991
2172.94932	0.02940
2171.66355	0.02895
2170.37778	0.02803
2169.09201	0.02642
2167.80624	0.02451
2166.52047	0.02289
2165.23470	0.02182
2163.94894	0.02132
2162.66317	0.02121
2161.37740	0.02111
2160.09163	0.02064
2158.80586	0.02005
2157.52009	0.02003
2156.23432	0.02074
2154.94855	0.02167
2153.66278	0.02248
2152.37702	0.02334
2151.09125	0.02443
2149.80548	0.02569
2148.51971	0.02688
2147.23394	0.02776
2145.94817	0.02814
2144.66240	0.02805
2143.37663	0.02784
2142.09087	0.02780
2140.80510	0.02787
2139.51933	0.02789
2138.23356	0.02791
2136.94779	0.02805
2135.66202	0.02830
2134.37625	0.02859
2133.09048	0.02897
2131.80471	0.02960
2130.51895	0.03048
2129.23318	0.03147
2127.94741	0.03236
2126.66164	0.03313
2125.37587	0.03380
2124.09010	0.03426
2122.80433	0.03442
2121.51856	0.03443
2120.23280	0.03464
2118.94703	0.03521
2117.66126	0.03592
2116.37549	0.03642
2115.08972	0.03653
2113.80395	0.03633
2112.51818	0.03598
2111.23241	0.03563
2109.94664	0.03535
2108.66088	0.03513
2107.37511	0.03502
2106.08934	0.03500
2104.80357	0.03499
2103.51780	0.03490
2102.23203	0.03478
2100.94626	0.03472
2099.66049	0.03428
2098.37473	0.03401
2097.08896	0.03383
2095.80319	0.03358
2094.51742	0.03336
2093.23165	0.03329
2091.94588	0.03339
2090.66011	0.03350
2089.37434	0.03344
2088.08857	0.03321
2086.80281	0.03292
2085.51704	0.03268
2084.23127	0.03256
2082.94550	0.03265
2081.65973	0.03291
2080.37396	0.03312
2079.08819	0.03297
2077.80242	0.03241
2076.51666	0.03158
2075.23089	0.03071
2073.94512	0.02993
2072.65935	0.02931
2071.37358	0.02888
2070.08781	0.02870
2068.80204	0.02881
2067.51627	0.02924
2066.23050	0.02991
2064.94474	0.03058
2063.65897	0.03087
2062.37320	0.03054
2061.08743	0.02965
2059.80166	0.02853
2058.51589	0.02761
2057.23012	0.02707
2055.94435	0.02681
2054.65859	0.02658
2053.37282	0.02620
2052.08705	0.02564
2050.80128	0.02495
2049.51551	0.02413
2048.22974	0.02311
2046.94397	0.02204
2045.65820	0.02129
2044.37243	0.02106
2043.08667	0.02109
2041.80090	0.02086
2040.51513	0.02019
2039.22936	0.01940
2037.94359	0.01885
2036.65782	0.01857
2035.37205	0.01837
2034.08628	0.01815
2032.80052	0.01793
2031.51475	0.01779
2030.22898	0.01787
2028.94321	0.01835
2027.65744	0.01938
2026.37167	0.02086
2025.08590	0.02248
2023.80013	0.02370
2022.51436	0.02391
2021.22860	0.02291
2019.94283	0.02125
2018.65706	0.01993
2017.37129	0.01952
2016.08552	0.01980
2014.79975	0.02028
2013.51398	0.02090
2012.22821	0.02168
2010.94245	0.02223
2009.65668	0.02200
2008.37091	0.02102
2007.08514	0.02002
2005.79937	0.01972
2004.51360	0.02017
2003.22783	0.02088
2001.94206	0.02141
2000.65629	0.02173
1999.37053	0.02209
1998.08476	0.02274
1996.79899	0.02369
1995.51322	0.02466
1994.22745	0.02536
1992.94168	0.02562
1991.65591	0.02549
1990.37014	0.02522
1989.08438	0.02499
1987.79861	0.02483
1986.51284	0.02459
1985.22707	0.02418
1983.94130	0.02365
1982.65553	0.02301
1981.36976	0.02214
1980.08399	0.02096
1978.79822	0.01965
1977.51246	0.01861
1976.22669	0.01816
1974.94092	0.01839
1973.65515	0.01926
1972.36938	0.02062
1971.08361	0.02214
1969.79784	0.02330
1968.51207	0.02374
1967.22631	0.02347
1965.94054	0.02284
1964.65477	0.02228
1963.36900	0.02203
1962.08323	0.02209
1960.79746	0.02220
1959.51169	0.02206
1958.22592	0.02161
1956.94015	0.02125
1955.65439	0.02135
1954.36862	0.02189
1953.08285	0.02256
1951.79708	0.02320
1950.51131	0.02392
1949.22554	0.02475
1947.93977	0.02544
1946.65400	0.02580
1945.36823	0.02597
1944.08247	0.02621
1942.79670	0.02658
1941.51093	0.02686
1940.22516	0.02691
1938.93939	0.02677
1937.65362	0.02667
1936.36785	0.02669
1935.08208	0.02678
1933.79632	0.02684
1932.51055	0.02686
1931.22478	0.02691
1929.93901	0.02704
1928.65324	0.02718
1927.36747	0.02730
1926.08170	0.02739
1924.79593	0.02752
1923.51016	0.02769
1922.22440	0.02791
1920.93863	0.02813
1919.65286	0.02828
1918.36709	0.02835
1917.08132	0.02843
1915.79555	0.02863
1914.50978	0.02897
1913.22401	0.02933
1911.93825	0.02962
1910.65248	0.02983
1909.36671	0.02993
1908.08094	0.02988
1906.79517	0.02968
1905.50940	0.02946
1904.22363	0.02934
1902.93786	0.02931
1901.65209	0.02923
1900.36633	0.02910
1899.08056	0.02904
1897.79479	0.02913
1896.50902	0.02929
1895.22325	0.02938
1893.93748	0.02933
1892.65171	0.02923
1891.36594	0.02915
1890.08018	0.02917
1888.79441	0.02929
1887.50864	0.02944
1886.22287	0.02955
1884.93710	0.02961
1883.65133	0.02962
1882.36556	0.02956
1881.07979	0.02939
1879.79402	0.02913
1878.50826	0.02889
1877.22249	0.02872
1875.93672	0.02858
1874.65095	0.02844
1873.36518	0.02838
1872.07941	0.02852
1870.79364	0.02881
1869.50787	0.02907
1868.22211	0.02914
1866.93634	0.02905
1865.65057	0.02889
1864.36480	0.02871
1863.07903	0.02853
1861.79326	0.02835
1860.50749	0.02820
1859.22172	0.02807
1857.93595	0.02791
1856.65019	0.02774
1855.36442	0.02766
1854.07865	0.02775
1852.79288	0.02797
1851.50711	0.02822
1850.22134	0.02841
1848.93557	0.02853
1847.64980	0.02865
1846.36404	0.02881
1845.07827	0.02901
1843.79250	0.02918
1842.50673	0.02925
1841.22096	0.02917
1839.93519	0.02896
1838.64942	0.02871
1837.36365	0.02851
1836.07788	0.02837
1834.79212	0.02831
1833.50635	0.02832
1832.22058	0.02842
1830.93481	0.02861
1829.64904	0.02883
1828.36327	0.02903
1827.07750	0.02912
1825.79173	0.02903
1824.50597	0.02877
1823.22020	0.02841
1821.93443	0.02809
1820.64866	0.02789
1819.36289	0.02782
1818.07712	0.02788
1816.79135	0.02805
1815.50558	0.02831
1814.21981	0.02855
1812.93405	0.02868
1811.64828	0.02865
1810.36251	0.02851
1809.07674	0.02841
1807.79097	0.02842
1806.50520	0.02853
1805.21943	0.02864
1803.93366	0.02868
1802.64790	0.02870
1801.36213	0.02877
1800.07636	0.02890
1798.79059	0.02903
1797.50482	0.02910
1796.21905	0.02910
1794.93328	0.02910
1793.64751	0.02916
1792.36174	0.02929
1791.07598	0.02938
1789.79021	0.02932
1788.50444	0.02911
1787.21867	0.02889
1785.93290	0.02876
1784.64713	0.02877
1783.36136	0.02887
1782.07559	0.02901
1780.78983	0.02915
1779.50406	0.02926
1778.21829	0.02934
1776.93252	0.02941
1775.64675	0.02951
1774.36098	0.02965
1773.07521	0.02978
1771.78944	0.02987
1770.50367	0.02994
1769.21791	0.03001
1767.93214	0.03013
1766.64637	0.03028
1765.36060	0.03049
1764.07483	0.03072
1762.78906	0.03093
1761.50329	0.03109
1760.21752	0.03121
1758.93176	0.03136
1757.64599	0.03160
1756.36022	0.03198
1755.07445	0.03255
1753.78868	0.03328
1752.50291	0.03411
1751.21714	0.03494
1749.93137	0.03568
1748.64560	0.03634
1747.35984	0.03700
1746.07407	0.03774
1744.78830	0.03856
1743.50253	0.03944
1742.21676	0.04031
1740.93099	0.04116
1739.64522	0.04200
1738.35945	0.04288
1737.07369	0.04381
1735.78792	0.04476
1734.50215	0.04570
1733.21638	0.04659
1731.93061	0.04742
1730.64484	0.04819
1729.35907	0.04889
1728.07330	0.04956
1726.78753	0.05027
1725.50177	0.05110
1724.21600	0.05202
1722.93023	0.05296
1721.64446	0.05386
1720.35869	0.05476
1719.07292	0.05571
1717.78715	0.05669
1716.50138	0.05763
1715.21561	0.05854
1713.92985	0.05953
1712.64408	0.06075
1711.35831	0.06224
1710.07254	0.06396
1708.78677	0.06590
1707.50100	0.06809
1706.21523	0.07056
1704.92946	0.07333
1703.64370	0.07646
1702.35793	0.07997
1701.07216	0.08387
1699.78639	0.08808
1698.50062	0.09248
1697.21485	0.09705
1695.92908	0.10173
1694.64331	0.10642
1693.35754	0.11103
1692.07178	0.11559
1690.78601	0.12017
1689.50024	0.12485
1688.21447	0.12969
1686.92870	0.13480
1685.64293	0.14022
1684.35716	0.14586
1683.07139	0.15157
1681.78563	0.15728
1680.49986	0.16311
1679.21409	0.16921
1677.92832	0.17563
1676.64255	0.18231
1675.35678	0.18913
1674.07101	0.19604
1672.78524	0.20303
1671.49947	0.21019
1670.21371	0.21757
1668.92794	0.22509
1667.64217	0.23258
1666.35640	0.23992
1665.07063	0.24711
1663.78486	0.25418
1662.49909	0.26109
1661.21332	0.26775
1659.92756	0.27411
1658.64179	0.28011
1657.35602	0.28576
1656.07025	0.29111
1654.78448	0.29622
1653.49871	0.30098
1652.21294	0.30517
1650.92717	0.30866
1649.64140	0.31158
1648.35564	0.31414
1647.06987	0.31649
1645.78410	0.31862
1644.49833	0.32054
1643.21256	0.32228
1641.92679	0.32389
1640.64102	0.32540
1639.35525	0.32681
1638.06949	0.32812
1636.78372	0.32926
1635.49795	0.33007
1634.21218	0.33039
1632.92641	0.33013
1631.64064	0.32925
1630.35487	0.32767
1629.06910	0.32525
1627.78333	0.32190
1626.49757	0.31763
1625.21180	0.31249
1623.92603	0.30657
1622.64026	0.29997
1621.35449	0.29280
1620.06872	0.28518
1618.78295	0.27722
1617.49718	0.26903
1616.21142	0.26071
1614.92565	0.25239
1613.63988	0.24416
1612.35411	0.23605
1611.06834	0.22807
1609.78257	0.22029
1608.49680	0.21280
1607.21103	0.20568
1605.92526	0.19899
1604.63950	0.19274
1603.35373	0.18692
1602.06796	0.18152
1600.78219	0.17655
1599.49642	0.17201
1598.21065	0.16789
1596.92488	0.16420
1595.63911	0.16090
1594.35335	0.15795
1593.06758	0.15537
1591.78181	0.15320
1590.49604	0.15146
1589.21027	0.15016
1587.92450	0.14924
1586.63873	0.14864
1585.35296	0.14833
1584.06719	0.14833
1582.78143	0.14862
1581.49566	0.14921
1580.20989	0.15015
1578.92412	0.15151
1577.63835	0.15335
1576.35258	0.15566
1575.06681	0.15832
1573.78104	0.16123
1572.49528	0.16436
1571.20951	0.16774
1569.92374	0.17140
1568.63797	0.17529
1567.35220	0.17934
1566.06643	0.18354
1564.78066	0.18791
1563.49489	0.19246
1562.20912	0.19719
1560.92336	0.20208
1559.63759	0.20700
1558.35182	0.21178
1557.06605	0.21630
1555.78028	0.22058
1554.49451	0.22470
1553.20874	0.22864
1551.92297	0.23232
1550.63721	0.23567
1549.35144	0.23869
1548.06567	0.24143
1546.77990	0.24391
1545.49413	0.24614
1544.20836	0.24808
1542.92259	0.24974
1541.63682	0.25111
1540.35105	0.25217
1539.06529	0.25287
1537.77952	0.25319
1536.49375	0.25316
1535.20798	0.25288
1533.92221	0.25241
1532.63644	0.25174
1531.35067	0.25085
1530.06490	0.24978
1528.77914	0.24858
1527.49337	0.24726
1526.20760	0.24582
1524.92183	0.24427
1523.63606	0.24268
1522.35029	0.24107
1521.06452	0.23941
1519.77875	0.23764
1518.49298	0.23565
1517.20722	0.23332
1515.92145	0.23049
1514.63568	0.22705
1513.34991	0.22304
1512.06414	0.21860
1510.77837	0.21391
1509.49260	0.20909
1508.20683	0.20415
1506.92107	0.19906
1505.63530	0.19379
1504.34953	0.18844
1503.06376	0.18314
1501.77799	0.17801
1500.49222	0.17306
1499.20645	0.16825
1497.92068	0.16349
1496.63491	0.15871
1495.34915	0.15394
1494.06338	0.14928
1492.77761	0.14483
1491.49184	0.14062
1490.20607	0.13668
1488.92030	0.13306
1487.63453	0.12983
1486.34876	0.12706
1485.06299	0.12475
1483.77723	0.12293
1482.49146	0.12159
1481.20569	0.12071
1479.91992	0.12028
1478.63415	0.12031
1477.34838	0.12081
1476.06261	0.12186
1474.77684	0.12347
1473.49108	0.12557
1472.20531	0.12799
1470.91954	0.13048
1469.63377	0.13283
1468.34800	0.13494
1467.06223	0.13682
1465.77646	0.13858
1464.49069	0.14033
1463.20492	0.14217
1461.91916	0.14413
1460.63339	0.14620
1459.34762	0.14836
1458.06185	0.15058
1456.77608	0.15268
1455.49031	0.15444
1454.20454	0.15571
1452.91877	0.15650
1451.63301	0.15688
1450.34724	0.15693
1449.06147	0.15667
1447.77570	0.15613
1446.48993	0.15537
1445.20416	0.15442
1443.91839	0.15334
1442.63262	0.15212
1441.34685	0.15076
1440.06109	0.14926
1438.77532	0.14758
1437.48955	0.14574
1436.20378	0.14375
1434.91801	0.14166
1433.63224	0.13955
1432.34647	0.13755
1431.06070	0.13578
1429.77494	0.13432
1428.48917	0.13319
1427.20340	0.13237
1425.91763	0.13178
1424.63186	0.13138
1423.34609	0.13113
1422.06032	0.13106
1420.77455	0.13118
1419.48878	0.13143
1418.20302	0.13170
1416.91725	0.13192
1415.63148	0.13209
1414.34571	0.13230
1413.05994	0.13261
1411.77417	0.13298
1410.48840	0.13336
1409.20263	0.13370
1407.91687	0.13402
1406.63110	0.13430
1405.34533	0.13452
1404.05956	0.13465
1402.77379	0.13471
1401.48802	0.13469
1400.20225	0.13462
1398.91648	0.13447
1397.63071	0.13428
1396.34495	0.13410
1395.05918	0.13400
1393.77341	0.13396
1392.48764	0.13395
1391.20187	0.13396
1389.91610	0.13395
1388.63033	0.13389
1387.34456	0.13376
1386.05880	0.13353
1384.77303	0.13318
1383.48726	0.13269
1382.20149	0.13211
1380.91572	0.13148
1379.62995	0.13084
1378.34418	0.13012
1377.05841	0.12929
1375.77264	0.12834
1374.48688	0.12728
1373.20111	0.12615
1371.91534	0.12499
1370.62957	0.12377
1369.34380	0.12246
1368.05803	0.12101
1366.77226	0.11946
1365.48649	0.11790
1364.20073	0.11646
1362.91496	0.11521
1361.62919	0.11415
1360.34342	0.11324
1359.05765	0.11249
1357.77188	0.11193
1356.48611	0.11158
1355.20034	0.11146
1353.91457	0.11157
1352.62881	0.11187
1351.34304	0.11231
1350.05727	0.11288
1348.77150	0.11357
1347.48573	0.11435
1346.19996	0.11518
1344.91419	0.11604
1343.62842	0.11690
1342.34266	0.11773
1341.05689	0.11845
1339.77112	0.11899
1338.48535	0.11933
1337.19958	0.11946
1335.91381	0.11935
1334.62804	0.11897
1333.34227	0.11835
1332.05650	0.11756
1330.77074	0.11673
1329.48497	0.11588
1328.19920	0.11504
1326.91343	0.11422
1325.62766	0.11346
1324.34189	0.11287
1323.05612	0.11248
1321.77035	0.11226
1320.48459	0.11213
1319.19882	0.11203
1317.91305	0.11192
1316.62728	0.11177
1315.34151	0.11160
1314.05574	0.11140
1312.76997	0.11116
1311.48420	0.11088
1310.19843	0.11055
1308.91267	0.11019
1307.62690	0.10985
1306.34113	0.10954
1305.05536	0.10929
1303.76959	0.10909
1302.48382	0.10892
1301.19805	0.10875
1299.91228	0.10860
1298.62652	0.10850
1297.34075	0.10849
1296.05498	0.10864
1294.76921	0.10895
1293.48344	0.10943
1292.19767	0.10999
1290.91190	0.11061
1289.62613	0.11128
1288.34036	0.11201
1287.05460	0.11280
1285.76883	0.11363
1284.48306	0.11446
1283.19729	0.11523
1281.91152	0.11586
1280.62575	0.11632
1279.33998	0.11662
1278.05421	0.11685
1276.76845	0.11706
1275.48268	0.11730
1274.19691	0.11754
1272.91114	0.11780
1271.62537	0.11810
1270.33960	0.11849
1269.05383	0.11898
1267.76806	0.11960
1266.48229	0.12035
1265.19653	0.12122
1263.91076	0.12218
1262.62499	0.12319
1261.33922	0.12422
1260.05345	0.12524
1258.76768	0.12624
1257.48191	0.12720
1256.19614	0.12819
1254.91037	0.12925
1253.62461	0.13042
1252.33884	0.13172
1251.05307	0.13311
1249.76730	0.13461
1248.48153	0.13617
1247.19576	0.13775
1245.90999	0.13930
1244.62422	0.14079
1243.33846	0.14223
1242.05269	0.14359
1240.76692	0.14480
1239.48115	0.14578
1238.19538	0.14649
1236.90961	0.14692
1235.62384	0.14711
1234.33807	0.14710
1233.05230	0.14685
1231.76654	0.14632
1230.48077	0.14549
1229.19500	0.14437
1227.90923	0.14298
1226.62346	0.14140
1225.33769	0.13970
1224.05192	0.13797
1222.76615	0.13623
1221.48039	0.13450
1220.19462	0.13282
1218.90885	0.13118
1217.62308	0.12963
1216.33731	0.12822
1215.05154	0.12701
1213.76577	0.12608
1212.48000	0.12544
1211.19423	0.12505
1209.90847	0.12481
1208.62270	0.12467
1207.33693	0.12456
1206.05116	0.12446
1204.76539	0.12427
1203.47962	0.12393
1202.19385	0.12338
1200.90808	0.12264
1199.62232	0.12176
1198.33655	0.12069
1197.05078	0.11950
1195.76501	0.11822
1194.47924	0.11692
1193.19347	0.11567
1191.90770	0.11452
1190.62193	0.11346
1189.33616	0.11249
1188.05040	0.11161
1186.76463	0.11083
1185.47886	0.11017
1184.19309	0.10963
1182.90732	0.10921
1181.62155	0.10893
1180.33578	0.10882
1179.05001	0.10882
1177.76425	0.10884
1176.47848	0.10882
1175.19271	0.10880
1173.90694	0.10884
1172.62117	0.10899
1171.33540	0.10923
1170.04963	0.10944
1168.76386	0.10955
1167.47809	0.10957
1166.19233	0.10954
1164.90656	0.10950
1163.62079	0.10945
1162.33502	0.10936
1161.04925	0.10923
1159.76348	0.10906
1158.47771	0.10875
1157.19194	0.10825
1155.90618	0.10754
1154.62041	0.10671
1153.33464	0.10584
1152.04887	0.10498
1150.76310	0.10411
1149.47733	0.10319
1148.19156	0.10221
1146.90579	0.10121
1145.62002	0.10026
1144.33426	0.09942
1143.04849	0.09867
1141.76272	0.09797
1140.47695	0.09732
1139.19118	0.09672
1137.90541	0.09618
1136.61964	0.09574
1135.33387	0.09540
1134.04811	0.09518
1132.76234	0.09504
1131.47657	0.09492
1130.19080	0.09482
1128.90503	0.09474
1127.61926	0.09471
1126.33349	0.09468
1125.04772	0.09464
1123.76195	0.09459
1122.47619	0.09458
1121.19042	0.09461
1119.90465	0.09471
1118.61888	0.09486
1117.33311	0.09509
1116.04734	0.09535
1114.76157	0.09560
1113.47580	0.09585
1112.19004	0.09619
1110.90427	0.09665
1109.61850	0.09717
1108.33273	0.09768
1107.04696	0.09815
1105.76119	0.09867
1104.47542	0.09929
1103.18965	0.10001
1101.90388	0.10073
1100.61812	0.10139
1099.33235	0.10200
1098.04658	0.10259
1096.76081	0.10317
1095.47504	0.10382
1094.18927	0.10458
1092.90350	0.10550
1091.61773	0.10653
1090.33197	0.10766
1089.04620	0.10889
1087.76043	0.11028
1086.47466	0.11182
1085.18889	0.11339
1083.90312	0.11483
1082.61735	0.11601
1081.33158	0.11690
1080.04581	0.11751
1078.76005	0.11787
1077.47428	0.11800
1076.18851	0.11793
1074.90274	0.11775
1073.61697	0.11755
1072.33120	0.11738
1071.04543	0.11726
1069.75966	0.11722
1068.47390	0.11726
1067.18813	0.11738
1065.90236	0.11752
1064.61659	0.11768
1063.33082	0.11782
1062.04505	0.11787
1060.75928	0.11777
1059.47351	0.11753
1058.18774	0.11719
1056.90198	0.11680
1055.61621	0.11634
1054.33044	0.11585
1053.04467	0.11535
1051.75890	0.11485
1050.47313	0.11435
1049.18736	0.11384
1047.90159	0.11339
1046.61583	0.11304
1045.33006	0.11274
1044.04429	0.11241
1042.75852	0.11203
1041.47275	0.11168
1040.18698	0.11148
1038.90121	0.11144
1037.61544	0.11151
1036.32967	0.11157
1035.04391	0.11152
1033.75814	0.11135
1032.47237	0.11107
1031.18660	0.11068
1029.90083	0.11009
1028.61506	0.10923
1027.32929	0.10807
1026.04352	0.10671
1024.75775	0.10528
1023.47199	0.10388
1022.18622	0.10255
1020.90045	0.10129
1019.61468	0.10010
1018.32891	0.09899
1017.04314	0.09797
1015.75737	0.09702
1014.47160	0.09607
1013.18584	0.09507
1011.90007	0.09398
1010.61430	0.09281
1009.32853	0.09162
1008.04276	0.09047
1006.75699	0.08939
1005.47122	0.08834
1004.18545	0.08726
1002.89968	0.08617
1001.61392	0.08510
1000.32815	0.08408
999.04238	0.08311
997.75661	0.08220
996.47084	0.08134
995.18507	0.08054
993.89930	0.07973
992.61353	0.07889
991.32777	0.07804
990.04200	0.07725
988.75623	0.07656
987.47046	0.07599
986.18469	0.07550
984.89892	0.07505
983.61315	0.07457
982.32738	0.07410
981.04161	0.07373
979.75585	0.07351
978.47008	0.07348
977.18431	0.07355
975.89854	0.07362
974.61277	0.07362
973.32700	0.07352
972.04123	0.07333
970.75546	0.07302
969.46970	0.07260
968.18393	0.07209
966.89816	0.07155
965.61239	0.07103
964.32662	0.07056
963.04085	0.07012
961.75508	0.06971
960.46931	0.06933
959.18354	0.06894
957.89778	0.06853
956.61201	0.06814
955.32624	0.06782
954.04047	0.06756
952.75470	0.06731
951.46893	0.06707
950.18316	0.06689
948.89739	0.06679
947.61163	0.06674
946.32586	0.06666
945.04009	0.06653
943.75432	0.06642
942.46855	0.06638
941.18278	0.06638
939.89701	0.06633
938.61124	0.06618
937.32547	0.06598
936.03971	0.06576
934.75394	0.06553
933.46817	0.06527
932.18240	0.06495
930.89663	0.06460
929.61086	0.06429
928.32509	0.06407
927.03932	0.06398
925.75356	0.06395
924.46779	0.06386
923.18202	0.06364
921.89625	0.06334
920.61048	0.06301
919.32471	0.06270
918.03894	0.06235
916.75317	0.06192
915.46740	0.06142
914.18164	0.06090
912.89587	0.06041
911.61010	0.05998
910.32433	0.05963
909.03856	0.05933
907.75279	0.05909
906.46702	0.05891
905.18125	0.05873
903.89549	0.05849
902.60972	0.05819
901.32395	0.05782
900.03818	0.05743
898.75241	0.05708
897.46664	0.05680
896.18087	0.05659
894.89510	0.05643
893.60933	0.05627
892.32357	0.05608
891.03780	0.05587
889.75203	0.05567
888.46626	0.05554
887.18049	0.05548
885.89472	0.05548
884.60895	0.05555
883.32318	0.05565
882.03742	0.05573
880.75165	0.05571
879.46588	0.05563
878.18011	0.05559
876.89434	0.05564
875.60857	0.05574
874.32280	0.05574
873.03703	0.05556
871.75126	0.05527
870.46550	0.05501
869.17973	0.05486
867.89396	0.05482
866.60819	0.05479
865.32242	0.05470
864.03665	0.05457
862.75088	0.05444
861.46511	0.05436
860.17935	0.05432
858.89358	0.05426
857.60781	0.05418
856.32204	0.05412
855.03627	0.05411
853.75050	0.05416
852.46473	0.05427
851.17896	0.05435
849.89319	0.05437
848.60743	0.05430
847.32166	0.05419
846.03589	0.05408
844.75012	0.05402
843.46435	0.05401
842.17858	0.05405
840.89281	0.05410
839.60704	0.05417
838.32128	0.05425
837.03551	0.05435
835.74974	0.05446
834.46397	0.05458
833.17820	0.05472
831.89243	0.05489
830.60666	0.05504
829.32089	0.05517
828.03512	0.05530
826.74936	0.05548
825.46359	0.05573
824.17782	0.05602
822.89205	0.05633
821.60628	0.05668
820.32051	0.05706
819.03474	0.05740
817.74897	0.05767
816.46321	0.05787
815.17744	0.05806
813.89167	0.05823
812.60590	0.05840
811.32013	0.05863
810.03436	0.05892
808.74859	0.05922
807.46282	0.05945
806.17705	0.05961
804.89129	0.05977
803.60552	0.05996
802.31975	0.06016
801.03398	0.06033
799.74821	0.06043
798.46244	0.06050
797.17667	0.06062
795.89090	0.06084
794.60513	0.06117
793.31937	0.06156
792.03360	0.06197
790.74783	0.06237
789.46206	0.06270
788.17629	0.06295
786.89052	0.06317
785.60475	0.06340
784.31898	0.06367
783.03322	0.06395
781.74745	0.06423
780.46168	0.06452
779.17591	0.06480
777.89014	0.06506
776.60437	0.06531
775.31860	0.06560
774.03283	0.06594
772.74706	0.06630
771.46130	0.06662
770.17553	0.06690
768.88976	0.06720
767.60399	0.06756
766.31822	0.06800
765.03245	0.06847
763.74668	0.06895
762.46091	0.06940
761.17515	0.06982
759.88938	0.07018
758.60361	0.07044
757.31784	0.07062
756.03207	0.07079
754.74630	0.07104
753.46053	0.07141
752.17476	0.07189
750.88899	0.07239
749.60323	0.07281
748.31746	0.07316
747.03169	0.07351
745.74592	0.07393
744.46015	0.07445
743.17438	0.07497
741.88861	0.07536
740.60284	0.07548
739.31708	0.07542
738.03131	0.07539
736.74554	0.07560
735.45977	0.07605
734.17400	0.07656
732.88823	0.07698
731.60246	0.07736
730.31669	0.07783
729.03092	0.07843
727.74516	0.07902
726.45939	0.07947
725.17362	0.07981
723.88785	0.08011
722.60208	0.08060
721.31631	0.08117
720.03054	0.08166
718.74477	0.08198
717.45901	0.08217
716.17324	0.08229
714.88747	0.08239
713.60170	0.08255
712.31593	0.08278
711.03016	0.08310
709.74439	0.08353
708.45862	0.08405
707.17285	0.08466
705.88709	0.08530
704.60132	0.08592
703.31555	0.08647
702.02978	0.08695
700.74401	0.08738
699.45824	0.08772
698.17247	0.08797
696.88670	0.08815
695.60094	0.08828
694.31517	0.08836
693.02940	0.08838
691.74363	0.08834
690.45786	0.08830
689.17209	0.08831
687.88632	0.08841
686.60055	0.08862
685.31478	0.08888
684.02902	0.08917
682.74325	0.08944
681.45748	0.08967
680.17171	0.08988
678.88594	0.09010
677.60017	0.09035
676.31440	0.09066
675.02863	0.09098
673.74287	0.09128
672.45710	0.09156
671.17133	0.09182
669.88556	0.09207
668.59979	0.09233
667.31402	0.09261
666.02825	0.09291
664.74248	0.09315
663.45671	0.09331
662.17095	0.09342
660.88518	0.09351
659.59941	0.09365
658.31364	0.09382
657.02787	0.09400
655.74210	0.09417
654.45633	0.09430
653.17056	0.09438
651.88480	0.09447
650.59903	0.09461
649.31326	0.09479
648.02749	0.09488
646.74172	0.09485
645.45595	0.09476
644.17018	0.09473
642.88441	0.09483
641.59864	0.09498
640.31288	0.09509
639.02711	0.09512
637.74134	0.09512
636.45557	0.09514
635.16980	0.09519
633.88403	0.09528
632.59826	0.09538
631.31249	0.09539
630.02673	0.09502
628.74096	0.09438
627.45519	0.09452
626.16942	0.09363
624.88365	0.09200
623.59788	0.09051
622.31211	0.08974
621.02634	0.08987
619.74057	0.09072
618.45481	0.09206
617.16904	0.09362
615.88327	0.09481
614.59750	0.09483
613.31173	0.09348
612.02596	0.09155
610.74019	0.09034
609.45442	0.09053
608.16866	0.09157
606.88289	0.09249
605.59712	0.09297
604.31135	0.09345
603.02558	0.09437
601.73981	0.09553
600.45404	0.09641
599.16827	0.09677
597.88250	0.09684
596.59674	0.09691
595.31097	0.09708
594.02520	0.09727
592.73943	0.09743
591.45366	0.09753
590.16789	0.09758
588.88212	0.09756
587.59635	0.09749
586.31059	0.09745
585.02482	0.09751
583.73905	0.09766
582.45328	0.09784
581.16751	0.09796
579.88174	0.09796
578.59597	0.09788
577.31020	0.09779
576.02443	0.09773
574.73867	0.09774
573.45290	0.09782
572.16713	0.09800
570.88136	0.09830
569.59559	0.09870
568.30982	0.09912
567.02405	0.09949
565.73828	0.09976
564.45251	0.09991
563.16675	0.09994
561.88098	0.09981
560.59521	0.09958
559.30944	0.09932
558.02367	0.09913
556.73790	0.09903
555.45213	0.09900
554.16636	0.09902
552.88060	0.09912
551.59483	0.09929
550.30906	0.09943
549.02329	0.09943
547.73752	0.09919
546.45175	0.09875
545.16598	0.09829
543.88021	0.09801
542.59444	0.09797
541.30868	0.09805
540.02291	0.09810
538.73714	0.09810
537.45137	0.09814
536.16560	0.09831
534.87983	0.09857
533.59406	0.09878
532.30829	0.09884
531.02253	0.09876
529.73676	0.09867
528.45099	0.09864
527.16522	0.09860
525.87945	0.09844
524.59368	0.09810
523.30791	0.09765
522.02214	0.09725
520.73637	0.09698
519.45061	0.09679
518.16484	0.09658
516.87907	0.09628
515.59330	0.09596
514.30753	0.09568
513.02176	0.09544
511.73599	0.09519
510.45022	0.09489
509.16446	0.09453
507.87869	0.09411
506.59292	0.09367
505.30715	0.09324
504.02138	0.09287
502.73561	0.09255
501.44984	0.09223
500.16407	0.09188
498.87830	0.09156
497.59254	0.09129
496.30677	0.09101
495.02100	0.09058
493.73523	0.08991
492.44946	0.08907
491.16369	0.08824
489.87792	0.08761
488.59215	0.08722
487.30639	0.08696
486.02062	0.08668
484.73485	0.08633
483.44908	0.08597
482.16331	0.08564
480.87754	0.08534
479.59177	0.08505
478.30600	0.08479
477.02023	0.08455
475.73447	0.08432
474.44870	0.08405
473.16293	0.08369
471.87716	0.08321
470.59139	0.08267
469.30562	0.08219
468.01985	0.08190
466.73408	0.08179
465.44832	0.08169
464.16255	0.08143
462.87678	0.08095
461.59101	0.08033
460.30524	0.07974
459.01947	0.07926
457.73370	0.07890
456.44793	0.07860
455.16216	0.07831
453.87640	0.07799
452.59063	0.07761
451.30486	0.07716
450.01909	0.07664
448.73332	0.07608
447.44755	0.07548
446.16178	0.07490
444.87601	0.07438
443.59025	0.07395
442.30448	0.07362
441.01871	0.07335
439.73294	0.07307
438.44717	0.07273
437.16140	0.07236
435.87563	0.07201
434.58986	0.07169
433.30409	0.07144
432.01833	0.07124
430.73256	0.07110
429.44679	0.07100
428.16102	0.07087
426.87525	0.07067
425.58948	0.07036
424.30371	0.06995
423.01794	0.06948
421.73218	0.06902
420.44641	0.06861
419.16064	0.06828
417.87487	0.06803
416.58910	0.06780
415.30333	0.06753
414.01756	0.06720
412.73179	0.06684
411.44602	0.06648
410.16026	0.06612
408.87449	0.06575
407.58872	0.06536
406.30295	0.06498
405.01718	0.06464
403.73141	0.06438
402.44564	0.06419
401.15987	0.06403
399.87411	0.06386
