3997.45528	0.05148
3996.16951	0.05124
3994.88374	0.05141
3993.59798	0.05199
3992.31221	0.05261
3991.02644	0.05292
3989.74067	0.05301
3988.45490	0.05318
3987.16913	0.05359
3985.88336	0.05408
3984.59759	0.05425
3983.31183	0.05387
3982.02606	0.05309
3980.74029	0.05238
3979.45452	0.05209
3978.16875	0.05216
3976.88298	0.05233
3975.59721	0.05241
3974.31144	0.05244
3973.02567	0.05248
3971.73991	0.05250
3970.45414	0.05243
3969.16837	0.05218
3967.88260	0.05174
3966.59683	0.05115
3965.31106	0.05050
3964.02529	0.04987
3962.73952	0.04931
3961.45376	0.04891
3960.16799	0.04881
3958.88222	0.04913
3957.59645	0.04985
3956.31068	0.05066
3955.02491	0.05115
3953.73914	0.05109
3952.45337	0.05063
3951.16760	0.05016
3949.88184	0.04999
3948.59607	0.05014
3947.31030	0.05044
3946.02453	0.05072
3944.73876	0.05103
3943.45299	0.05144
3942.16722	0.05195
3940.88145	0.05236
3939.59569	0.05255
3938.30992	0.05254
3937.02415	0.05231
3935.73838	0.05175
3934.45261	0.05090
3933.16684	0.05004
3931.88107	0.04953
3930.59530	0.04943
3929.30953	0.04952
3928.02377	0.04958
3926.73800	0.04960
3925.45223	0.04970
3924.16646	0.04991
3922.88069	0.05013
3921.59492	0.05024
3920.30915	0.05023
3919.02338	0.05011
3917.73762	0.04977
3916.45185	0.04913
3915.16608	0.04840
3913.88031	0.04800
3912.59454	0.04819
3911.30877	0.04877
3910.02300	0.04926
3908.73723	0.04933
3907.45146	0.04909
3906.16570	0.04894
3904.87993	0.04911
3903.59416	0.04941
3902.30839	0.04947
3901.02262	0.04916
3899.73685	0.04874
3898.45108	0.04857
3897.16531	0.04870
3895.87955	0.04894
3894.59378	0.04915
3893.30801	0.04941
3892.02224	0.04974
3890.73647	0.05001
3889.45070	0.05003
3888.16493	0.04978
3886.87916	0.04942
3885.59339	0.04913
3884.30763	0.04896
3883.02186	0.04890
3881.73609	0.04891
3880.45032	0.04882
3879.16455	0.04847
3877.87878	0.04790
3876.59301	0.04748
3875.30724	0.04762
3874.02148	0.04832
3872.73571	0.04917
3871.44994	0.04973
3870.16417	0.04980
3868.87840	0.04946
3867.59263	0.04886
3866.30686	0.04815
3865.02109	0.04753
3863.73532	0.04725
3862.44956	0.04751
3861.16379	0.04819
3859.87802	0.04880
3858.59225	0.04880
3857.30648	0.04805
3856.02071	0.04693
3854.73494	0.04600
3853.44917	0.04555
3852.16341	0.04550
3850.87764	0.04564
3849.59187	0.04586
3848.30610	0.04619
3847.02033	0.04670
3845.73456	0.04736
3844.44879	0.04802
3843.16302	0.04840
3841.87725	0.04832
3840.59149	0.04784
3839.30572	0.04731
3838.01995	0.04703
3836.73418	0.04698
3835.44841	0.04697
3834.16264	0.04684
3832.87687	0.04661
3831.59110	0.04632
3830.30534	0.04601
3829.01957	0.04586
3827.73380	0.04610
3826.44803	0.04674
3825.16226	0.04748
3823.87649	0.04798
3822.59072	0.04812
3821.30495	0.04795
3820.01918	0.04756
3818.73342	0.04708
3817.44765	0.04669
3816.16188	0.04651
3814.87611	0.04654
3813.59034	0.04672
3812.30457	0.04697
3811.01880	0.04712
3809.73303	0.04701
3808.44726	0.04662
3807.16150	0.04609
3805.87573	0.04562
3804.58996	0.04539
3803.30419	0.04551
3802.01842	0.04592
3800.73265	0.04633
3799.44688	0.04647
3798.16111	0.04638
3796.87535	0.04630
3795.58958	0.04638
3794.30381	0.04649
3793.01804	0.04640
3791.73227	0.04612
3790.44650	0.04581
3789.16073	0.04560
3787.87496	0.04552
3786.58919	0.04548
3785.30343	0.04536
3784.01766	0.04508
3782.73189	0.04467
3781.44612	0.04438
3780.16035	0.04443
3778.87458	0.04491
3777.58881	0.04561
3776.30304	0.04620
3775.01728	0.04643
3773.73151	0.04621
3772.44574	0.04563
3771.15997	0.04486
3769.87420	0.04411
3768.58843	0.04358
3767.30266	0.04343
3766.01689	0.04374
3764.73112	0.04442
3763.44536	0.04518
3762.15959	0.04573
3760.87382	0.04591
3759.58805	0.04574
3758.30228	0.04534
3757.01651	0.04480
3755.73074	0.04425
3754.44497	0.04387
3753.15921	0.04379
3751.87344	0.04401
3750.58767	0.04437
3749.30190	0.04467
3748.01613	0.04484
3746.73036	0.04489
3745.44459	0.04484
3744.15882	0.04460
3742.87305	0.04414
3741.58729	0.04369
3740.30152	0.04351
3739.01575	0.04368
3737.72998	0.04396
3736.44421	0.04409
3735.15844	0.04408
3733.87267	0.04414
3732.58690	0.04441
3731.30114	0.04466
3730.01537	0.04446
3728.72960	0.04368
3727.44383	0.04268
3726.15806	0.04201
3724.87229	0.04197
3723.58652	0.04235
3722.30075	0.04271
3721.01498	0.04276
3719.72922	0.04254
3718.44345	0.04232
3717.15768	0.04228
3715.87191	0.04233
3714.58614	0.04230
3713.30037	0.04225
3712.01460	0.04246
3710.72883	0.04307
3709.44307	0.04388
3708.15730	0.04448
3706.87153	0.04462
3705.58576	0.04430
3704.29999	0.04371
3703.01422	0.04316
3701.72845	0.04300
3700.44268	0.04328
3699.15691	0.04362
3697.87115	0.04363
3696.58538	0.04321
3695.29961	0.04248
3694.01384	0.04172
3692.72807	0.04129
3691.44230	0.04132
3690.15653	0.04165
3688.87076	0.04204
3687.58500	0.04230
3686.29923	0.04235
3685.01346	0.04238
3683.72769	0.04245
3682.44192	0.04244
3681.15615	0.04234
3679.87038	0.04227
3678.58461	0.04235
3677.29884	0.04260
3676.01308	0.04288
3674.72731	0.04309
3673.44154	0.04320
3672.15577	0.04316
3670.87000	0.04293
3669.58423	0.04260
3668.29846	0.04229
3667.01269	0.04203
3665.72693	0.04176
3664.44116	0.04152
3663.15539	0.04142
3661.86962	0.04147
3660.58385	0.04156
3659.29808	0.04158
3658.01231	0.04164
3656.72654	0.04196
3655.44077	0.04259
3654.15501	0.04331
3652.86924	0.04374
3651.58347	0.04372
3650.29770	0.04336
3649.01193	0.04296
3647.72616	0.04281
3646.44039	0.04306
3645.15462	0.04374
3643.86886	0.04466
3642.58309	0.04556
3641.29732	0.04621
3640.01155	0.04656
3638.72578	0.04667
3637.44001	0.04670
3636.15424	0.04668
3634.86847	0.04657
3633.58270	0.04637
3632.29694	0.04623
3631.01117	0.04633
3629.72540	0.04671
3628.43963	0.04723
3627.15386	0.04768
3625.86809	0.04798
3624.58232	0.04824
3623.29655	0.04849
3622.01079	0.04866
3620.72502	0.04866
3619.43925	0.04854
3618.15348	0.04848
3616.86771	0.04856
3615.58194	0.04870
3614.29617	0.04878
3613.01040	0.04876
3611.72463	0.04872
3610.43887	0.04874
3609.15310	0.04886
3607.86733	0.04918
3606.58156	0.04983
3605.29579	0.05079
3604.01002	0.05178
3602.72425	0.05245
3601.43848	0.05273
3600.15272	0.05285
3598.86695	0.05296
3597.58118	0.05308
3596.29541	0.05327
3595.00964	0.05357
3593.72387	0.05391
3592.43810	0.05421
3591.15233	0.05437
3589.86656	0.05427
3588.58080	0.05403
3587.29503	0.05400
3586.00926	0.05450
3584.72349	0.05543
3583.43772	0.05638
3582.15195	0.05692
3580.86618	0.05696
3579.58041	0.05669
3578.29464	0.05639
3577.00888	0.05622
3575.72311	0.05634
3574.43734	0.05681
3573.15157	0.05753
3571.86580	0.05828
3570.58003	0.05888
3569.29426	0.05929
3568.00849	0.05958
3566.72273	0.05981
3565.43696	0.05993
3564.15119	0.05990
3562.86542	0.05982
3561.57965	0.05989
3560.29388	0.06026
3559.00811	0.06085
3557.72234	0.06147
3556.43657	0.06194
3555.15081	0.06227
3553.86504	0.06254
3552.57927	0.06281
3551.29350	0.06309
3550.00773	0.06346
3548.72196	0.06405
3547.43619	0.06481
3546.15042	0.06552
3544.86466	0.06589
3543.57889	0.06586
3542.29312	0.06564
3541.00735	0.06552
3539.72158	0.06563
3538.43581	0.06598
3537.15004	0.06645
3535.86427	0.06694
3534.57850	0.06738
3533.29274	0.06775
3532.00697	0.06803
3530.72120	0.06819
3529.43543	0.06824
3528.14966	0.06826
3526.86389	0.06843
3525.57812	0.06890
3524.29235	0.06968
3523.00659	0.07060
3521.72082	0.07144
3520.43505	0.07207
3519.14928	0.07248
3517.86351	0.07274
3516.57774	0.07292
3515.29197	0.07307
3514.00620	0.07337
3512.72043	0.07396
3511.43467	0.07476
3510.14890	0.07547
3508.86313	0.07576
3507.57736	0.07555
3506.29159	0.07507
3505.00582	0.07472
3503.72005	0.07479
3502.43428	0.07527
3501.14852	0.07587
3499.86275	0.07624
3498.57698	0.07632
3497.29121	0.07634
3496.00544	0.07654
3494.71967	0.07698
3493.43390	0.07760
3492.14813	0.07824
3490.86236	0.07876
3489.57660	0.07902
3488.29083	0.07905
3487.00506	0.07906
3485.71929	0.07924
3484.43352	0.07960
3483.14775	0.08003
3481.86198	0.08042
3480.57621	0.08075
3479.29045	0.08103
3478.00468	0.08129
3476.71891	0.08159
3475.43314	0.08201
3474.14737	0.08249
3472.86160	0.08285
3471.57583	0.08296
3470.29006	0.08285
3469.00429	0.08265
3467.71853	0.08239
3466.43276	0.08210
3465.14699	0.08195
3463.86122	0.08214
3462.57545	0.08269
3461.28968	0.08339
3460.00391	0.08402
3458.71814	0.08448
3457.43238	0.08479
3456.14661	0.08500
3454.86084	0.08516
3453.57507	0.08534
3452.28930	0.08551
3451.00353	0.08560
3449.71776	0.08564
3448.43199	0.08578
3447.14622	0.08610
3445.86046	0.08651
3444.57469	0.08689
3443.28892	0.08722
3442.00315	0.08752
3440.71738	0.08784
3439.43161	0.08824
3438.14584	0.08875
3436.86007	0.08933
3435.57431	0.08985
3434.28854	0.09024
3433.00277	0.09052
3431.71700	0.09066
3430.43123	0.09069
3429.14546	0.09070
3427.85969	0.09086
3426.57392	0.09125
3425.28815	0.09176
3424.00239	0.09216
3422.71662	0.09234
3421.43085	0.09242
3420.14508	0.09258
3418.85931	0.09286
3417.57354	0.09317
3416.28777	0.09343
3415.00200	0.09367
3413.71624	0.09390
3412.43047	0.09412
3411.14470	0.09433
3409.85893	0.09457
3408.57316	0.09490
3407.28739	0.09535
3406.00162	0.09593
3404.71585	0.09665
3403.43008	0.09740
3402.14432	0.09797
3400.85855	0.09828
3399.57278	0.09843
3398.28701	0.09864
3397.00124	0.09905
3395.71547	0.09953
3394.42970	0.09983
3393.14393	0.09986
3391.85817	0.09973
3390.57240	0.09966
3389.28663	0.09979
3388.00086	0.10012
3386.71509	0.10057
3385.42932	0.10101
3384.14355	0.10136
3382.85778	0.10161
3381.57201	0.10192
3380.28625	0.10246
3379.00048	0.10314
3377.71471	0.10369
3376.42894	0.10394
3375.14317	0.10400
3373.85740	0.10415
3372.57163	0.10447
3371.28586	0.10483
3370.00010	0.10507
3368.71433	0.10527
3367.42856	0.10564
3366.14279	0.10631
3364.85702	0.10724
3363.57125	0.10820
3362.28548	0.10892
3360.99971	0.10932
3359.71394	0.10960
3358.42818	0.11001
3357.14241	0.11062
3355.85664	0.11128
3354.57087	0.11182
3353.28510	0.11225
3351.99933	0.11271
3350.71356	0.11330
3349.42779	0.11394
3348.14202	0.11452
3346.85626	0.11498
3345.57049	0.11536
3344.28472	0.11571
3342.99895	0.11599
3341.71318	0.11618
3340.42741	0.11640
3339.14164	0.11685
3337.85587	0.11760
3336.57011	0.11857
3335.28434	0.11949
3333.99857	0.12010
3332.71280	0.12033
3331.42703	0.12033
3330.14126	0.12039
3328.85549	0.12067
3327.56972	0.12114
3326.28395	0.12169
3324.99819	0.12225
3323.71242	0.12280
3322.42665	0.12329
3321.14088	0.12362
3319.85511	0.12377
3318.56934	0.12383
3317.28357	0.12386
3315.99780	0.12390
3314.71204	0.12401
3313.42627	0.12435
3312.14050	0.12505
3310.85473	0.12607
3309.56896	0.12714
3308.28319	0.12788
3306.99742	0.12811
3305.71165	0.12793
3304.42588	0.12764
3303.14012	0.12757
3301.85435	0.12792
3300.56858	0.12862
3299.28281	0.12935
3297.99704	0.12979
3296.71127	0.12984
3295.42550	0.12966
3294.13973	0.12951
3292.85397	0.12954
3291.56820	0.12976
3290.28243	0.13005
3288.99666	0.13030
3287.71089	0.13057
3286.42512	0.13093
3285.13935	0.13134
3283.85358	0.13162
3282.56781	0.13158
3281.28205	0.13128
3279.99628	0.13096
3278.71051	0.13082
3277.42474	0.13080
3276.13897	0.13071
3274.85320	0.13050
3273.56743	0.13023
3272.28166	0.12997
3270.99590	0.12965
3269.71013	0.12922
3268.42436	0.12872
3267.13859	0.12823
3265.85282	0.12774
3264.56705	0.12715
3263.28128	0.12644
3261.99551	0.12575
3260.70974	0.12530
3259.42398	0.12523
3258.13821	0.12546
3256.85244	0.12571
3255.56667	0.12566
3254.28090	0.12522
3252.99513	0.12457
3251.70936	0.12408
3250.42359	0.12391
3249.13783	0.12395
3247.85206	0.12385
3246.56629	0.12342
3245.28052	0.12278
3243.99475	0.12223
3242.70898	0.12197
3241.42321	0.12188
3240.13744	0.12169
3238.85167	0.12121
3237.56591	0.12048
3236.28014	0.11975
3234.99437	0.11926
3233.70860	0.11905
3232.42283	0.11895
3231.13706	0.11877
3229.85129	0.11849
3228.56552	0.11817
3227.27976	0.11783
3225.99399	0.11747
3224.70822	0.11712
3223.42245	0.11682
3222.13668	0.11663
3220.85091	0.11658
3219.56514	0.11661
3218.27937	0.11655
3216.99360	0.11624
3215.70784	0.11568
3214.42207	0.11514
3213.13630	0.11484
3211.85053	0.11474
3210.56476	0.11465
3209.27899	0.11436
3207.99322	0.11387
3206.70745	0.11334
3205.42169	0.11295
3204.13592	0.11274
3202.85015	0.11264
3201.56438	0.11252
3200.27861	0.11235
3198.99284	0.11212
3197.70707	0.11181
3196.42130	0.11140
3195.13553	0.11092
3193.84977	0.11044
3192.56400	0.11008
3191.27823	0.10988
3189.99246	0.10978
3188.70669	0.10971
3187.42092	0.10964
3186.13515	0.10953
3184.84938	0.10933
3183.56362	0.10895
3182.27785	0.10841
3180.99208	0.10781
3179.70631	0.10723
3178.42054	0.10672
3177.13477	0.10628
3175.84900	0.10591
3174.56323	0.10568
3173.27746	0.10557
3171.99170	0.10547
3170.70593	0.10519
3169.42016	0.10459
3168.13439	0.10369
3166.84862	0.10274
3165.56285	0.10198
3164.27708	0.10154
3162.99131	0.10134
3161.70555	0.10120
3160.41978	0.10103
3159.13401	0.10081
3157.84824	0.10054
3156.56247	0.10018
3155.27670	0.09971
3153.99093	0.09922
3152.70516	0.09882
3151.41939	0.09855
3150.13363	0.09839
3148.84786	0.09823
3147.56209	0.09801
3146.27632	0.09768
3144.99055	0.09724
3143.70478	0.09675
3142.41901	0.09634
3141.13324	0.09609
3139.84748	0.09592
3138.56171	0.09570
3137.27594	0.09533
3135.99017	0.09480
3134.70440	0.09419
3133.41863	0.09363
3132.13286	0.09325
3130.84709	0.09306
3129.56132	0.09295
3128.27556	0.09284
3126.98979	0.09275
3125.70402	0.09273
3124.41825	0.09273
3123.13248	0.09263
3121.84671	0.09239
3120.56094	0.09204
3119.27517	0.09168
3117.98940	0.09140
3116.70364	0.09123
3115.41787	0.09120
3114.13210	0.09123
3112.84633	0.09122
3111.56056	0.09115
3110.27479	0.09115
3108.98902	0.09131
3107.70325	0.09161
3106.41749	0.09185
3105.13172	0.09189
3103.84595	0.09171
3102.56018	0.09147
3101.27441	0.09139
3099.98864	0.09161
3098.70287	0.09209
3097.41710	0.09262
3096.13133	0.09298
3094.84557	0.09304
3093.55980	0.09283
3092.27403	0.09254
3090.98826	0.09236
3089.70249	0.09241
3088.41672	0.09261
3087.13095	0.09279
3085.84518	0.09290
3084.55942	0.09305
3083.27365	0.09340
3081.98788	0.09387
3080.70211	0.09421
3079.41634	0.09422
3078.13057	0.09394
3076.84480	0.09358
3075.55903	0.09337
3074.27326	0.09336
3072.98750	0.09352
3071.70173	0.09369
3070.41596	0.09376
3069.13019	0.09366
3067.84442	0.09346
3066.55865	0.09322
3065.27288	0.09301
3063.98711	0.09284
3062.70135	0.09274
3061.41558	0.09273
3060.12981	0.09281
3058.84404	0.09289
3057.55827	0.09289
3056.27250	0.09277
3054.98673	0.09259
3053.70096	0.09238
3052.41519	0.09209
3051.12943	0.09159
3049.84366	0.09084
3048.55789	0.09005
3047.27212	0.08945
3045.98635	0.08917
3044.70058	0.08909
3043.41481	0.08903
3042.12904	0.08886
3040.84328	0.08855
3039.55751	0.08819
3038.27174	0.08783
3036.98597	0.08751
3035.70020	0.08718
3034.41443	0.08678
3033.12866	0.08630
3031.84289	0.08582
3030.55712	0.08540
3029.27136	0.08510
3027.98559	0.08495
3026.69982	0.08487
3025.41405	0.08477
3024.12828	0.08452
3022.84251	0.08415
3021.55674	0.08375
3020.27097	0.08342
3018.98521	0.08314
3017.69944	0.08288
3016.41367	0.08266
3015.12790	0.08250
3013.84213	0.08237
3012.55636	0.08226
3011.27059	0.08220
3009.98482	0.08223
3008.69905	0.08237
3007.41329	0.08250
3006.12752	0.08248
3004.84175	0.08225
3003.55598	0.08190
3002.27021	0.08155
3000.98444	0.08127
2999.69867	0.08105
2998.41290	0.08096
2997.12714	0.08103
2995.84137	0.08127
2994.55560	0.08164
2993.26983	0.08208
2991.98406	0.08249
2990.69829	0.08272
2989.41252	0.08272
2988.12675	0.08261
2986.84098	0.08262
2985.55522	0.08288
2984.26945	0.08332
2982.98368	0.08382
2981.69791	0.08433
2980.41214	0.08488
2979.12637	0.08544
2977.84060	0.08597
2976.55483	0.08645
2975.26907	0.08687
2973.98330	0.08729
2972.69753	0.08773
2971.41176	0.08822
2970.12599	0.08870
2968.84022	0.08912
2967.55445	0.08946
2966.26868	0.08977
2964.98291	0.09012
2963.69715	0.09050
2962.41138	0.09085
2961.12561	0.09112
2959.83984	0.09138
2958.55407	0.09174
2957.26830	0.09219
2955.98253	0.09256
2954.69676	0.09264
2953.41100	0.09246
2952.12523	0.09226
2950.83946	0.09218
2949.55369	0.09219
2948.26792	0.09225
2946.98215	0.09240
2945.69638	0.09267
2944.41061	0.09300
2943.12484	0.09331
2941.83908	0.09361
2940.55331	0.09390
2939.26754	0.09423
2937.98177	0.09463
2936.69600	0.09511
2935.41023	0.09560
2934.12446	0.09600
2932.83869	0.09629
2931.55293	0.09654
2930.26716	0.09682
2928.98139	0.09711
2927.69562	0.09734
2926.40985	0.09741
2925.12408	0.09726
2923.83831	0.09692
2922.55254	0.09649
2921.26677	0.09612
2919.98101	0.09583
2918.69524	0.09553
2917.40947	0.09508
2916.12370	0.09447
2914.83793	0.09375
2913.55216	0.09292
2912.26639	0.09194
2910.98062	0.09085
2909.69486	0.08982
2908.40909	0.08899
2907.12332	0.08833
2905.83755	0.08772
2904.55178	0.08709
2903.26601	0.08652
2901.98024	0.08613
2900.69447	0.08594
2899.40870	0.08583
2898.12294	0.08571
2896.83717	0.08549
2895.55140	0.08513
2894.26563	0.08463
2892.97986	0.08412
2891.69409	0.08370
2890.40832	0.08337
2889.12255	0.08312
2887.83678	0.08295
2886.55102	0.08290
2885.26525	0.08295
2883.97948	0.08298
2882.69371	0.08290
2881.40794	0.08274
2880.12217	0.08264
2878.83640	0.08272
2877.55063	0.08293
2876.26487	0.08308
2874.97910	0.08306
2873.69333	0.08298
2872.40756	0.08297
2871.12179	0.08300
2869.83602	0.08288
2868.55025	0.08255
2867.26448	0.08206
2865.97871	0.08159
2864.69295	0.08131
2863.40718	0.08131
2862.12141	0.08147
2860.83564	0.08150
2859.54987	0.08122
2858.26410	0.08070
2856.97833	0.08022
2855.69256	0.07999
2854.40680	0.07997
2853.12103	0.07999
2851.83526	0.07988
2850.54949	0.07960
2849.26372	0.07918
2847.97795	0.07867
2846.69218	0.07811
2845.40641	0.07750
2844.12064	0.07685
2842.83488	0.07617
2841.54911	0.07555
2840.26334	0.07502
2838.97757	0.07458
2837.69180	0.07414
2836.40603	0.07372
2835.12026	0.07338
2833.83449	0.07311
2832.54873	0.07279
2831.26296	0.07233
2829.97719	0.07181
2828.69142	0.07137
2827.40565	0.07107
2826.11988	0.07082
2824.83411	0.07059
2823.54834	0.07039
2822.26257	0.07024
2820.97681	0.07013
2819.69104	0.07007
2818.40527	0.07006
2817.11950	0.07005
2815.83373	0.06995
2814.54796	0.06968
2813.26219	0.06934
2811.97642	0.06906
2810.69066	0.06890
2809.40489	0.06878
2808.11912	0.06864
2806.83335	0.06846
2805.54758	0.06828
2804.26181	0.06815
2802.97604	0.06801
2801.69027	0.06779
2800.40450	0.06747
2799.11874	0.06713
2797.83297	0.06682
2796.54720	0.06654
2795.26143	0.06629
2793.97566	0.06615
2792.68989	0.06624
2791.40412	0.06650
2790.11835	0.06674
2788.83259	0.06677
2787.54682	0.06657
2786.26105	0.06624
2784.97528	0.06593
2783.68951	0.06571
2782.40374	0.06558
2781.11797	0.06554
2779.83220	0.06558
2778.54643	0.06561
2777.26067	0.06557
2775.97490	0.06536
2774.68913	0.06503
2773.40336	0.06472
2772.11759	0.06454
2770.83182	0.06444
2769.54605	0.06433
2768.26028	0.06418
2766.97452	0.06402
2765.68875	0.06387
2764.40298	0.06368
2763.11721	0.06338
2761.83144	0.06300
2760.54567	0.06265
2759.25990	0.06239
2757.97413	0.06224
2756.68836	0.06214
2755.40260	0.06211
2754.11683	0.06218
2752.83106	0.06233
2751.54529	0.06249
2750.25952	0.06257
2748.97375	0.06254
2747.68798	0.06237
2746.40221	0.06206
2745.11645	0.06170
2743.83068	0.06139
2742.54491	0.06114
2741.25914	0.06089
2739.97337	0.06055
2738.68760	0.06018
2737.40183	0.05995
2736.11606	0.05992
2734.83029	0.05999
2733.54453	0.06001
2732.25876	0.05994
2730.97299	0.05986
2729.68722	0.05980
2728.40145	0.05970
2727.11568	0.05953
2725.82991	0.05933
2724.54414	0.05919
2723.25838	0.05912
2721.97261	0.05905
2720.68684	0.05893
2719.40107	0.05876
2718.11530	0.05858
2716.82953	0.05847
2715.54376	0.05845
2714.25799	0.05844
2712.97222	0.05836
2711.68646	0.05814
2710.40069	0.05783
2709.11492	0.05755
2707.82915	0.05738
2706.54338	0.05729
2705.25761	0.05719
2703.97184	0.05706
2702.68607	0.05696
2701.40031	0.05697
2700.11454	0.05703
2698.82877	0.05701
2697.54300	0.05686
2696.25723	0.05668
2694.97146	0.05661
2693.68569	0.05665
2692.39992	0.05665
2691.11415	0.05651
2689.82839	0.05624
2688.54262	0.05597
2687.25685	0.05577
2685.97108	0.05566
2684.68531	0.05559
2683.39954	0.05553
2682.11377	0.05550
2680.82800	0.05554
2679.54224	0.05563
2678.25647	0.05568
2676.97070	0.05558
2675.68493	0.05534
2674.39916	0.05506
2673.11339	0.05483
2671.82762	0.05468
2670.54185	0.05464
2669.25608	0.05471
2667.97032	0.05486
2666.68455	0.05495
2665.39878	0.05485
2664.11301	0.05461
2662.82724	0.05439
2661.54147	0.05432
2660.25570	0.05434
2658.96993	0.05436
2657.68417	0.05437
2656.39840	0.05440
2655.11263	0.05444
2653.82686	0.05440
2652.54109	0.05424
2651.25532	0.05401
2649.96955	0.05374
2648.68378	0.05341
2647.39801	0.05302
2646.11225	0.05261
2644.82648	0.05229
2643.54071	0.05211
2642.25494	0.05204
2640.96917	0.05202
2639.68340	0.05199
2638.39763	0.05196
2637.11186	0.05195
2635.82609	0.05193
2634.54033	0.05175
2633.25456	0.05131
2631.96879	0.05071
2630.68302	0.05015
2629.39725	0.04978
2628.11148	0.04958
2626.82571	0.04949
2625.53994	0.04946
2624.25418	0.04947
2622.96841	0.04948
2621.68264	0.04948
2620.39687	0.04944
2619.11110	0.04936
2617.82533	0.04926
2616.53956	0.04913
2615.25379	0.04893
2613.96802	0.04857
2612.68226	0.04798
2611.39649	0.04723
2610.11072	0.04655
2608.82495	0.04617
2607.53918	0.04610
2606.25341	0.04619
2604.96764	0.04628
2603.68187	0.04634
2602.39611	0.04635
2601.11034	0.04631
2599.82457	0.04622
2598.53880	0.04615
2597.25303	0.04614
2595.96726	0.04613
2594.68149	0.04605
2593.39572	0.04588
2592.10995	0.04569
2590.82419	0.04559
2589.53842	0.04557
2588.25265	0.04552
2586.96688	0.04539
2585.68111	0.04523
2584.39534	0.04507
2583.10957	0.04485
2581.82380	0.04451
2580.53804	0.04406
2579.25227	0.04366
2577.96650	0.04346
2576.68073	0.04354
2575.39496	0.04385
2574.10919	0.04421
2572.82342	0.04441
2571.53765	0.04433
2570.25188	0.04410
2568.96612	0.04396
2567.68035	0.04398
2566.39458	0.04406
2565.10881	0.04410
2563.82304	0.04404
2562.53727	0.04385
2561.25150	0.04352
2559.96573	0.04315
2558.67997	0.04291
2557.39420	0.04287
2556.10843	0.04290
2554.82266	0.04285
2553.53689	0.04272
2552.25112	0.04265
2550.96535	0.04268
2549.67958	0.04269
2548.39381	0.04252
2547.10805	0.04210
2545.82228	0.04153
2544.53651	0.04104
2543.25074	0.04085
2541.96497	0.04097
2540.67920	0.04121
2539.39343	0.04138
2538.10766	0.04145
2536.82190	0.04145
2535.53613	0.04131
2534.25036	0.04096
2532.96459	0.04048
2531.67882	0.04010
2530.39305	0.03996
2529.10728	0.04003
2527.82151	0.04011
2526.53574	0.04003
2525.24998	0.03985
2523.96421	0.03970
2522.67844	0.03964
2521.39267	0.03961
2520.10690	0.03961
2518.82113	0.03976
2517.53536	0.04013
2516.24959	0.04063
2514.96383	0.04103
2513.67806	0.04114
2512.39229	0.04093
2511.10652	0.04057
2509.82075	0.04022
2508.53498	0.03988
2507.24921	0.03954
2505.96344	0.03930
2504.67767	0.03928
2503.39191	0.03951
2502.10614	0.03990
2500.82037	0.04029
2499.53460	0.04043
2498.24883	0.04016
2496.96306	0.03960
2495.67729	0.03908
2494.39152	0.03885
2493.10576	0.03894
2491.81999	0.03913
2490.53422	0.03916
2489.24845	0.03889
2487.96268	0.03841
2486.67691	0.03788
2485.39114	0.03748
2484.10537	0.03735
2482.81960	0.03754
2481.53384	0.03794
2480.24807	0.03837
2478.96230	0.03870
2477.67653	0.03888
2476.39076	0.03890
2475.10499	0.03881
2473.81922	0.03872
2472.53345	0.03867
2471.24769	0.03853
2469.96192	0.03822
2468.67615	0.03790
2467.39038	0.03780
2466.10461	0.03798
2464.81884	0.03827
2463.53307	0.03845
2462.24730	0.03843
2460.96153	0.03832
2459.67577	0.03820
2458.39000	0.03809
2457.10423	0.03797
2455.81846	0.03783
2454.53269	0.03773
2453.24692	0.03777
2451.96115	0.03798
2450.67538	0.03831
2449.38962	0.03863
2448.10385	0.03879
2446.81808	0.03872
2445.53231	0.03839
2444.24654	0.03790
2442.96077	0.03750
2441.67500	0.03743
2440.38923	0.03766
2439.10346	0.03783
2437.81770	0.03772
2436.53193	0.03752
2435.24616	0.03751
2433.96039	0.03765
2432.67462	0.03769
2431.38885	0.03754
2430.10308	0.03738
2428.81731	0.03738
2427.53155	0.03748
2426.24578	0.03749
2424.96001	0.03732
2423.67424	0.03710
2422.38847	0.03698
2421.10270	0.03700
2419.81693	0.03699
2418.53116	0.03685
2417.24539	0.03667
2415.95963	0.03659
2414.67386	0.03663
2413.38809	0.03669
2412.10232	0.03673
2410.81655	0.03674
2409.53078	0.03666
2408.24501	0.03641
2406.95924	0.03599
2405.67347	0.03556
2404.38771	0.03534
2403.10194	0.03542
2401.81617	0.03567
2400.53040	0.03583
2399.24463	0.03575
2397.95886	0.03566
2396.67309	0.03572
2395.38732	0.03591
2394.10156	0.03613
2392.81579	0.03629
2391.53002	0.03638
2390.24425	0.03649
2388.95848	0.03666
2387.67271	0.03685
2386.38694	0.03703
2385.10117	0.03714
2383.81540	0.03716
2382.52964	0.03708
2381.24387	0.03692
2379.95810	0.03676
2378.67233	0.03668
2377.38656	0.03672
2376.10079	0.03684
2374.81502	0.03688
2373.52925	0.03686
2372.24349	0.03680
2370.95772	0.03689
2369.67195	0.03692
2368.38618	0.03690
2367.10041	0.03699
2365.81464	0.03725
2364.52887	0.03732
2363.24310	0.03728
2361.95733	0.03743
2360.67157	0.03789
2359.38580	0.03807
2358.10003	0.03798
2356.81426	0.03781
2355.52849	0.03766
2354.24272	0.03754
2352.95695	0.03737
2351.67118	0.03746
2350.38542	0.03777
2349.09965	0.03780
2347.81388	0.03745
2346.52811	0.03761
2345.24234	0.03815
2343.95657	0.03807
2342.67080	0.03720
2341.38503	0.03704
2340.09926	0.03785
2338.81350	0.03773
2337.52773	0.03662
2336.24196	0.03670
2334.95619	0.03767
2333.67042	0.03736
2332.38465	0.03615
2331.09888	0.03672
2329.81311	0.03747
2328.52735	0.03649
2327.24158	0.03683
2325.95581	0.03795
2324.67004	0.03747
2323.38427	0.03733
2322.09850	0.03797
2320.81273	0.03735
2319.52696	0.03712
2318.24119	0.03716
2316.95543	0.03625
2315.66966	0.03581
2314.38389	0.03575
2313.09812	0.03545
2311.81235	0.03545
2310.52658	0.03511
2309.24081	0.03463
2307.95504	0.03442
2306.66928	0.03417
2305.38351	0.03414
2304.09774	0.03409
2302.81197	0.03387
2301.52620	0.03366
2300.24043	0.03333
2298.95466	0.03304
2297.66889	0.03287
2296.38312	0.03286
2295.09736	0.03289
2293.81159	0.03272
2292.52582	0.03234
2291.24005	0.03189
2289.95428	0.03164
2288.66851	0.03165
2287.38274	0.03177
2286.09697	0.03179
2284.81121	0.03160
2283.52544	0.03127
2282.23967	0.03095
2280.95390	0.03076
2279.66813	0.03066
2278.38236	0.03050
2277.09659	0.03022
2275.81082	0.02992
2274.52505	0.02972
2273.23929	0.02965
2271.95352	0.02961
2270.66775	0.02946
2269.38198	0.02903
2268.09621	0.02831
2266.81044	0.02763
2265.52467	0.02737
2264.23890	0.02757
2262.95314	0.02794
2261.66737	0.02813
2260.38160	0.02805
2259.09583	0.02782
2257.81006	0.02760
2256.52429	0.02742
2255.23852	0.02721
2253.95275	0.02695
2252.66698	0.02676
2251.38122	0.02677
2250.09545	0.02704
2248.80968	0.02741
2247.52391	0.02729
2246.23814	0.02681
2244.95237	0.02623
2243.66660	0.02591
2242.38083	0.02593
2241.09507	0.02606
2239.80930	0.02604
2238.52353	0.02586
2237.23776	0.02571
2235.95199	0.02577
2234.66622	0.02596
2233.38045	0.02597
2232.09468	0.02554
2230.80891	0.02476
2229.52315	0.02402
2228.23738	0.02364
2226.95161	0.02361
2225.66584	0.02376
2224.38007	0.02403
2223.09430	0.02437
2221.80853	0.02460
2220.52276	0.02443
2219.23700	0.02379
2217.95123	0.02303
2216.66546	0.02258
2215.37969	0.02252
2214.09392	0.02250
2212.80815	0.02216
2211.52238	0.02152
2210.23661	0.02087
2208.95084	0.02051
2207.66508	0.02044
2206.37931	0.02040
2205.09354	0.02013
2203.80777	0.01965
2202.52200	0.01937
2201.23623	0.01954
2199.95046	0.01994
2198.66469	0.02017
2197.37893	0.02018
2196.09316	0.02018
2194.80739	0.02012
2193.52162	0.01966
2192.23585	0.01879
2190.95008	0.01798
2189.66431	0.01784
2188.37854	0.01840
2187.09277	0.01912
2185.80701	0.01943
2184.52124	0.01915
2183.23547	0.01857
2181.94970	0.01820
2180.66393	0.01843
2179.37816	0.01916
2178.09239	0.01971
2176.80662	0.01953
2175.52085	0.01874
2174.23509	0.01802
2172.94932	0.01775
2171.66355	0.01771
2170.37778	0.01749
2169.09201	0.01696
2167.80624	0.01630
2166.52047	0.01592
2165.23470	0.01629
2163.94894	0.01748
2162.66317	0.01879
2161.37740	0.01921
2160.09163	0.01838
2158.80586	0.01700
2157.52009	0.01598
2156.23432	0.01550
2154.94855	0.01533
2153.66278	0.01557
2152.37702	0.01647
2151.09125	0.01788
2149.80548	0.01913
2148.51971	0.01965
2147.23394	0.01947
2145.94817	0.01900
2144.66240	0.01855
2143.37663	0.01819
2142.09087	0.01796
2140.80510	0.01797
2139.51933	0.01821
2138.23356	0.01844
2136.94779	0.01843
2135.66202	0.01825
2134.37625	0.01823
2133.09048	0.01860
2131.80471	0.01926
2130.51895	0.01994
2129.23318	0.02043
2127.94741	0.02065
2126.66164	0.02075
2125.37587	0.02092
2124.09010	0.02122
2122.80433	0.02153
2121.51856	0.02166
2120.23280	0.02163
2118.94703	0.02158
2117.66126	0.02161
2116.37549	0.02166
2115.08972	0.02170
2113.80395	0.02166
2112.51818	0.02148
2111.23241	0.02109
2109.94664	0.02063
2108.66088	0.02039
2107.37511	0.02058
2106.08934	0.02109
2104.80357	0.02162
2103.51780	0.02203
2102.23203	0.02243
2100.94626	0.02294
2099.66049	0.02466
2098.37473	0.02529
2097.08896	0.02470
2095.80319	0.02357
2094.51742	0.02237
2093.23165	0.02151
2091.94588	0.02115
2090.66011	0.02120
2089.37434	0.02143
2088.08857	0.02165
2086.80281	0.02181
2085.51704	0.02197
2084.23127	0.02209
2082.94550	0.02204
2081.65973	0.02175
2080.37396	0.02139
2079.08819	0.02131
2077.80242	0.02168
2076.51666	0.02229
2075.23089	0.02273
2073.94512	0.02273
2072.65935	0.02241
2071.37358	0.02198
2070.08781	0.02155
2068.80204	0.02111
2067.51627	0.02062
2066.23050	0.02013
2064.94474	0.01965
2063.65897	0.01919
2062.37320	0.01876
2061.08743	0.01844
2059.80166	0.01817
2058.51589	0.01787
2057.23012	0.01754
2055.94435	0.01733
2054.65859	0.01732
2053.37282	0.01747
2052.08705	0.01764
2050.80128	0.01769
2049.51551	0.01746
2048.22974	0.01703
2046.94397	0.01673
2045.65820	0.01689
2044.37243	0.01749
2043.08667	0.01809
2041.80090	0.01827
2040.51513	0.01797
2039.22936	0.01751
2037.94359	0.01720
2036.65782	0.01716
2035.37205	0.01730
2034.08628	0.01750
2032.80052	0.01759
2031.51475	0.01734
2030.22898	0.01666
2028.94321	0.01568
2027.65744	0.01469
2026.37167	0.01393
2025.08590	0.01353
2023.80013	0.01345
2022.51436	0.01353
2021.22860	0.01350
2019.94283	0.01330
2018.65706	0.01312
2017.37129	0.01317
2016.08552	0.01341
2014.79975	0.01372
2013.51398	0.01406
2012.22821	0.01452
2010.94245	0.01515
2009.65668	0.01593
2008.37091	0.01673
2007.08514	0.01729
2005.79937	0.01739
2004.51360	0.01706
2003.22783	0.01656
2001.94206	0.01608
2000.65629	0.01569
1999.37053	0.01538
1998.08476	0.01525
1996.79899	0.01536
1995.51322	0.01568
1994.22745	0.01606
1992.94168	0.01632
1991.65591	0.01624
1990.37014	0.01568
1989.08438	0.01482
1987.79861	0.01413
1986.51284	0.01403
1985.22707	0.01454
1983.94130	0.01541
1982.65553	0.01642
1981.36976	0.01749
1980.08399	0.01866
1978.79822	0.01980
1977.51246	0.02058
1976.22669	0.02068
1974.94092	0.02022
1973.65515	0.01973
1972.36938	0.01950
1971.08361	0.01926
1969.79784	0.01846
1968.51207	0.01703
1967.22631	0.01549
1965.94054	0.01450
1964.65477	0.01430
1963.36900	0.01469
1962.08323	0.01532
1960.79746	0.01598
1959.51169	0.01652
1958.22592	0.01681
1956.94015	0.01680
1955.65439	0.01664
1954.36862	0.01666
1953.08285	0.01708
1951.79708	0.01777
1950.51131	0.01833
1949.22554	0.01851
1947.93977	0.01844
1946.65400	0.01839
1945.36823	0.01848
1944.08247	0.01862
1942.79670	0.01883
1941.51093	0.01917
1940.22516	0.01957
1938.93939	0.01984
1937.65362	0.01994
1936.36785	0.02006
1935.08208	0.02027
1933.79632	0.02046
1932.51055	0.02046
1931.22478	0.02027
1929.93901	0.01999
1928.65324	0.01969
1927.36747	0.01948
1926.08170	0.01950
1924.79593	0.01972
1923.51016	0.01996
1922.22440	0.02005
1920.93863	0.01998
1919.65286	0.01987
1918.36709	0.01982
1917.08132	0.01980
1915.79555	0.01974
1914.50978	0.01959
1913.22401	0.01940
1911.93825	0.01925
1910.65248	0.01917
1909.36671	0.01915
1908.08094	0.01914
1906.79517	0.01924
1905.50940	0.01950
1904.22363	0.01988
1902.93786	0.02024
1901.65209	0.02050
1900.36633	0.02063
1899.08056	0.02062
1897.79479	0.02045
1896.50902	0.02025
1895.22325	0.02021
1893.93748	0.02039
1892.65171	0.02065
1891.36594	0.02082
1890.08018	0.02082
1888.79441	0.02064
1887.50864	0.02030
1886.22287	0.01993
1884.93710	0.01964
1883.65133	0.01955
1882.36556	0.01964
1881.07979	0.01980
1879.79402	0.01996
1878.50826	0.02007
1877.22249	0.02010
1875.93672	0.02003
1874.65095	0.01986
1873.36518	0.01971
1872.07941	0.01969
1870.79364	0.01980
1869.50787	0.01990
1868.22211	0.01992
1866.93634	0.01992
1865.65057	0.01994
1864.36480	0.01999
1863.07903	0.02004
1861.79326	0.02011
1860.50749	0.02021
1859.22172	0.02029
1857.93595	0.02028
1856.65019	0.02019
1855.36442	0.02011
1854.07865	0.02011
1852.79288	0.02013
1851.50711	0.02009
1850.22134	0.01996
1848.93557	0.01976
1847.64980	0.01952
1846.36404	0.01931
1845.07827	0.01918
1843.79250	0.01910
1842.50673	0.01901
1841.22096	0.01890
1839.93519	0.01884
1838.64942	0.01887
1837.36365	0.01894
1836.07788	0.01898
1834.79212	0.01895
1833.50635	0.01891
1832.22058	0.01893
1830.93481	0.01904
1829.64904	0.01920
1828.36327	0.01934
1827.07750	0.01941
1825.79173	0.01942
1824.50597	0.01943
1823.22020	0.01947
1821.93443	0.01952
1820.64866	0.01956
1819.36289	0.01953
1818.07712	0.01943
1816.79135	0.01928
1815.50558	0.01911
1814.21981	0.01895
1812.93405	0.01878
1811.64828	0.01863
1810.36251	0.01855
1809.07674	0.01857
1807.79097	0.01866
1806.50520	0.01877
1805.21943	0.01890
1803.93366	0.01905
1802.64790	0.01922
1801.36213	0.01933
1800.07636	0.01933
1798.79059	0.01924
1797.50482	0.01911
1796.21905	0.01900
1794.93328	0.01893
1793.64751	0.01894
1792.36174	0.01904
1791.07598	0.01920
1789.79021	0.01936
1788.50444	0.01945
1787.21867	0.01944
1785.93290	0.01939
1784.64713	0.01933
1783.36136	0.01931
1782.07559	0.01931
1780.78983	0.01933
1779.50406	0.01936
1778.21829	0.01940
1776.93252	0.01943
1775.64675	0.01945
1774.36098	0.01940
1773.07521	0.01929
1771.78944	0.01912
1770.50367	0.01893
1769.21791	0.01878
1767.93214	0.01869
1766.64637	0.01868
1765.36060	0.01872
1764.07483	0.01878
1762.78906	0.01882
1761.50329	0.01886
1760.21752	0.01890
1758.93176	0.01899
1757.64599	0.01913
1756.36022	0.01929
1755.07445	0.01944
1753.78868	0.01953
1752.50291	0.01962
1751.21714	0.01975
1749.93137	0.01993
1748.64560	0.02014
1747.35984	0.02037
1746.07407	0.02066
1744.78830	0.02101
1743.50253	0.02136
1742.21676	0.02169
1740.93099	0.02202
1739.64522	0.02237
1738.35945	0.02269
1737.07369	0.02289
1735.78792	0.02298
1734.50215	0.02306
1733.21638	0.02324
1731.93061	0.02356
1730.64484	0.02393
1729.35907	0.02428
1728.07330	0.02460
1726.78753	0.02488
1725.50177	0.02517
1724.21600	0.02547
1722.93023	0.02581
1721.64446	0.02618
1720.35869	0.02652
1719.07292	0.02683
1717.78715	0.02721
1716.50138	0.02774
1715.21561	0.02843
1713.92985	0.02920
1712.64408	0.02999
1711.35831	0.03084
1710.07254	0.03180
1708.78677	0.03294
1707.50100	0.03426
1706.21523	0.03573
1704.92946	0.03728
1703.64370	0.03891
1702.35793	0.04068
1701.07216	0.04264
1699.78639	0.04480
1698.50062	0.04706
1697.21485	0.04937
1695.92908	0.05175
1694.64331	0.05423
1693.35754	0.05676
1692.07178	0.05926
1690.78601	0.06169
1689.50024	0.06407
1688.21447	0.06643
1686.92870	0.06879
1685.64293	0.07123
1684.35716	0.07378
1683.07139	0.07644
1681.78563	0.07918
1680.49986	0.08199
1679.21409	0.08489
1677.92832	0.08789
1676.64255	0.09097
1675.35678	0.09407
1674.07101	0.09715
1672.78524	0.10020
1671.49947	0.10327
1670.21371	0.10641
1668.92794	0.10962
1667.64217	0.11285
1666.35640	0.11604
1665.07063	0.11915
1663.78486	0.12217
1662.49909	0.12513
1661.21332	0.12799
1659.92756	0.13070
1658.64179	0.13317
1657.35602	0.13537
1656.07025	0.13732
1654.78448	0.13908
1653.49871	0.14074
1652.21294	0.14232
1650.92717	0.14376
1649.64140	0.14502
1648.35564	0.14612
1647.06987	0.14714
1645.78410	0.14810
1644.49833	0.14896
1643.21256	0.14969
1641.92679	0.15030
1640.64102	0.15080
1639.35525	0.15119
1638.06949	0.15144
1636.78372	0.15157
1635.49795	0.15163
1634.21218	0.15161
1632.92641	0.15142
1631.64064	0.15092
1630.35487	0.15001
1629.06910	0.14868
1627.78333	0.14697
1626.49757	0.14493
1625.21180	0.14262
1623.92603	0.14007
1622.64026	0.13731
1621.35449	0.13434
1620.06872	0.13118
1618.78295	0.12788
1617.49718	0.12457
1616.21142	0.12136
1614.92565	0.11830
1613.63988	0.11532
1612.35411	0.11233
1611.06834	0.10928
1609.78257	0.10623
1608.49680	0.10327
1607.21103	0.10051
1605.92526	0.09799
1604.63950	0.09567
1603.35373	0.09351
1602.06796	0.09149
1600.78219	0.08961
1599.49642	0.08791
1598.21065	0.08637
1596.92488	0.08497
1595.63911	0.08366
1594.35335	0.08246
1593.06758	0.08140
1591.78181	0.08052
1590.49604	0.07985
1589.21027	0.07937
1587.92450	0.07907
1586.63873	0.07893
1585.35296	0.07887
1584.06719	0.07885
1582.78143	0.07884
1581.49566	0.07889
1580.20989	0.07906
1578.92412	0.07943
1577.63835	0.08003
1576.35258	0.08087
1575.06681	0.08189
1573.78104	0.08305
1572.49528	0.08432
1571.20951	0.08572
1569.92374	0.08725
1568.63797	0.08886
1567.35220	0.09047
1566.06643	0.09205
1564.78066	0.09362
1563.49489	0.09519
1562.20912	0.09677
1560.92336	0.09841
1559.63759	0.10017
1558.35182	0.10206
1557.06605	0.10402
1555.78028	0.10592
1554.49451	0.10770
1553.20874	0.10938
1551.92297	0.11102
1550.63721	0.11264
1549.35144	0.11417
1548.06567	0.11556
1546.77990	0.11674
1545.49413	0.11774
1544.20836	0.11859
1542.92259	0.11927
1541.63682	0.11982
1540.35105	0.12026
1539.06529	0.12066
1537.77952	0.12104
1536.49375	0.12136
1535.20798	0.12160
1533.92221	0.12176
1532.63644	0.12185
1531.35067	0.12184
1530.06490	0.12169
1528.77914	0.12139
1527.49337	0.12096
1526.20760	0.12048
1524.92183	0.11999
1523.63606	0.11948
1522.35029	0.11899
1521.06452	0.11851
1519.77875	0.11804
1518.49298	0.11755
1517.20722	0.11695
1515.92145	0.11619
1514.63568	0.11519
1513.34991	0.11391
1512.06414	0.11239
1510.77837	0.11065
1509.49260	0.10875
1508.20683	0.10674
1506.92107	0.10469
1505.63530	0.10268
1504.34953	0.10070
1503.06376	0.09869
1501.77799	0.09661
1500.49222	0.09446
1499.20645	0.09228
1497.92068	0.09010
1496.63491	0.08793
1495.34915	0.08579
1494.06338	0.08369
1492.77761	0.08163
1491.49184	0.07963
1490.20607	0.07771
1488.92030	0.07589
1487.63453	0.07419
1486.34876	0.07264
1485.06299	0.07130
1483.77723	0.07019
1482.49146	0.06933
1481.20569	0.06870
1479.91992	0.06826
1478.63415	0.06800
1477.34838	0.06792
1476.06261	0.06804
1474.77684	0.06839
1473.49108	0.06894
1472.20531	0.06963
1470.91954	0.07041
1469.63377	0.07123
1468.34800	0.07204
1467.06223	0.07283
1465.77646	0.07360
1464.49069	0.07437
1463.20492	0.07516
1461.91916	0.07599
1460.63339	0.07685
1459.34762	0.07773
1458.06185	0.07862
1456.77608	0.07951
1455.49031	0.08037
1454.20454	0.08113
1452.91877	0.08170
1451.63301	0.08206
1450.34724	0.08222
1449.06147	0.08226
1447.77570	0.08221
1446.48993	0.08205
1445.20416	0.08178
1443.91839	0.08139
1442.63262	0.08090
1441.34685	0.08032
1440.06109	0.07964
1438.77532	0.07887
1437.48955	0.07804
1436.20378	0.07722
1434.91801	0.07642
1433.63224	0.07565
1432.34647	0.07491
1431.06070	0.07423
1429.77494	0.07363
1428.48917	0.07311
1427.20340	0.07268
1425.91763	0.07233
1424.63186	0.07207
1423.34609	0.07190
1422.06032	0.07181
1420.77455	0.07176
1419.48878	0.07174
1418.20302	0.07174
1416.91725	0.07180
1415.63148	0.07190
1414.34571	0.07205
1413.05994	0.07219
1411.77417	0.07231
1410.48840	0.07243
1409.20263	0.07257
1407.91687	0.07272
1406.63110	0.07284
1405.34533	0.07295
1404.05956	0.07305
1402.77379	0.07315
1401.48802	0.07322
1400.20225	0.07323
1398.91648	0.07317
1397.63071	0.07306
1396.34495	0.07291
1395.05918	0.07277
1393.77341	0.07265
1392.48764	0.07257
1391.20187	0.07250
1389.91610	0.07244
1388.63033	0.07235
1387.34456	0.07222
1386.05880	0.07202
1384.77303	0.07178
1383.48726	0.07151
1382.20149	0.07124
1380.91572	0.07096
1379.62995	0.07064
1378.34418	0.07021
1377.05841	0.06969
1375.77264	0.06909
1374.48688	0.06846
1373.20111	0.06784
1371.91534	0.06724
1370.62957	0.06665
1369.34380	0.06603
1368.05803	0.06538
1366.77226	0.06470
1365.48649	0.06401
1364.20073	0.06333
1362.91496	0.06267
1361.62919	0.06206
1360.34342	0.06155
1359.05765	0.06113
1357.77188	0.06081
1356.48611	0.06058
1355.20034	0.06045
1353.91457	0.06042
1352.62881	0.06047
1351.34304	0.06056
1350.05727	0.06069
1348.77150	0.06086
1347.48573	0.06108
1346.19996	0.06137
1344.91419	0.06170
1343.62842	0.06204
1342.34266	0.06237
1341.05689	0.06266
1339.77112	0.06290
1338.48535	0.06306
1337.19958	0.06312
1335.91381	0.06308
1334.62804	0.06297
1333.34227	0.06283
1332.05650	0.06264
1330.77074	0.06240
1329.48497	0.06211
1328.19920	0.06179
1326.91343	0.06148
1325.62766	0.06118
1324.34189	0.06088
1323.05612	0.06061
1321.77035	0.06038
1320.48459	0.06024
1319.19882	0.06020
1317.91305	0.06022
1316.62728	0.06022
1315.34151	0.06016
1314.05574	0.06007
1312.76997	0.05997
1311.48420	0.05988
1310.19843	0.05979
1308.91267	0.05965
1307.62690	0.05947
1306.34113	0.05927
1305.05536	0.05909
1303.76959	0.05894
1302.48382	0.05881
1301.19805	0.05868
1299.91228	0.05854
1298.62652	0.05844
1297.34075	0.05839
1296.05498	0.05841
1294.76921	0.05849
1293.48344	0.05863
1292.19767	0.05882
1290.91190	0.05905
1289.62613	0.05932
1288.34036	0.05959
1287.05460	0.05987
1285.76883	0.06014
1284.48306	0.06039
1283.19729	0.06061
1281.91152	0.06082
1280.62575	0.06102
1279.33998	0.06121
1278.05421	0.06136
1276.76845	0.06145
1275.48268	0.06151
1274.19691	0.06158
1272.91114	0.06170
1271.62537	0.06185
1270.33960	0.06203
1269.05383	0.06225
1267.76806	0.06255
1266.48229	0.06291
1265.19653	0.06332
1263.91076	0.06374
1262.62499	0.06415
1261.33922	0.06455
1260.05345	0.06494
1258.76768	0.06535
1257.48191	0.06579
1256.19614	0.06627
1254.91037	0.06682
1253.62461	0.06740
1252.33884	0.06799
1251.05307	0.06858
1249.76730	0.06915
1248.48153	0.06976
1247.19576	0.07040
1245.90999	0.07105
1244.62422	0.07168
1243.33846	0.07228
1242.05269	0.07285
1240.76692	0.07336
1239.48115	0.07380
1238.19538	0.07418
1236.90961	0.07451
1235.62384	0.07479
1234.33807	0.07497
1233.05230	0.07503
1231.76654	0.07497
1230.48077	0.07481
1229.19500	0.07457
1227.90923	0.07427
1226.62346	0.07386
1225.33769	0.07332
1224.05192	0.07262
1222.76615	0.07181
1221.48039	0.07099
1220.19462	0.07023
1218.90885	0.06954
1217.62308	0.06890
1216.33731	0.06829
1215.05154	0.06774
1213.76577	0.06731
1212.48000	0.06702
1211.19423	0.06684
1209.90847	0.06675
1208.62270	0.06668
1207.33693	0.06660
1206.05116	0.06653
1204.76539	0.06646
1203.47962	0.06638
1202.19385	0.06622
1200.90808	0.06585
1199.62232	0.06525
1198.33655	0.06478
1197.05078	0.06428
1195.76501	0.06377
1194.47924	0.06325
1193.19347	0.06272
1191.90770	0.06222
1190.62193	0.06173
1189.33616	0.06125
1188.05040	0.06083
1186.76463	0.06050
1185.47886	0.06029
1184.19309	0.06015
1182.90732	0.06001
1181.62155	0.05988
1180.33578	0.05979
1179.05001	0.05979
1177.76425	0.05991
1176.47848	0.06009
1175.19271	0.06027
1173.90694	0.06037
1172.62117	0.06036
1171.33540	0.06032
1170.04963	0.06036
1168.76386	0.06053
1167.47809	0.06081
1166.19233	0.06108
1164.90656	0.06124
1163.62079	0.06128
1162.33502	0.06125
1161.04925	0.06124
1159.76348	0.06128
1158.47771	0.06132
1157.19194	0.06131
1155.90618	0.06121
1154.62041	0.06099
1153.33464	0.06068
1152.04887	0.06030
1150.76310	0.05994
1149.47733	0.05969
1148.19156	0.05954
1146.90579	0.05939
1145.62002	0.05914
1144.33426	0.05875
1143.04849	0.05834
1141.76272	0.05802
1140.47695	0.05782
1139.19118	0.05772
1137.90541	0.05762
1136.61964	0.05751
1135.33387	0.05741
1134.04811	0.05736
1132.76234	0.05736
1131.47657	0.05736
1130.19080	0.05739
1128.90503	0.05752
1127.61926	0.05778
1126.33349	0.05816
1125.04772	0.05858
1123.76195	0.05899
1122.47619	0.05936
1121.19042	0.05973
1119.90465	0.06009
1118.61888	0.06043
1117.33311	0.06079
1116.04734	0.06122
1114.76157	0.06174
1113.47580	0.06229
1112.19004	0.06281
1110.90427	0.06327
1109.61850	0.06373
1108.33273	0.06423
1107.04696	0.06477
1105.76119	0.06533
1104.47542	0.06587
1103.18965	0.06635
1101.90388	0.06678
1100.61812	0.06715
1099.33235	0.06751
1098.04658	0.06787
1096.76081	0.06822
1095.47504	0.06855
1094.18927	0.06889
1092.90350	0.06924
1091.61773	0.06959
1090.33197	0.06992
1089.04620	0.07023
1087.76043	0.07053
1086.47466	0.07086
1085.18889	0.07127
1083.90312	0.07184
1082.61735	0.07252
1081.33158	0.07318
1080.04581	0.07369
1078.76005	0.07401
1077.47428	0.07423
1076.18851	0.07441
1074.90274	0.07461
1073.61697	0.07479
1072.33120	0.07494
1071.04543	0.07506
1069.75966	0.07516
1068.47390	0.07526
1067.18813	0.07535
1065.90236	0.07544
1064.61659	0.07555
1063.33082	0.07569
1062.04505	0.07590
1060.75928	0.07616
1059.47351	0.07640
1058.18774	0.07658
1056.90198	0.07669
1055.61621	0.07679
1054.33044	0.07691
1053.04467	0.07700
1051.75890	0.07700
1050.47313	0.07692
1049.18736	0.07687
1047.90159	0.07693
1046.61583	0.07710
1045.33006	0.07731
1044.04429	0.07753
1042.75852	0.07774
1041.47275	0.07796
1040.18698	0.07819
1038.90121	0.07845
1037.61544	0.07871
1036.32967	0.07898
1035.04391	0.07927
1033.75814	0.07956
1032.47237	0.07977
1031.18660	0.07981
1029.90083	0.07960
1028.61506	0.07914
1027.32929	0.07845
1026.04352	0.07758
1024.75775	0.07656
1023.47199	0.07547
1022.18622	0.07441
1020.90045	0.07340
1019.61468	0.07238
1018.32891	0.07133
1017.04314	0.07022
1015.75737	0.06908
1014.47160	0.06793
1013.18584	0.06682
1011.90007	0.06576
1010.61430	0.06477
1009.32853	0.06383
1008.04276	0.06295
1006.75699	0.06213
1005.47122	0.06134
1004.18545	0.06057
1002.89968	0.05984
1001.61392	0.05918
1000.32815	0.05856
999.04238	0.05795
997.75661	0.05732
996.47084	0.05666
995.18507	0.05600
993.89930	0.05535
992.61353	0.05476
991.32777	0.05426
990.04200	0.05386
988.75623	0.05352
987.47046	0.05320
986.18469	0.05289
984.89892	0.05257
983.61315	0.05224
982.32738	0.05192
981.04161	0.05165
979.75585	0.05144
978.47008	0.05125
977.18431	0.05101
975.89854	0.05071
974.61277	0.05039
973.32700	0.05010
972.04123	0.04988
970.75546	0.04971
969.46970	0.04956
968.18393	0.04940
966.89816	0.04919
965.61239	0.04888
964.32662	0.04849
963.04085	0.04810
961.75508	0.04783
960.46931	0.04766
959.18354	0.04746
957.89778	0.04712
956.61201	0.04663
955.32624	0.04609
954.04047	0.04560
952.75470	0.04522
951.46893	0.04494
950.18316	0.04470
948.89739	0.04449
947.61163	0.04431
946.32586	0.04418
945.04009	0.04407
943.75432	0.04392
942.46855	0.04371
941.18278	0.04347
939.89701	0.04324
938.61124	0.04303
937.32547	0.04282
936.03971	0.04261
934.75394	0.04238
933.46817	0.04212
932.18240	0.04185
930.89663	0.04165
929.61086	0.04150
928.32509	0.04136
927.03932	0.04113
925.75356	0.04085
924.46779	0.04059
923.18202	0.04037
921.89625	0.04017
920.61048	0.03992
919.32471	0.03963
918.03894	0.03934
916.75317	0.03903
915.46740	0.03868
914.18164	0.03828
912.89587	0.03796
911.61010	0.03778
910.32433	0.03770
909.03856	0.03758
907.75279	0.03736
906.46702	0.03710
905.18125	0.03685
903.89549	0.03662
902.60972	0.03636
901.32395	0.03613
900.03818	0.03602
898.75241	0.03603
897.46664	0.03602
896.18087	0.03583
894.89510	0.03551
893.60933	0.03526
892.32357	0.03521
891.03780	0.03529
889.75203	0.03532
888.46626	0.03515
887.18049	0.03486
885.89472	0.03464
884.60895	0.03461
883.32318	0.03475
882.03742	0.03496
880.75165	0.03517
879.46588	0.03534
878.18011	0.03542
876.89434	0.03534
875.60857	0.03509
874.32280	0.03479
873.03703	0.03455
871.75126	0.03439
870.46550	0.03426
869.17973	0.03411
867.89396	0.03394
866.60819	0.03381
865.32242	0.03376
864.03665	0.03374
862.75088	0.03369
861.46511	0.03357
860.17935	0.03341
858.89358	0.03322
857.60781	0.03307
856.32204	0.03305
855.03627	0.03318
853.75050	0.03339
852.46473	0.03353
851.17896	0.03348
849.89319	0.03326
848.60743	0.03300
847.32166	0.03282
846.03589	0.03274
844.75012	0.03272
843.46435	0.03270
842.17858	0.03265
840.89281	0.03257
839.60704	0.03251
838.32128	0.03250
837.03551	0.03252
835.74974	0.03253
834.46397	0.03252
833.17820	0.03251
831.89243	0.03247
830.60666	0.03241
829.32089	0.03233
828.03512	0.03226
826.74936	0.03225
825.46359	0.03231
824.17782	0.03244
822.89205	0.03258
821.60628	0.03269
820.32051	0.03276
819.03474	0.03284
817.74897	0.03294
816.46321	0.03305
815.17744	0.03313
813.89167	0.03314
812.60590	0.03314
811.32013	0.03319
810.03436	0.03329
808.74859	0.03341
807.46282	0.03351
806.17705	0.03364
804.89129	0.03384
803.60552	0.03409
802.31975	0.03431
801.03398	0.03449
799.74821	0.03462
798.46244	0.03472
797.17667	0.03481
795.89090	0.03491
794.60513	0.03502
793.31937	0.03513
792.03360	0.03523
790.74783	0.03533
789.46206	0.03545
788.17629	0.03557
786.89052	0.03569
785.60475	0.03583
784.31898	0.03603
783.03322	0.03626
781.74745	0.03646
780.46168	0.03660
779.17591	0.03671
777.89014	0.03682
776.60437	0.03693
775.31860	0.03701
774.03283	0.03705
772.74706	0.03705
771.46130	0.03705
770.17553	0.03708
768.88976	0.03721
767.60399	0.03745
766.31822	0.03777
765.03245	0.03810
763.74668	0.03843
762.46091	0.03873
761.17515	0.03897
759.88938	0.03911
758.60361	0.03914
757.31784	0.03907
756.03207	0.03896
754.74630	0.03886
753.46053	0.03889
752.17476	0.03910
750.88899	0.03948
749.60323	0.03990
748.31746	0.04022
747.03169	0.04036
745.74592	0.04037
744.46015	0.04037
743.17438	0.04049
741.88861	0.04072
740.60284	0.04092
739.31708	0.04098
738.03131	0.04091
736.74554	0.04081
735.45977	0.04076
734.17400	0.04075
732.88823	0.04078
731.60246	0.04088
730.31669	0.04106
729.03092	0.04133
727.74516	0.04166
726.45939	0.04200
725.17362	0.04231
723.88785	0.04258
722.60208	0.04293
721.31631	0.04325
720.03054	0.04348
718.74477	0.04362
717.45901	0.04366
716.17324	0.04365
714.88747	0.04364
713.60170	0.04367
712.31593	0.04379
711.03016	0.04398
709.74439	0.04423
708.45862	0.04448
707.17285	0.04471
705.88709	0.04492
704.60132	0.04513
703.31555	0.04534
702.02978	0.04555
700.74401	0.04574
699.45824	0.04589
698.17247	0.04601
696.88670	0.04609
695.60094	0.04615
694.31517	0.04619
693.02940	0.04618
691.74363	0.04612
690.45786	0.04604
689.17209	0.04604
687.88632	0.04613
686.60055	0.04625
685.31478	0.04633
684.02902	0.04639
682.74325	0.04646
681.45748	0.04657
680.17171	0.04670
678.88594	0.04684
677.60017	0.04697
676.31440	0.04709
675.02863	0.04718
673.74287	0.04719
672.45710	0.04720
671.17133	0.04732
669.88556	0.04737
668.59979	0.04703
667.31402	0.04715
666.02825	0.04793
664.74248	0.04811
663.45671	0.04805
662.17095	0.04808
660.88518	0.04816
659.59941	0.04822
658.31364	0.04830
657.02787	0.04844
655.74210	0.04866
654.45633	0.04894
653.17056	0.04919
651.88480	0.04937
650.59903	0.04945
649.31326	0.04948
648.02749	0.04952
646.74172	0.04958
645.45595	0.04964
644.17018	0.04966
642.88441	0.04962
641.59864	0.04949
640.31288	0.04932
639.02711	0.04916
637.74134	0.04907
636.45557	0.04905
635.16980	0.04906
633.88403	0.04907
632.59826	0.04899
631.31249	0.04898
630.02673	0.04982
628.74096	0.05112
627.45519	0.04966
626.16942	0.05072
624.88365	0.05339
623.59788	0.05579
622.31211	0.05735
621.02634	0.05770
619.74057	0.05663
618.45481	0.05448
617.16904	0.05195
615.88327	0.04947
614.59750	0.04728
613.31173	0.04582
612.02596	0.04584
610.74019	0.04784
609.45442	0.05150
608.16866	0.05561
606.88289	0.05885
605.59712	0.06047
604.31135	0.06052
603.02558	0.05970
601.73981	0.05882
600.45404	0.05813
599.16827	0.05741
597.88250	0.05652
596.59674	0.05567
595.31097	0.05520
594.02520	0.05512
592.73943	0.05516
591.45366	0.05503
590.16789	0.05473
588.88212	0.05450
587.59635	0.05449
586.31059	0.05465
585.02482	0.05489
583.73905	0.05521
582.45328	0.05562
581.16751	0.05609
579.88174	0.05650
578.59597	0.05673
577.31020	0.05679
576.02443	0.05676
574.73867	0.05676
573.45290	0.05688
572.16713	0.05719
570.88136	0.05771
569.59559	0.05840
568.30982	0.05917
567.02405	0.05984
565.73828	0.06025
564.45251	0.06033
563.16675	0.06015
561.88098	0.05983
560.59521	0.05940
559.30944	0.05885
558.02367	0.05820
556.73790	0.05753
555.45213	0.05695
554.16636	0.05647
552.88060	0.05608
551.59483	0.05575
550.30906	0.05550
549.02329	0.05532
547.73752	0.05519
546.45175	0.05509
545.16598	0.05502
543.88021	0.05498
542.59444	0.05494
541.30868	0.05491
540.02291	0.05494
538.73714	0.05504
537.45137	0.05511
536.16560	0.05509
534.87983	0.05497
533.59406	0.05486
532.30829	0.05480
531.02253	0.05474
529.73676	0.05464
528.45099	0.05446
527.16522	0.05427
525.87945	0.05408
524.59368	0.05392
523.30791	0.05378
522.02214	0.05367
520.73637	0.05357
519.45061	0.05343
518.16484	0.05316
516.87907	0.05277
515.59330	0.05237
514.30753	0.05205
513.02176	0.05182
511.73599	0.05165
510.45022	0.05148
509.16446	0.05131
507.87869	0.05110
506.59292	0.05087
505.30715	0.05058
504.02138	0.05023
502.73561	0.04983
501.44984	0.04942
500.16407	0.04907
498.87830	0.04878
497.59254	0.04854
496.30677	0.04832
495.02100	0.04813
493.73523	0.04793
492.44946	0.04772
491.16369	0.04752
489.87792	0.04733
488.59215	0.04715
487.30639	0.04698
486.02062	0.04683
484.73485	0.04672
483.44908	0.04665
482.16331	0.04657
480.87754	0.04645
479.59177	0.04634
478.30600	0.04623
477.02023	0.04612
475.73447	0.04597
474.44870	0.04577
473.16293	0.04558
471.87716	0.04546
470.59139	0.04543
469.30562	0.04543
468.01985	0.04541
466.73408	0.04536
465.44832	0.04530
464.16255	0.04523
462.87678	0.04510
461.59101	0.04487
460.30524	0.04453
459.01947	0.04415
457.73370	0.04379
456.44793	0.04341
455.16216	0.04297
453.87640	0.04250
452.59063	0.04205
451.30486	0.04167
450.01909	0.04136
448.73332	0.04112
447.44755	0.04094
446.16178	0.04082
444.87601	0.04071
443.59025	0.04054
442.30448	0.04032
441.01871	0.04011
439.73294	0.03997
438.44717	0.03992
437.16140	0.03995
435.87563	0.04002
434.58986	0.04008
433.30409	0.04009
432.01833	0.04005
430.73256	0.03995
429.44679	0.03982
428.16102	0.03967
426.87525	0.03950
425.58948	0.03928
424.30371	0.03901
423.01794	0.03872
421.73218	0.03844
420.44641	0.03820
419.16064	0.03800
417.87487	0.03781
416.58910	0.03759
415.30333	0.03735
414.01756	0.03711
412.73179	0.03689
411.44602	0.03668
410.16026	0.03645
408.87449	0.03620
407.58872	0.03598
406.30295	0.03580
405.01718	0.03569
403.73141	0.03566
402.44564	0.03569
401.15987	0.03572
399.87411	0.03570
