3997.45528	0.02924
3996.16951	0.02845
3994.88374	0.02800
3993.59798	0.02799
3992.31221	0.02816
3991.02644	0.02829
3989.74067	0.02838
3988.45490	0.02850
3987.16913	0.02863
3985.88336	0.02871
3984.59759	0.02876
3983.31183	0.02891
3982.02606	0.02923
3980.74029	0.02967
3979.45452	0.03007
3978.16875	0.03021
3976.88298	0.03005
3975.59721	0.02968
3974.31144	0.02929
3973.02567	0.02895
3971.73991	0.02867
3970.45414	0.02845
3969.16837	0.02837
3967.88260	0.02846
3966.59683	0.02874
3965.31106	0.02914
3964.02529	0.02944
3962.73952	0.02942
3961.45376	0.02901
3960.16799	0.02840
3958.88222	0.02786
3957.59645	0.02761
3956.31068	0.02764
3955.02491	0.02777
3953.73914	0.02783
3952.45337	0.02776
3951.16760	0.02767
3949.88184	0.02771
3948.59607	0.02793
3947.31030	0.02821
3946.02453	0.02834
3944.73876	0.02824
3943.45299	0.02803
3942.16722	0.02789
3940.88145	0.02786
3939.59569	0.02783
3938.30992	0.02774
3937.02415	0.02763
3935.73838	0.02749
3934.45261	0.02738
3933.16684	0.02741
3931.88107	0.02770
3930.59530	0.02818
3929.30953	0.02869
3928.02377	0.02903
3926.73800	0.02905
3925.45223	0.02878
3924.16646	0.02840
3922.88069	0.02816
3921.59492	0.02818
3920.30915	0.02835
3919.02338	0.02839
3917.73762	0.02813
3916.45185	0.02770
3915.16608	0.02744
3913.88031	0.02763
3912.59454	0.02816
3911.30877	0.02863
3910.02300	0.02863
3908.73723	0.02806
3907.45146	0.02731
3906.16570	0.02688
3904.87993	0.02706
3903.59416	0.02765
3902.30839	0.02812
3901.02262	0.02813
3899.73685	0.02783
3898.45108	0.02759
3897.16531	0.02762
3895.87955	0.02790
3894.59378	0.02832
3893.30801	0.02874
3892.02224	0.02897
3890.73647	0.02893
3889.45070	0.02863
3888.16493	0.02822
3886.87916	0.02788
3885.59339	0.02771
3884.30763	0.02753
3883.02186	0.02713
3881.73609	0.02650
3880.45032	0.02590
3879.16455	0.02554
3877.87878	0.02548
3876.59301	0.02574
3875.30724	0.02643
3874.02148	0.02747
3872.73571	0.02842
3871.44994	0.02886
3870.16417	0.02880
3868.87840	0.02858
3867.59263	0.02834
3866.30686	0.02812
3865.02109	0.02799
3863.73532	0.02799
3862.44956	0.02800
3861.16379	0.02790
3859.87802	0.02770
3858.59225	0.02744
3857.30648	0.02709
3856.02071	0.02664
3854.73494	0.02620
3853.44917	0.02606
3852.16341	0.02625
3850.87764	0.02653
3849.59187	0.02663
3848.30610	0.02651
3847.02033	0.02635
3845.73456	0.02636
3844.44879	0.02654
3843.16302	0.02675
3841.87725	0.02672
3840.59149	0.02638
3839.30572	0.02596
3838.01995	0.02585
3836.73418	0.02616
3835.44841	0.02658
3834.16264	0.02676
3832.87687	0.02670
3831.59110	0.02661
3830.30534	0.02660
3829.01957	0.02661
3827.73380	0.02665
3826.44803	0.02685
3825.16226	0.02717
3823.87649	0.02735
3822.59072	0.02720
3821.30495	0.02695
3820.01918	0.02687
3818.73342	0.02689
3817.44765	0.02684
3816.16188	0.02680
3814.87611	0.02685
3813.59034	0.02690
3812.30457	0.02684
3811.01880	0.02672
3809.73303	0.02645
3808.44726	0.02590
3807.16150	0.02532
3805.87573	0.02518
3804.58996	0.02557
3803.30419	0.02622
3802.01842	0.02697
3800.73265	0.02773
3799.44688	0.02825
3798.16111	0.02822
3796.87535	0.02778
3795.58958	0.02740
3794.30381	0.02724
3793.01804	0.02712
3791.73227	0.02686
3790.44650	0.02655
3789.16073	0.02635
3787.87496	0.02628
3786.58919	0.02620
3785.30343	0.02596
3784.01766	0.02563
3782.73189	0.02533
3781.44612	0.02515
3780.16035	0.02512
3778.87458	0.02523
3777.58881	0.02540
3776.30304	0.02551
3775.01728	0.02554
3773.73151	0.02547
3772.44574	0.02532
3771.15997	0.02510
3769.87420	0.02489
3768.58843	0.02480
3767.30266	0.02495
3766.01689	0.02542
3764.73112	0.02606
3763.44536	0.02647
3762.15959	0.02638
3760.87382	0.02593
3759.58805	0.02551
3758.30228	0.02523
3757.01651	0.02495
3755.73074	0.02451
3754.44497	0.02406
3753.15921	0.02396
3751.87344	0.02436
3750.58767	0.02498
3749.30190	0.02542
3748.01613	0.02550
3746.73036	0.02516
3745.44459	0.02451
3744.15882	0.02387
3742.87305	0.02342
3741.58729	0.02305
3740.30152	0.02280
3739.01575	0.02281
3737.72998	0.02315
3736.44421	0.02377
3735.15844	0.02450
3733.87267	0.02506
3732.58690	0.02537
3731.30114	0.02554
3730.01537	0.02562
3728.72960	0.02546
3727.44383	0.02504
3726.15806	0.02457
3724.87229	0.02428
3723.58652	0.02425
3722.30075	0.02440
3721.01498	0.02457
3719.72922	0.02464
3718.44345	0.02464
3717.15768	0.02472
3715.87191	0.02488
3714.58614	0.02494
3713.30037	0.02489
3712.01460	0.02497
3710.72883	0.02528
3709.44307	0.02558
3708.15730	0.02549
3706.87153	0.02494
3705.58576	0.02426
3704.29999	0.02382
3703.01422	0.02384
3701.72845	0.02427
3700.44268	0.02481
3699.15691	0.02512
3697.87115	0.02497
3696.58538	0.02450
3695.29961	0.02401
3694.01384	0.02372
3692.72807	0.02360
3691.44230	0.02353
3690.15653	0.02335
3688.87076	0.02302
3687.58500	0.02259
3686.29923	0.02224
3685.01346	0.02219
3683.72769	0.02257
3682.44192	0.02321
3681.15615	0.02379
3679.87038	0.02412
3678.58461	0.02413
3677.29884	0.02389
3676.01308	0.02377
3674.72731	0.02413
3673.44154	0.02486
3672.15577	0.02541
3670.87000	0.02548
3669.58423	0.02521
3668.29846	0.02480
3667.01269	0.02434
3665.72693	0.02387
3664.44116	0.02347
3663.15539	0.02318
3661.86962	0.02309
3660.58385	0.02330
3659.29808	0.02380
3658.01231	0.02435
3656.72654	0.02473
3655.44077	0.02489
3654.15501	0.02488
3652.86924	0.02473
3651.58347	0.02451
3650.29770	0.02443
3649.01193	0.02467
3647.72616	0.02521
3646.44039	0.02576
3645.15462	0.02604
3643.86886	0.02606
3642.58309	0.02607
3641.29732	0.02632
3640.01155	0.02683
3638.72578	0.02739
3637.44001	0.02776
3636.15424	0.02785
3634.86847	0.02783
3633.58270	0.02788
3632.29694	0.02797
3631.01117	0.02790
3629.72540	0.02766
3628.43963	0.02754
3627.15386	0.02773
3625.86809	0.02810
3624.58232	0.02839
3623.29655	0.02845
3622.01079	0.02829
3620.72502	0.02802
3619.43925	0.02780
3618.15348	0.02772
3616.86771	0.02779
3615.58194	0.02793
3614.29617	0.02806
3613.01040	0.02808
3611.72463	0.02800
3610.43887	0.02800
3609.15310	0.02832
3607.86733	0.02904
3606.58156	0.02999
3605.29579	0.03088
3604.01002	0.03150
3602.72425	0.03181
3601.43848	0.03188
3600.15272	0.03191
3598.86695	0.03202
3597.58118	0.03220
3596.29541	0.03237
3595.00964	0.03247
3593.72387	0.03252
3592.43810	0.03257
3591.15233	0.03265
3589.86656	0.03277
3588.58080	0.03284
3587.29503	0.03286
3586.00926	0.03296
3584.72349	0.03331
3583.43772	0.03392
3582.15195	0.03463
3580.86618	0.03518
3579.58041	0.03546
3578.29464	0.03547
3577.00888	0.03535
3575.72311	0.03542
3574.43734	0.03587
3573.15157	0.03663
3571.86580	0.03734
3570.58003	0.03772
3569.29426	0.03782
3568.00849	0.03787
3566.72273	0.03806
3565.43696	0.03835
3564.15119	0.03862
3562.86542	0.03888
3561.57965	0.03921
3560.29388	0.03966
3559.00811	0.04006
3557.72234	0.04014
3556.43657	0.03986
3555.15081	0.03952
3553.86504	0.03944
3552.57927	0.03969
3551.29350	0.04011
3550.00773	0.04059
3548.72196	0.04118
3547.43619	0.04188
3546.15042	0.04257
3544.86466	0.04301
3543.57889	0.04312
3542.29312	0.04300
3541.00735	0.04286
3539.72158	0.04284
3538.43581	0.04290
3537.15004	0.04294
3535.86427	0.04301
3534.57850	0.04335
3533.29274	0.04407
3532.00697	0.04496
3530.72120	0.04553
3529.43543	0.04554
3528.14966	0.04523
3526.86389	0.04514
3525.57812	0.04556
3524.29235	0.04628
3523.00659	0.04691
3521.72082	0.04727
3520.43505	0.04751
3519.14928	0.04782
3517.86351	0.04818
3516.57774	0.04843
3515.29197	0.04848
3514.00620	0.04842
3512.72043	0.04847
3511.43467	0.04880
3510.14890	0.04940
3508.86313	0.05001
3507.57736	0.05029
3506.29159	0.05011
3505.00582	0.04974
3503.72005	0.04955
3502.43428	0.04974
3501.14852	0.05015
3499.86275	0.05052
3498.57698	0.05079
3497.29121	0.05106
3496.00544	0.05153
3494.71967	0.05222
3493.43390	0.05299
3492.14813	0.05368
3490.86236	0.05417
3489.57660	0.05441
3488.29083	0.05439
3487.00506	0.05419
3485.71929	0.05395
3484.43352	0.05375
3483.14775	0.05364
3481.86198	0.05371
3480.57621	0.05407
3479.29045	0.05475
3478.00468	0.05558
3476.71891	0.05630
3475.43314	0.05670
3474.14737	0.05671
3472.86160	0.05642
3471.57583	0.05598
3470.29006	0.05562
3469.00429	0.05553
3467.71853	0.05573
3466.43276	0.05603
3465.14699	0.05624
3463.86122	0.05632
3462.57545	0.05641
3461.28968	0.05667
3460.00391	0.05707
3458.71814	0.05742
3457.43238	0.05753
3456.14661	0.05742
3454.86084	0.05725
3453.57507	0.05720
3452.28930	0.05733
3451.00353	0.05760
3449.71776	0.05802
3448.43199	0.05856
3447.14622	0.05912
3445.86046	0.05961
3444.57469	0.05994
3443.28892	0.06012
3442.00315	0.06023
3440.71738	0.06035
3439.43161	0.06055
3438.14584	0.06076
3436.86007	0.06087
3435.57431	0.06088
3434.28854	0.06093
3433.00277	0.06116
3431.71700	0.06155
3430.43123	0.06199
3429.14546	0.06248
3427.85969	0.06304
3426.57392	0.06360
3425.28815	0.06393
3424.00239	0.06389
3422.71662	0.06357
3421.43085	0.06325
3420.14508	0.06322
3418.85931	0.06356
3417.57354	0.06410
3416.28777	0.06463
3415.00200	0.06507
3413.71624	0.06548
3412.43047	0.06594
3411.14470	0.06636
3409.85893	0.06650
3408.57316	0.06622
3407.28739	0.06571
3406.00162	0.06539
3404.71585	0.06556
3403.43008	0.06615
3402.14432	0.06686
3400.85855	0.06743
3399.57278	0.06778
3398.28701	0.06802
3397.00124	0.06823
3395.71547	0.06849
3394.42970	0.06886
3393.14393	0.06936
3391.85817	0.06996
3390.57240	0.07057
3389.28663	0.07116
3388.00086	0.07173
3386.71509	0.07223
3385.42932	0.07251
3384.14355	0.07250
3382.85778	0.07233
3381.57201	0.07227
3380.28625	0.07248
3379.00048	0.07281
3377.71471	0.07302
3376.42894	0.07299
3375.14317	0.07283
3373.85740	0.07275
3372.57163	0.07289
3371.28586	0.07324
3370.00010	0.07373
3368.71433	0.07431
3367.42856	0.07493
3366.14279	0.07550
3364.85702	0.07599
3363.57125	0.07649
3362.28548	0.07702
3360.99971	0.07747
3359.71394	0.07770
3358.42818	0.07771
3357.14241	0.07770
3355.85664	0.07789
3354.57087	0.07830
3353.28510	0.07888
3351.99933	0.07953
3350.71356	0.08014
3349.42779	0.08057
3348.14202	0.08082
3346.85626	0.08105
3345.57049	0.08141
3344.28472	0.08190
3342.99895	0.08234
3341.71318	0.08266
3340.42741	0.08295
3339.14164	0.08336
3337.85587	0.08389
3336.57011	0.08438
3335.28434	0.08470
3333.99857	0.08483
3332.71280	0.08493
3331.42703	0.08517
3330.14126	0.08558
3328.85549	0.08602
3327.56972	0.08639
3326.28395	0.08671
3324.99819	0.08708
3323.71242	0.08750
3322.42665	0.08788
3321.14088	0.08811
3319.85511	0.08812
3318.56934	0.08798
3317.28357	0.08780
3315.99780	0.08768
3314.71204	0.08766
3313.42627	0.08780
3312.14050	0.08816
3310.85473	0.08881
3309.56896	0.08966
3308.28319	0.09056
3306.99742	0.09138
3305.71165	0.09205
3304.42588	0.09251
3303.14012	0.09273
3301.85435	0.09279
3300.56858	0.09281
3299.28281	0.09284
3297.99704	0.09284
3296.71127	0.09281
3295.42550	0.09282
3294.13973	0.09297
3292.85397	0.09321
3291.56820	0.09334
3290.28243	0.09323
3288.99666	0.09300
3287.71089	0.09291
3286.42512	0.09312
3285.13935	0.09353
3283.85358	0.09394
3282.56781	0.09423
3281.28205	0.09444
3279.99628	0.09470
3278.71051	0.09499
3277.42474	0.09515
3276.13897	0.09507
3274.85320	0.09477
3273.56743	0.09435
3272.28166	0.09389
3270.99590	0.09334
3269.71013	0.09272
3268.42436	0.09213
3267.13859	0.09172
3265.85282	0.09164
3264.56705	0.09187
3263.28128	0.09221
3261.99551	0.09230
3260.70974	0.09192
3259.42398	0.09120
3258.13821	0.09048
3256.85244	0.09005
3255.56667	0.08989
3254.28090	0.08981
3252.99513	0.08972
3251.70936	0.08970
3250.42359	0.08979
3249.13783	0.08982
3247.85206	0.08949
3246.56629	0.08871
3245.28052	0.08774
3243.99475	0.08702
3242.70898	0.08673
3241.42321	0.08668
3240.13744	0.08656
3238.85167	0.08630
3237.56591	0.08600
3236.28014	0.08582
3234.99437	0.08570
3233.70860	0.08552
3232.42283	0.08523
3231.13706	0.08495
3229.85129	0.08485
3228.56552	0.08496
3227.27976	0.08510
3225.99399	0.08507
3224.70822	0.08482
3223.42245	0.08449
3222.13668	0.08435
3220.85091	0.08458
3219.56514	0.08498
3218.27937	0.08518
3216.99360	0.08493
3215.70784	0.08433
3214.42207	0.08376
3213.13630	0.08351
3211.85053	0.08358
3210.56476	0.08376
3209.27899	0.08377
3207.99322	0.08338
3206.70745	0.08261
3205.42169	0.08175
3204.13592	0.08126
3202.85015	0.08136
3201.56438	0.08185
3200.27861	0.08226
3198.99284	0.08231
3197.70707	0.08197
3196.42130	0.08145
3195.13553	0.08099
3193.84977	0.08076
3192.56400	0.08077
3191.27823	0.08083
3189.99246	0.08075
3188.70669	0.08049
3187.42092	0.08015
3186.13515	0.07986
3184.84938	0.07952
3183.56362	0.07901
3182.27785	0.07837
3180.99208	0.07781
3179.70631	0.07751
3178.42054	0.07745
3177.13477	0.07746
3175.84900	0.07741
3174.56323	0.07730
3173.27746	0.07724
3171.99170	0.07726
3170.70593	0.07722
3169.42016	0.07698
3168.13439	0.07649
3166.84862	0.07592
3165.56285	0.07543
3164.27708	0.07504
3162.99131	0.07464
3161.70555	0.07418
3160.41978	0.07376
3159.13401	0.07349
3157.84824	0.07341
3156.56247	0.07339
3155.27670	0.07328
3153.99093	0.07307
3152.70516	0.07283
3151.41939	0.07266
3150.13363	0.07251
3148.84786	0.07234
3147.56209	0.07217
3146.27632	0.07209
3144.99055	0.07211
3143.70478	0.07216
3142.41901	0.07222
3141.13324	0.07230
3139.84748	0.07237
3138.56171	0.07224
3137.27594	0.07170
3135.99017	0.07082
3134.70440	0.06986
3133.41863	0.06912
3132.13286	0.06868
3130.84709	0.06847
3129.56132	0.06834
3128.27556	0.06829
3126.98979	0.06834
3125.70402	0.06846
3124.41825	0.06849
3123.13248	0.06836
3121.84671	0.06812
3120.56094	0.06789
3119.27517	0.06773
3117.98940	0.06764
3116.70364	0.06762
3115.41787	0.06768
3114.13210	0.06771
3112.84633	0.06760
3111.56056	0.06736
3110.27479	0.06717
3108.98902	0.06718
3107.70325	0.06736
3106.41749	0.06754
3105.13172	0.06761
3103.84595	0.06763
3102.56018	0.06775
3101.27441	0.06804
3099.98864	0.06842
3098.70287	0.06870
3097.41710	0.06881
3096.13133	0.06874
3094.84557	0.06859
3093.55980	0.06842
3092.27403	0.06830
3090.98826	0.06833
3089.70249	0.06858
3088.41672	0.06900
3087.13095	0.06938
3085.84518	0.06952
3084.55942	0.06942
3083.27365	0.06923
3081.98788	0.06913
3080.70211	0.06918
3079.41634	0.06935
3078.13057	0.06961
3076.84480	0.06991
3075.55903	0.07014
3074.27326	0.07026
3072.98750	0.07025
3071.70173	0.07016
3070.41596	0.06999
3069.13019	0.06972
3067.84442	0.06936
3066.55865	0.06900
3065.27288	0.06875
3063.98711	0.06872
3062.70135	0.06887
3061.41558	0.06917
3060.12981	0.06954
3058.84404	0.06988
3057.55827	0.07001
3056.27250	0.06986
3054.98673	0.06950
3053.70096	0.06912
3052.41519	0.06879
3051.12943	0.06843
3049.84366	0.06795
3048.55789	0.06741
3047.27212	0.06690
3045.98635	0.06654
3044.70058	0.06636
3043.41481	0.06630
3042.12904	0.06626
3040.84328	0.06617
3039.55751	0.06604
3038.27174	0.06599
3036.98597	0.06608
3035.70020	0.06626
3034.41443	0.06633
3033.12866	0.06615
3031.84289	0.06567
3030.55712	0.06498
3029.27136	0.06428
3027.98559	0.06371
3026.69982	0.06336
3025.41405	0.06320
3024.12828	0.06316
3022.84251	0.06320
3021.55674	0.06330
3020.27097	0.06344
3018.98521	0.06350
3017.69944	0.06338
3016.41367	0.06306
3015.12790	0.06263
3013.84213	0.06224
3012.55636	0.06194
3011.27059	0.06172
3009.98482	0.06152
3008.69905	0.06136
3007.41329	0.06125
3006.12752	0.06118
3004.84175	0.06112
3003.55598	0.06108
3002.27021	0.06102
3000.98444	0.06092
2999.69867	0.06084
2998.41290	0.06105
2997.12714	0.06144
2995.84137	0.06184
2994.55560	0.06215
2993.26983	0.06232
2991.98406	0.06227
2990.69829	0.06193
2989.41252	0.06147
2988.12675	0.06121
2986.84098	0.06139
2985.55522	0.06188
2984.26945	0.06239
2982.98368	0.06274
2981.69791	0.06302
2980.41214	0.06344
2979.12637	0.06401
2977.84060	0.06454
2976.55483	0.06492
2975.26907	0.06521
2973.98330	0.06551
2972.69753	0.06574
2971.41176	0.06582
2970.12599	0.06579
2968.84022	0.06586
2967.55445	0.06617
2966.26868	0.06669
2964.98291	0.06726
2963.69715	0.06777
2962.41138	0.06811
2961.12561	0.06833
2959.83984	0.06851
2958.55407	0.06876
2957.26830	0.06907
2955.98253	0.06931
2954.69676	0.06935
2953.41100	0.06911
2952.12523	0.06873
2950.83946	0.06842
2949.55369	0.06839
2948.26792	0.06865
2946.98215	0.06902
2945.69638	0.06930
2944.41061	0.06944
2943.12484	0.06952
2941.83908	0.06965
2940.55331	0.06983
2939.26754	0.07001
2937.98177	0.07025
2936.69600	0.07062
2935.41023	0.07109
2934.12446	0.07150
2932.83869	0.07177
2931.55293	0.07189
2930.26716	0.07193
2928.98139	0.07193
2927.69562	0.07191
2926.40985	0.07189
2925.12408	0.07185
2923.83831	0.07176
2922.55254	0.07157
2921.26677	0.07137
2919.98101	0.07124
2918.69524	0.07117
2917.40947	0.07098
2916.12370	0.07052
2914.83793	0.06982
2913.55216	0.06907
2912.26639	0.06837
2910.98062	0.06777
2909.69486	0.06721
2908.40909	0.06667
2907.12332	0.06612
2905.83755	0.06558
2904.55178	0.06515
2903.26601	0.06493
2901.98024	0.06491
2900.69447	0.06496
2899.40870	0.06490
2898.12294	0.06466
2896.83717	0.06425
2895.55140	0.06377
2894.26563	0.06331
2892.97986	0.06295
2891.69409	0.06273
2890.40832	0.06262
2889.12255	0.06256
2887.83678	0.06260
2886.55102	0.06279
2885.26525	0.06298
2883.97948	0.06298
2882.69371	0.06271
2881.40794	0.06234
2880.12217	0.06211
2878.83640	0.06218
2877.55063	0.06245
2876.26487	0.06274
2874.97910	0.06291
2873.69333	0.06296
2872.40756	0.06298
2871.12179	0.06298
2869.83602	0.06288
2868.55025	0.06262
2867.26448	0.06219
2865.97871	0.06169
2864.69295	0.06130
2863.40718	0.06116
2862.12141	0.06121
2860.83564	0.06124
2859.54987	0.06108
2858.26410	0.06080
2856.97833	0.06056
2855.69256	0.06053
2854.40680	0.06068
2853.12103	0.06086
2851.83526	0.06083
2850.54949	0.06051
2849.26372	0.05997
2847.97795	0.05939
2846.69218	0.05889
2845.40641	0.05848
2844.12064	0.05809
2842.83488	0.05767
2841.54911	0.05724
2840.26334	0.05687
2838.97757	0.05659
2837.69180	0.05644
2836.40603	0.05637
2835.12026	0.05634
2833.83449	0.05625
2832.54873	0.05602
2831.26296	0.05568
2829.97719	0.05535
2828.69142	0.05510
2827.40565	0.05490
2826.11988	0.05467
2824.83411	0.05441
2823.54834	0.05419
2822.26257	0.05407
2820.97681	0.05400
2819.69104	0.05387
2818.40527	0.05368
2817.11950	0.05354
2815.83373	0.05347
2814.54796	0.05338
2813.26219	0.05322
2811.97642	0.05307
2810.69066	0.05308
2809.40489	0.05322
2808.11912	0.05331
2806.83335	0.05321
2805.54758	0.05296
2804.26181	0.05271
2802.97604	0.05263
2801.69027	0.05268
2800.40450	0.05270
2799.11874	0.05255
2797.83297	0.05225
2796.54720	0.05195
2795.26143	0.05173
2793.97566	0.05162
2792.68989	0.05160
2791.40412	0.05165
2790.11835	0.05169
2788.83259	0.05164
2787.54682	0.05151
2786.26105	0.05138
2784.97528	0.05133
2783.68951	0.05136
2782.40374	0.05140
2781.11797	0.05137
2779.83220	0.05128
2778.54643	0.05115
2777.26067	0.05097
2775.97490	0.05075
2774.68913	0.05059
2773.40336	0.05057
2772.11759	0.05069
2770.83182	0.05080
2769.54605	0.05071
2768.26028	0.05040
2766.97452	0.04995
2765.68875	0.04958
2764.40298	0.04941
2763.11721	0.04934
2761.83144	0.04921
2760.54567	0.04898
2759.25990	0.04876
2757.97413	0.04863
2756.68836	0.04857
2755.40260	0.04852
2754.11683	0.04847
2752.83106	0.04848
2751.54529	0.04853
2750.25952	0.04858
2748.97375	0.04856
2747.68798	0.04851
2746.40221	0.04845
2745.11645	0.04838
2743.83068	0.04823
2742.54491	0.04797
2741.25914	0.04762
2739.97337	0.04728
2738.68760	0.04703
2737.40183	0.04693
2736.11606	0.04698
2734.83029	0.04711
2733.54453	0.04722
2732.25876	0.04728
2730.97299	0.04731
2729.68722	0.04732
2728.40145	0.04726
2727.11568	0.04707
2725.82991	0.04675
2724.54414	0.04638
2723.25838	0.04608
2721.97261	0.04595
2720.68684	0.04598
2719.40107	0.04608
2718.11530	0.04619
2716.82953	0.04630
2715.54376	0.04640
2714.25799	0.04638
2712.97222	0.04621
2711.68646	0.04595
2710.40069	0.04573
2709.11492	0.04566
2707.82915	0.04571
2706.54338	0.04578
2705.25761	0.04576
2703.97184	0.04558
2702.68607	0.04531
2701.40031	0.04511
2700.11454	0.04504
2698.82877	0.04503
2697.54300	0.04496
2696.25723	0.04485
2694.97146	0.04481
2693.68569	0.04487
2692.39992	0.04493
2691.11415	0.04486
2689.82839	0.04467
2688.54262	0.04450
2687.25685	0.04446
2685.97108	0.04445
2684.68531	0.04434
2683.39954	0.04412
2682.11377	0.04389
2680.82800	0.04370
2679.54224	0.04351
2678.25647	0.04334
2676.97070	0.04325
2675.68493	0.04324
2674.39916	0.04324
2673.11339	0.04316
2671.82762	0.04310
2670.54185	0.04316
2669.25608	0.04338
2667.97032	0.04363
2666.68455	0.04378
2665.39878	0.04375
2664.11301	0.04359
2662.82724	0.04339
2661.54147	0.04322
2660.25570	0.04307
2658.96993	0.04295
2657.68417	0.04283
2656.39840	0.04273
2655.11263	0.04262
2653.82686	0.04247
2652.54109	0.04227
2651.25532	0.04204
2649.96955	0.04181
2648.68378	0.04158
2647.39801	0.04139
2646.11225	0.04129
2644.82648	0.04132
2643.54071	0.04141
2642.25494	0.04151
2640.96917	0.04153
2639.68340	0.04141
2638.39763	0.04116
2637.11186	0.04087
2635.82609	0.04068
2634.54033	0.04058
2633.25456	0.04042
2631.96879	0.04007
2630.68302	0.03961
2629.39725	0.03920
2628.11148	0.03890
2626.82571	0.03874
2625.53994	0.03866
2624.25418	0.03859
2622.96841	0.03842
2621.68264	0.03815
2620.39687	0.03786
2619.11110	0.03767
2617.82533	0.03763
2616.53956	0.03776
2615.25379	0.03796
2613.96802	0.03803
2612.68226	0.03786
2611.39649	0.03754
2610.11072	0.03729
2608.82495	0.03717
2607.53918	0.03706
2606.25341	0.03684
2604.96764	0.03658
2603.68187	0.03640
2602.39611	0.03634
2601.11034	0.03629
2599.82457	0.03609
2598.53880	0.03573
2597.25303	0.03531
2595.96726	0.03498
2594.68149	0.03486
2593.39572	0.03494
2592.10995	0.03511
2590.82419	0.03527
2589.53842	0.03541
2588.25265	0.03556
2586.96688	0.03569
2585.68111	0.03573
2584.39534	0.03568
2583.10957	0.03559
2581.82380	0.03557
2580.53804	0.03563
2579.25227	0.03575
2577.96650	0.03587
2576.68073	0.03594
2575.39496	0.03587
2574.10919	0.03554
2572.82342	0.03497
2571.53765	0.03433
2570.25188	0.03392
2568.96612	0.03391
2567.68035	0.03411
2566.39458	0.03426
2565.10881	0.03422
2563.82304	0.03411
2562.53727	0.03403
2561.25150	0.03394
2559.96573	0.03380
2558.67997	0.03361
2557.39420	0.03346
2556.10843	0.03342
2554.82266	0.03348
2553.53689	0.03354
2552.25112	0.03354
2550.96535	0.03353
2549.67958	0.03360
2548.39381	0.03373
2547.10805	0.03375
2545.82228	0.03355
2544.53651	0.03323
2543.25074	0.03298
2541.96497	0.03289
2540.67920	0.03283
2539.39343	0.03274
2538.10766	0.03265
2536.82190	0.03261
2535.53613	0.03258
2534.25036	0.03247
2532.96459	0.03223
2531.67882	0.03189
2530.39305	0.03157
2529.10728	0.03136
2527.82151	0.03129
2526.53574	0.03133
2525.24998	0.03143
2523.96421	0.03155
2522.67844	0.03165
2521.39267	0.03169
2520.10690	0.03166
2518.82113	0.03159
2517.53536	0.03157
2516.24959	0.03166
2514.96383	0.03181
2513.67806	0.03188
2512.39229	0.03176
2511.10652	0.03151
2509.82075	0.03124
2508.53498	0.03107
2507.24921	0.03097
2505.96344	0.03087
2504.67767	0.03071
2503.39191	0.03055
2502.10614	0.03055
2500.82037	0.03080
2499.53460	0.03114
2498.24883	0.03126
2496.96306	0.03095
2495.67729	0.03039
2494.39152	0.02999
2493.10576	0.03000
2491.81999	0.03023
2490.53422	0.03028
2489.24845	0.02987
2487.96268	0.02917
2486.67691	0.02856
2485.39114	0.02835
2484.10537	0.02857
2482.81960	0.02903
2481.53384	0.02949
2480.24807	0.02984
2478.96230	0.03009
2477.67653	0.03028
2476.39076	0.03043
2475.10499	0.03054
2473.81922	0.03062
2472.53345	0.03056
2471.24769	0.03030
2469.96192	0.02988
2468.67615	0.02954
2467.39038	0.02949
2466.10461	0.02971
2464.81884	0.03002
2463.53307	0.03024
2462.24730	0.03031
2460.96153	0.03023
2459.67577	0.03005
2458.39000	0.02989
2457.10423	0.02990
2455.81846	0.03011
2454.53269	0.03037
2453.24692	0.03047
2451.96115	0.03038
2450.67538	0.03029
2449.38962	0.03037
2448.10385	0.03061
2446.81808	0.03076
2445.53231	0.03063
2444.24654	0.03027
2442.96077	0.02996
2441.67500	0.02987
2440.38923	0.02996
2439.10346	0.03011
2437.81770	0.03018
2436.53193	0.03015
2435.24616	0.03002
2433.96039	0.02986
2432.67462	0.02973
2431.38885	0.02968
2430.10308	0.02970
2428.81731	0.02977
2427.53155	0.02981
2426.24578	0.02978
2424.96001	0.02968
2423.67424	0.02962
2422.38847	0.02972
2421.10270	0.02993
2419.81693	0.03008
2418.53116	0.03007
2417.24539	0.02997
2415.95963	0.02986
2414.67386	0.02967
2413.38809	0.02932
2412.10232	0.02889
2410.81655	0.02857
2409.53078	0.02836
2408.24501	0.02810
2406.95924	0.02770
2405.67347	0.02735
2404.38771	0.02733
2403.10194	0.02771
2401.81617	0.02826
2400.53040	0.02865
2399.24463	0.02868
2397.95886	0.02853
2396.67309	0.02834
2395.38732	0.02820
2394.10156	0.02814
2392.81579	0.02818
2391.53002	0.02834
2390.24425	0.02863
2388.95848	0.02898
2387.67271	0.02926
2386.38694	0.02940
2385.10117	0.02942
2383.81540	0.02939
2382.52964	0.02936
2381.24387	0.02939
2379.95810	0.02955
2378.67233	0.02984
2377.38656	0.03017
2376.10079	0.03039
2374.81502	0.03039
2373.52925	0.03024
2372.24349	0.03005
2370.95772	0.02994
2369.67195	0.02994
2368.38618	0.03008
2367.10041	0.03032
2365.81464	0.03059
2364.52887	0.03083
2363.24310	0.03099
2361.95733	0.03115
2360.67157	0.03136
2359.38580	0.03159
2358.10003	0.03169
2356.81426	0.03159
2355.52849	0.03130
2354.24272	0.03097
2352.95695	0.03071
2351.67118	0.03053
2350.38542	0.03042
2349.09965	0.03035
2347.81388	0.03032
2346.52811	0.03035
2345.24234	0.03046
2343.95657	0.03061
2342.67080	0.03071
2341.38503	0.03069
2340.09926	0.03058
2338.81350	0.03051
2337.52773	0.03054
2336.24196	0.03063
2334.95619	0.03068
2333.67042	0.03061
2332.38465	0.03046
2331.09888	0.03027
2329.81311	0.03012
2328.52735	0.03004
2327.24158	0.03007
2325.95581	0.03015
2324.67004	0.03018
2323.38427	0.03008
2322.09850	0.02992
2320.81273	0.02983
2319.52696	0.02978
2318.24119	0.02964
2316.95543	0.02928
2315.66966	0.02878
2314.38389	0.02832
2313.09812	0.02803
2311.81235	0.02789
2310.52658	0.02782
2309.24081	0.02773
2307.95504	0.02761
2306.66928	0.02742
2305.38351	0.02716
2304.09774	0.02689
2302.81197	0.02673
2301.52620	0.02669
2300.24043	0.02665
2298.95466	0.02649
2297.66889	0.02623
2296.38312	0.02604
2295.09736	0.02598
2293.81159	0.02594
2292.52582	0.02574
2291.24005	0.02542
2289.95428	0.02520
2288.66851	0.02525
2287.38274	0.02552
2286.09697	0.02577
2284.81121	0.02580
2283.52544	0.02557
2282.23967	0.02518
2280.95390	0.02477
2279.66813	0.02438
2278.38236	0.02400
2277.09659	0.02368
2275.81082	0.02351
2274.52505	0.02348
2273.23929	0.02345
2271.95352	0.02327
2270.66775	0.02302
2269.38198	0.02285
2268.09621	0.02281
2266.81044	0.02290
2265.52467	0.02308
2264.23890	0.02328
2262.95314	0.02337
2261.66737	0.02327
2260.38160	0.02313
2259.09583	0.02311
2257.81006	0.02318
2256.52429	0.02309
2255.23852	0.02267
2253.95275	0.02211
2252.66698	0.02176
2251.38122	0.02177
2250.09545	0.02195
2248.80968	0.02198
2247.52391	0.02153
2246.23814	0.02101
2244.95237	0.02075
2243.66660	0.02088
2242.38083	0.02119
2241.09507	0.02143
2239.80930	0.02140
2238.52353	0.02110
2237.23776	0.02065
2235.95199	0.02029
2234.66622	0.02016
2233.38045	0.02019
2232.09468	0.02013
2230.80891	0.01984
2229.52315	0.01945
2228.23738	0.01924
2226.95161	0.01923
2225.66584	0.01917
2224.38007	0.01880
2223.09430	0.01827
2221.80853	0.01798
2220.52276	0.01810
2219.23700	0.01834
2217.95123	0.01834
2216.66546	0.01810
2215.37969	0.01776
2214.09392	0.01733
2212.80815	0.01679
2211.52238	0.01642
2210.23661	0.01659
2208.95084	0.01727
2207.66508	0.01790
2206.37931	0.01787
2205.09354	0.01715
2203.80777	0.01626
2202.52200	0.01578
2201.23623	0.01580
2199.95046	0.01587
2198.66469	0.01562
2197.37893	0.01514
2196.09316	0.01478
2194.80739	0.01463
2193.52162	0.01450
2192.23585	0.01421
2190.95008	0.01392
2189.66431	0.01393
2188.37854	0.01434
2187.09277	0.01491
2185.80701	0.01526
2184.52124	0.01525
2183.23547	0.01498
2181.94970	0.01466
2180.66393	0.01438
2179.37816	0.01420
2178.09239	0.01428
2176.80662	0.01475
2175.52085	0.01549
2174.23509	0.01605
2172.94932	0.01604
2171.66355	0.01540
2170.37778	0.01451
2169.09201	0.01370
2167.80624	0.01295
2166.52047	0.01219
2165.23470	0.01170
2163.94894	0.01187
2162.66317	0.01244
2161.37740	0.01248
2160.09163	0.01155
2158.80586	0.01043
2157.52009	0.01030
2156.23432	0.01122
2154.94855	0.01225
2153.66278	0.01273
2152.37702	0.01271
2151.09125	0.01248
2149.80548	0.01214
2148.51971	0.01178
2147.23394	0.01168
2145.94817	0.01192
2144.66240	0.01223
2143.37663	0.01227
2142.09087	0.01212
2140.80510	0.01216
2139.51933	0.01259
2138.23356	0.01317
2136.94779	0.01346
2135.66202	0.01342
2134.37625	0.01347
2133.09048	0.01406
2131.80471	0.01514
2130.51895	0.01626
2129.23318	0.01701
2127.94741	0.01732
2126.66164	0.01739
2125.37587	0.01750
2124.09010	0.01776
2122.80433	0.01805
2121.51856	0.01814
2120.23280	0.01803
2118.94703	0.01791
2117.66126	0.01795
2116.37549	0.01810
2115.08972	0.01815
2113.80395	0.01798
2112.51818	0.01759
2111.23241	0.01716
2109.94664	0.01692
2108.66088	0.01704
2107.37511	0.01754
2106.08934	0.01826
2104.80357	0.01893
2103.51780	0.01928
2102.23203	0.01908
2100.94626	0.01869
2099.66049	0.02242
2098.37473	0.02430
2097.08896	0.02413
2095.80319	0.02309
2094.51742	0.02148
2093.23165	0.01968
2091.94588	0.01807
2090.66011	0.01683
2089.37434	0.01599
2088.08857	0.01569
2086.80281	0.01607
2085.51704	0.01705
2084.23127	0.01820
2082.94550	0.01905
2081.65973	0.01947
2080.37396	0.01977
2079.08819	0.02031
2077.80242	0.02112
2076.51666	0.02186
2075.23089	0.02219
2073.94512	0.02217
2072.65935	0.02209
2071.37358	0.02212
2070.08781	0.02204
2068.80204	0.02155
2067.51627	0.02064
2066.23050	0.01962
2064.94474	0.01879
2063.65897	0.01819
2062.37320	0.01772
2061.08743	0.01723
2059.80166	0.01665
2058.51589	0.01591
2057.23012	0.01497
2055.94435	0.01386
2054.65859	0.01289
2053.37282	0.01264
2052.08705	0.01360
2050.80128	0.01555
2049.51551	0.01745
2048.22974	0.01831
2046.94397	0.01814
2045.65820	0.01777
2044.37243	0.01779
2043.08667	0.01804
2041.80090	0.01810
2040.51513	0.01809
2039.22936	0.01850
2037.94359	0.01951
2036.65782	0.02068
2035.37205	0.02134
2034.08628	0.02118
2032.80052	0.02045
2031.51475	0.01958
2030.22898	0.01881
2028.94321	0.01808
2027.65744	0.01722
2026.37167	0.01615
2025.08590	0.01504
2023.80013	0.01426
2022.51436	0.01413
2021.22860	0.01458
2019.94283	0.01518
2018.65706	0.01551
2017.37129	0.01546
2016.08552	0.01532
2014.79975	0.01548
2013.51398	0.01613
2012.22821	0.01708
2010.94245	0.01807
2009.65668	0.01911
2008.37091	0.02023
2007.08514	0.02095
2005.79937	0.02052
2004.51360	0.01879
2003.22783	0.01655
2001.94206	0.01480
2000.65629	0.01391
1999.37053	0.01362
1998.08476	0.01362
1996.79899	0.01375
1995.51322	0.01391
1994.22745	0.01400
1992.94168	0.01393
1991.65591	0.01370
1990.37014	0.01322
1989.08438	0.01250
1987.79861	0.01183
1986.51284	0.01170
1985.22707	0.01251
1983.94130	0.01438
1982.65553	0.01723
1981.36976	0.02078
1980.08399	0.02451
1978.79822	0.02758
1977.51246	0.02902
1976.22669	0.02834
1974.94092	0.02614
1973.65515	0.02373
1972.36938	0.02216
1971.08361	0.02145
1969.79784	0.02092
1968.51207	0.02006
1967.22631	0.01897
1965.94054	0.01807
1964.65477	0.01763
1963.36900	0.01752
1962.08323	0.01746
1960.79746	0.01721
1959.51169	0.01673
1958.22592	0.01605
1956.94015	0.01528
1955.65439	0.01474
1954.36862	0.01480
1953.08285	0.01554
1951.79708	0.01661
1950.51131	0.01752
1949.22554	0.01803
1947.93977	0.01821
1946.65400	0.01819
1945.36823	0.01808
1944.08247	0.01807
1942.79670	0.01833
1941.51093	0.01885
1940.22516	0.01938
1938.93939	0.01968
1937.65362	0.01977
1936.36785	0.01986
1935.08208	0.02000
1933.79632	0.02008
1932.51055	0.02002
1931.22478	0.01986
1929.93901	0.01961
1928.65324	0.01923
1927.36747	0.01872
1926.08170	0.01827
1924.79593	0.01806
1923.51016	0.01815
1922.22440	0.01841
1920.93863	0.01865
1919.65286	0.01878
1918.36709	0.01885
1917.08132	0.01895
1915.79555	0.01913
1914.50978	0.01935
1913.22401	0.01956
1911.93825	0.01971
1910.65248	0.01977
1909.36671	0.01971
1908.08094	0.01953
1906.79517	0.01934
1905.50940	0.01927
1904.22363	0.01938
1902.93786	0.01962
1901.65209	0.01985
1900.36633	0.01999
1899.08056	0.01996
1897.79479	0.01978
1896.50902	0.01954
1895.22325	0.01940
1893.93748	0.01946
1892.65171	0.01961
1891.36594	0.01970
1890.08018	0.01962
1888.79441	0.01939
1887.50864	0.01908
1886.22287	0.01880
1884.93710	0.01864
1883.65133	0.01864
1882.36556	0.01870
1881.07979	0.01870
1879.79402	0.01860
1878.50826	0.01849
1877.22249	0.01847
1875.93672	0.01852
1874.65095	0.01859
1873.36518	0.01865
1872.07941	0.01869
1870.79364	0.01870
1869.50787	0.01865
1868.22211	0.01861
1866.93634	0.01865
1865.65057	0.01871
1864.36480	0.01871
1863.07903	0.01866
1861.79326	0.01864
1860.50749	0.01866
1859.22172	0.01864
1857.93595	0.01854
1856.65019	0.01840
1855.36442	0.01830
1854.07865	0.01828
1852.79288	0.01828
1851.50711	0.01825
1850.22134	0.01813
1848.93557	0.01796
1847.64980	0.01780
1846.36404	0.01769
1845.07827	0.01763
1843.79250	0.01755
1842.50673	0.01741
1841.22096	0.01722
1839.93519	0.01710
1838.64942	0.01716
1837.36365	0.01734
1836.07788	0.01750
1834.79212	0.01754
1833.50635	0.01747
1832.22058	0.01737
1830.93481	0.01736
1829.64904	0.01749
1828.36327	0.01774
1827.07750	0.01804
1825.79173	0.01844
1824.50597	0.01901
1823.22020	0.01975
1821.93443	0.02046
1820.64866	0.02087
1819.36289	0.02076
1818.07712	0.02005
1816.79135	0.01888
1815.50558	0.01756
1814.21981	0.01641
1812.93405	0.01562
1811.64828	0.01523
1810.36251	0.01516
1809.07674	0.01527
1807.79097	0.01540
1806.50520	0.01554
1805.21943	0.01573
1803.93366	0.01603
1802.64790	0.01638
1801.36213	0.01667
1800.07636	0.01682
1798.79059	0.01686
1797.50482	0.01685
1796.21905	0.01684
1794.93328	0.01682
1793.64751	0.01681
1792.36174	0.01687
1791.07598	0.01701
1789.79021	0.01718
1788.50444	0.01728
1787.21867	0.01730
1785.93290	0.01729
1784.64713	0.01729
1783.36136	0.01733
1782.07559	0.01742
1780.78983	0.01752
1779.50406	0.01758
1778.21829	0.01755
1776.93252	0.01737
1775.64675	0.01707
1774.36098	0.01669
1773.07521	0.01635
1771.78944	0.01612
1770.50367	0.01603
1769.21791	0.01600
1767.93214	0.01599
1766.64637	0.01599
1765.36060	0.01599
1764.07483	0.01598
1762.78906	0.01595
1761.50329	0.01592
1760.21752	0.01588
1758.93176	0.01587
1757.64599	0.01589
1756.36022	0.01596
1755.07445	0.01603
1753.78868	0.01603
1752.50291	0.01598
1751.21714	0.01599
1749.93137	0.01611
1748.64560	0.01630
1747.35984	0.01649
1746.07407	0.01667
1744.78830	0.01685
1743.50253	0.01701
1742.21676	0.01717
1740.93099	0.01733
1739.64522	0.01753
1738.35945	0.01774
1737.07369	0.01790
1735.78792	0.01799
1734.50215	0.01812
1733.21638	0.01836
1731.93061	0.01861
1730.64484	0.01876
1729.35907	0.01883
1728.07330	0.01897
1726.78753	0.01921
1725.50177	0.01950
1724.21600	0.01976
1722.93023	0.02001
1721.64446	0.02027
1720.35869	0.02052
1719.07292	0.02077
1717.78715	0.02109
1716.50138	0.02148
1715.21561	0.02191
1713.92985	0.02234
1712.64408	0.02280
1711.35831	0.02339
1710.07254	0.02415
1708.78677	0.02508
1707.50100	0.02612
1706.21523	0.02719
1704.92946	0.02830
1703.64370	0.02944
1702.35793	0.03058
1701.07216	0.03180
1699.78639	0.03322
1698.50062	0.03478
1697.21485	0.03632
1695.92908	0.03787
1694.64331	0.03956
1693.35754	0.04132
1692.07178	0.04300
1690.78601	0.04459
1689.50024	0.04619
1688.21447	0.04782
1686.92870	0.04943
1685.64293	0.05102
1684.35716	0.05269
1683.07139	0.05445
1681.78563	0.05623
1680.49986	0.05801
1679.21409	0.05991
1677.92832	0.06193
1676.64255	0.06400
1675.35678	0.06608
1674.07101	0.06817
1672.78524	0.07024
1671.49947	0.07228
1670.21371	0.07431
1668.92794	0.07636
1667.64217	0.07842
1666.35640	0.08045
1665.07063	0.08244
1663.78486	0.08442
1662.49909	0.08639
1661.21332	0.08830
1659.92756	0.09006
1658.64179	0.09167
1657.35602	0.09316
1656.07025	0.09454
1654.78448	0.09579
1653.49871	0.09701
1652.21294	0.09828
1650.92717	0.09953
1649.64140	0.10061
1648.35564	0.10150
1647.06987	0.10231
1645.78410	0.10308
1644.49833	0.10378
1643.21256	0.10437
1641.92679	0.10493
1640.64102	0.10548
1639.35525	0.10602
1638.06949	0.10643
1636.78372	0.10671
1635.49795	0.10694
1634.21218	0.10718
1632.92641	0.10735
1631.64064	0.10734
1630.35487	0.10710
1629.06910	0.10664
1627.78333	0.10600
1626.49757	0.10518
1625.21180	0.10417
1623.92603	0.10298
1622.64026	0.10164
1621.35449	0.10016
1620.06872	0.09852
1618.78295	0.09670
1617.49718	0.09478
1616.21142	0.09286
1614.92565	0.09097
1613.63988	0.08906
1612.35411	0.08708
1611.06834	0.08508
1609.78257	0.08310
1608.49680	0.08115
1607.21103	0.07925
1605.92526	0.07743
1604.63950	0.07570
1603.35373	0.07407
1602.06796	0.07253
1600.78219	0.07106
1599.49642	0.06969
1598.21065	0.06841
1596.92488	0.06722
1595.63911	0.06609
1594.35335	0.06504
1593.06758	0.06409
1591.78181	0.06328
1590.49604	0.06261
1589.21027	0.06207
1587.92450	0.06164
1586.63873	0.06132
1585.35296	0.06108
1584.06719	0.06090
1582.78143	0.06078
1581.49566	0.06073
1580.20989	0.06076
1578.92412	0.06088
1577.63835	0.06108
1576.35258	0.06144
1575.06681	0.06201
1573.78104	0.06273
1572.49528	0.06348
1571.20951	0.06426
1569.92374	0.06515
1568.63797	0.06614
1567.35220	0.06717
1566.06643	0.06820
1564.78066	0.06926
1563.49489	0.07039
1562.20912	0.07153
1560.92336	0.07265
1559.63759	0.07383
1558.35182	0.07513
1557.06605	0.07651
1555.78028	0.07780
1554.49451	0.07893
1553.20874	0.07999
1551.92297	0.08102
1550.63721	0.08203
1549.35144	0.08302
1548.06567	0.08397
1546.77990	0.08485
1545.49413	0.08566
1544.20836	0.08643
1542.92259	0.08712
1541.63682	0.08771
1540.35105	0.08823
1539.06529	0.08873
1537.77952	0.08921
1536.49375	0.08961
1535.20798	0.08990
1533.92221	0.09016
1532.63644	0.09041
1531.35067	0.09062
1530.06490	0.09074
1528.77914	0.09077
1527.49337	0.09078
1526.20760	0.09079
1524.92183	0.09079
1523.63606	0.09072
1522.35029	0.09059
1521.06452	0.09046
1519.77875	0.09038
1518.49298	0.09027
1517.20722	0.09008
1515.92145	0.08981
1514.63568	0.08946
1513.34991	0.08898
1512.06414	0.08835
1510.77837	0.08753
1509.49260	0.08651
1508.20683	0.08529
1506.92107	0.08402
1505.63530	0.08285
1504.34953	0.08176
1503.06376	0.08058
1501.77799	0.07925
1500.49222	0.07781
1499.20645	0.07633
1497.92068	0.07483
1496.63491	0.07332
1495.34915	0.07183
1494.06338	0.07038
1492.77761	0.06894
1491.49184	0.06753
1490.20607	0.06617
1488.92030	0.06484
1487.63453	0.06353
1486.34876	0.06226
1485.06299	0.06109
1483.77723	0.06004
1482.49146	0.05915
1481.20569	0.05844
1479.91992	0.05792
1478.63415	0.05758
1477.34838	0.05738
1476.06261	0.05730
1474.77684	0.05732
1473.49108	0.05744
1472.20531	0.05767
1470.91954	0.05805
1469.63377	0.05853
1468.34800	0.05906
1467.06223	0.05961
1465.77646	0.06015
1464.49069	0.06072
1463.20492	0.06135
1461.91916	0.06204
1460.63339	0.06277
1459.34762	0.06352
1458.06185	0.06429
1456.77608	0.06510
1455.49031	0.06593
1454.20454	0.06665
1452.91877	0.06714
1451.63301	0.06744
1450.34724	0.06761
1449.06147	0.06767
1447.77570	0.06767
1446.48993	0.06761
1445.20416	0.06748
1443.91839	0.06726
1442.63262	0.06695
1441.34685	0.06654
1440.06109	0.06603
1438.77532	0.06544
1437.48955	0.06481
1436.20378	0.06423
1434.91801	0.06368
1433.63224	0.06309
1432.34647	0.06245
1431.06070	0.06181
1429.77494	0.06123
1428.48917	0.06074
1427.20340	0.06031
1425.91763	0.05994
1424.63186	0.05964
1423.34609	0.05942
1422.06032	0.05929
1420.77455	0.05922
1419.48878	0.05921
1418.20302	0.05925
1416.91725	0.05929
1415.63148	0.05931
1414.34571	0.05933
1413.05994	0.05936
1411.77417	0.05941
1410.48840	0.05948
1409.20263	0.05954
1407.91687	0.05956
1406.63110	0.05955
1405.34533	0.05954
1404.05956	0.05957
1402.77379	0.05962
1401.48802	0.05968
1400.20225	0.05971
1398.91648	0.05972
1397.63071	0.05971
1396.34495	0.05969
1395.05918	0.05967
1393.77341	0.05964
1392.48764	0.05960
1391.20187	0.05953
1389.91610	0.05944
1388.63033	0.05935
1387.34456	0.05925
1386.05880	0.05917
1384.77303	0.05909
1383.48726	0.05900
1382.20149	0.05888
1380.91572	0.05874
1379.62995	0.05855
1378.34418	0.05829
1377.05841	0.05796
1375.77264	0.05757
1374.48688	0.05714
1373.20111	0.05671
1371.91534	0.05629
1370.62957	0.05590
1369.34380	0.05550
1368.05803	0.05506
1366.77226	0.05459
1365.48649	0.05408
1364.20073	0.05358
1362.91496	0.05310
1361.62919	0.05265
1360.34342	0.05225
1359.05765	0.05190
1357.77188	0.05160
1356.48611	0.05135
1355.20034	0.05114
1353.91457	0.05098
1352.62881	0.05088
1351.34304	0.05085
1350.05727	0.05088
1348.77150	0.05098
1347.48573	0.05112
1346.19996	0.05130
1344.91419	0.05150
1343.62842	0.05172
1342.34266	0.05196
1341.05689	0.05219
1339.77112	0.05241
1338.48535	0.05258
1337.19958	0.05269
1335.91381	0.05275
1334.62804	0.05277
1333.34227	0.05275
1332.05650	0.05265
1330.77074	0.05247
1329.48497	0.05223
1328.19920	0.05196
1326.91343	0.05170
1325.62766	0.05145
1324.34189	0.05121
1323.05612	0.05098
1321.77035	0.05079
1320.48459	0.05063
1319.19882	0.05053
1317.91305	0.05050
1316.62728	0.05049
1315.34151	0.05044
1314.05574	0.05035
1312.76997	0.05022
1311.48420	0.05010
1310.19843	0.04998
1308.91267	0.04985
1307.62690	0.04971
1306.34113	0.04958
1305.05536	0.04944
1303.76959	0.04928
1302.48382	0.04912
1301.19805	0.04895
1299.91228	0.04881
1298.62652	0.04868
1297.34075	0.04859
1296.05498	0.04855
1294.76921	0.04856
1293.48344	0.04860
1292.19767	0.04864
1290.91190	0.04870
1289.62613	0.04878
1288.34036	0.04891
1287.05460	0.04909
1285.76883	0.04932
1284.48306	0.04956
1283.19729	0.04977
1281.91152	0.04993
1280.62575	0.05004
1279.33998	0.05015
1278.05421	0.05027
1276.76845	0.05040
1275.48268	0.05051
1274.19691	0.05060
1272.91114	0.05071
1271.62537	0.05082
1270.33960	0.05094
1269.05383	0.05105
1267.76806	0.05120
1266.48229	0.05143
1265.19653	0.05173
1263.91076	0.05206
1262.62499	0.05238
1261.33922	0.05266
1260.05345	0.05291
1258.76768	0.05314
1257.48191	0.05338
1256.19614	0.05365
1254.91037	0.05394
1253.62461	0.05424
1252.33884	0.05455
1251.05307	0.05490
1249.76730	0.05532
1248.48153	0.05582
1247.19576	0.05639
1245.90999	0.05699
1244.62422	0.05757
1243.33846	0.05811
1242.05269	0.05861
1240.76692	0.05907
1239.48115	0.05947
1238.19538	0.05982
1236.90961	0.06013
1235.62384	0.06042
1234.33807	0.06067
1233.05230	0.06088
1231.76654	0.06101
1230.48077	0.06105
1229.19500	0.06098
1227.90923	0.06078
1226.62346	0.06049
1225.33769	0.06010
1224.05192	0.05964
1222.76615	0.05915
1221.48039	0.05863
1220.19462	0.05811
1218.90885	0.05760
1217.62308	0.05713
1216.33731	0.05670
1215.05154	0.05631
1213.76577	0.05597
1212.48000	0.05569
1211.19423	0.05552
1209.90847	0.05544
1208.62270	0.05544
1207.33693	0.05547
1206.05116	0.05554
1204.76539	0.05560
1203.47962	0.05567
1202.19385	0.05567
1200.90808	0.05532
1199.62232	0.05449
1198.33655	0.05413
1197.05078	0.05371
1195.76501	0.05325
1194.47924	0.05281
1193.19347	0.05241
1191.90770	0.05203
1190.62193	0.05165
1189.33616	0.05129
1188.05040	0.05094
1186.76463	0.05061
1185.47886	0.05028
1184.19309	0.04996
1182.90732	0.04968
1181.62155	0.04948
1180.33578	0.04938
1179.05001	0.04935
1177.76425	0.04936
1176.47848	0.04935
1175.19271	0.04930
1173.90694	0.04920
1172.62117	0.04908
1171.33540	0.04901
1170.04963	0.04901
1168.76386	0.04909
1167.47809	0.04921
1166.19233	0.04931
1164.90656	0.04936
1163.62079	0.04936
1162.33502	0.04932
1161.04925	0.04927
1159.76348	0.04924
1158.47771	0.04925
1157.19194	0.04925
1155.90618	0.04916
1154.62041	0.04893
1153.33464	0.04860
1152.04887	0.04828
1150.76310	0.04803
1149.47733	0.04786
1148.19156	0.04770
1146.90579	0.04749
1145.62002	0.04720
1144.33426	0.04688
1143.04849	0.04658
1141.76272	0.04629
1140.47695	0.04602
1139.19118	0.04582
1137.90541	0.04571
1136.61964	0.04569
1135.33387	0.04567
1134.04811	0.04563
1132.76234	0.04560
1131.47657	0.04563
1130.19080	0.04578
1128.90503	0.04605
1127.61926	0.04638
1126.33349	0.04674
1125.04772	0.04713
1123.76195	0.04757
1122.47619	0.04806
1121.19042	0.04860
1119.90465	0.04917
1118.61888	0.04979
1117.33311	0.05045
1116.04734	0.05111
1114.76157	0.05178
1113.47580	0.05246
1112.19004	0.05314
1110.90427	0.05378
1109.61850	0.05442
1108.33273	0.05507
1107.04696	0.05574
1105.76119	0.05637
1104.47542	0.05694
1103.18965	0.05745
1101.90388	0.05793
1100.61812	0.05837
1099.33235	0.05878
1098.04658	0.05919
1096.76081	0.05956
1095.47504	0.05988
1094.18927	0.06012
1092.90350	0.06029
1091.61773	0.06045
1090.33197	0.06060
1089.04620	0.06078
1087.76043	0.06096
1086.47466	0.06116
1085.18889	0.06145
1083.90312	0.06192
1082.61735	0.06261
1081.33158	0.06343
1080.04581	0.06422
1078.76005	0.06489
1077.47428	0.06543
1076.18851	0.06589
1074.90274	0.06634
1073.61697	0.06679
1072.33120	0.06724
1071.04543	0.06765
1069.75966	0.06798
1068.47390	0.06827
1067.18813	0.06856
1065.90236	0.06889
1064.61659	0.06924
1063.33082	0.06960
1062.04505	0.06999
1060.75928	0.07042
1059.47351	0.07089
1058.18774	0.07134
1056.90198	0.07170
1055.61621	0.07197
1054.33044	0.07220
1053.04467	0.07244
1051.75890	0.07267
1050.47313	0.07289
1049.18736	0.07314
1047.90159	0.07345
1046.61583	0.07381
1045.33006	0.07418
1044.04429	0.07453
1042.75852	0.07488
1041.47275	0.07530
1040.18698	0.07582
1038.90121	0.07639
1037.61544	0.07697
1036.32967	0.07757
1035.04391	0.07824
1033.75814	0.07897
1032.47237	0.07961
1031.18660	0.08000
1029.90083	0.08003
1028.61506	0.07971
1027.32929	0.07909
1026.04352	0.07825
1024.75775	0.07724
1023.47199	0.07612
1022.18622	0.07496
1020.90045	0.07379
1019.61468	0.07258
1018.32891	0.07131
1017.04314	0.06999
1015.75737	0.06863
1014.47160	0.06725
1013.18584	0.06589
1011.90007	0.06459
1010.61430	0.06341
1009.32853	0.06237
1008.04276	0.06143
1006.75699	0.06053
1005.47122	0.05959
1004.18545	0.05864
1002.89968	0.05772
1001.61392	0.05688
1000.32815	0.05609
999.04238	0.05530
997.75661	0.05444
996.47084	0.05353
995.18507	0.05264
993.89930	0.05186
992.61353	0.05123
991.32777	0.05072
990.04200	0.05024
988.75623	0.04974
987.47046	0.04917
986.18469	0.04856
984.89892	0.04798
983.61315	0.04750
982.32738	0.04714
981.04161	0.04688
979.75585	0.04669
978.47008	0.04652
977.18431	0.04633
975.89854	0.04607
974.61277	0.04576
973.32700	0.04547
972.04123	0.04529
970.75546	0.04528
969.46970	0.04542
968.18393	0.04559
966.89816	0.04565
965.61239	0.04551
964.32662	0.04520
963.04085	0.04483
961.75508	0.04450
960.46931	0.04421
959.18354	0.04386
957.89778	0.04341
956.61201	0.04293
955.32624	0.04249
954.04047	0.04216
952.75470	0.04192
951.46893	0.04169
950.18316	0.04141
948.89739	0.04109
947.61163	0.04080
946.32586	0.04059
945.04009	0.04040
943.75432	0.04019
942.46855	0.03995
941.18278	0.03973
939.89701	0.03958
938.61124	0.03950
937.32547	0.03944
936.03971	0.03936
934.75394	0.03921
933.46817	0.03898
932.18240	0.03874
930.89663	0.03857
929.61086	0.03846
928.32509	0.03834
927.03932	0.03817
925.75356	0.03800
924.46779	0.03792
923.18202	0.03793
921.89625	0.03793
920.61048	0.03783
919.32471	0.03761
918.03894	0.03732
916.75317	0.03701
915.46740	0.03670
914.18164	0.03640
912.89587	0.03615
911.61010	0.03596
910.32433	0.03581
909.03856	0.03567
907.75279	0.03549
906.46702	0.03530
905.18125	0.03512
903.89549	0.03496
902.60972	0.03481
901.32395	0.03464
900.03818	0.03445
898.75241	0.03427
897.46664	0.03409
896.18087	0.03388
894.89510	0.03365
893.60933	0.03347
892.32357	0.03341
891.03780	0.03345
889.75203	0.03351
888.46626	0.03349
887.18049	0.03336
885.89472	0.03317
884.60895	0.03305
883.32318	0.03305
882.03742	0.03315
880.75165	0.03328
879.46588	0.03337
878.18011	0.03340
876.89434	0.03337
875.60857	0.03331
874.32280	0.03327
873.03703	0.03325
871.75126	0.03320
870.46550	0.03309
869.17973	0.03289
867.89396	0.03265
866.60819	0.03242
865.32242	0.03228
864.03665	0.03225
862.75088	0.03227
861.46511	0.03228
860.17935	0.03223
858.89358	0.03213
857.60781	0.03203
856.32204	0.03197
855.03627	0.03195
853.75050	0.03194
852.46473	0.03189
851.17896	0.03175
849.89319	0.03155
848.60743	0.03135
847.32166	0.03118
846.03589	0.03105
844.75012	0.03094
843.46435	0.03082
842.17858	0.03066
840.89281	0.03047
839.60704	0.03029
838.32128	0.03018
837.03551	0.03020
835.74974	0.03029
834.46397	0.03036
833.17820	0.03036
831.89243	0.03028
830.60666	0.03014
829.32089	0.02998
828.03512	0.02985
826.74936	0.02977
825.46359	0.02976
824.17782	0.02983
822.89205	0.02995
821.60628	0.03008
820.32051	0.03016
819.03474	0.03017
817.74897	0.03016
816.46321	0.03021
815.17744	0.03034
813.89167	0.03049
812.60590	0.03058
811.32013	0.03061
810.03436	0.03060
808.74859	0.03058
807.46282	0.03055
806.17705	0.03054
804.89129	0.03061
803.60552	0.03072
802.31975	0.03083
801.03398	0.03092
799.74821	0.03097
798.46244	0.03097
797.17667	0.03095
795.89090	0.03092
794.60513	0.03091
793.31937	0.03094
792.03360	0.03101
790.74783	0.03109
789.46206	0.03110
788.17629	0.03104
786.89052	0.03095
785.60475	0.03093
784.31898	0.03102
783.03322	0.03116
781.74745	0.03131
780.46168	0.03144
779.17591	0.03154
777.89014	0.03161
776.60437	0.03167
775.31860	0.03174
774.03283	0.03182
772.74706	0.03190
771.46130	0.03191
770.17553	0.03186
768.88976	0.03183
767.60399	0.03185
766.31822	0.03194
765.03245	0.03207
763.74668	0.03224
762.46091	0.03245
761.17515	0.03266
759.88938	0.03280
758.60361	0.03284
757.31784	0.03278
756.03207	0.03267
754.74630	0.03263
753.46053	0.03270
752.17476	0.03290
750.88899	0.03317
749.60323	0.03342
748.31746	0.03359
747.03169	0.03366
745.74592	0.03367
744.46015	0.03368
743.17438	0.03379
741.88861	0.03402
740.60284	0.03431
739.31708	0.03450
738.03131	0.03453
736.74554	0.03441
735.45977	0.03425
734.17400	0.03414
732.88823	0.03408
731.60246	0.03407
730.31669	0.03413
729.03092	0.03428
727.74516	0.03449
726.45939	0.03472
725.17362	0.03488
723.88785	0.03492
722.60208	0.03500
721.31631	0.03517
720.03054	0.03545
718.74477	0.03577
717.45901	0.03600
716.17324	0.03606
714.88747	0.03603
713.60170	0.03600
712.31593	0.03606
711.03016	0.03620
709.74439	0.03639
708.45862	0.03659
707.17285	0.03680
705.88709	0.03698
704.60132	0.03712
703.31555	0.03721
702.02978	0.03728
700.74401	0.03736
699.45824	0.03744
698.17247	0.03750
696.88670	0.03754
695.60094	0.03757
694.31517	0.03764
693.02940	0.03771
691.74363	0.03777
690.45786	0.03779
689.17209	0.03778
687.88632	0.03778
686.60055	0.03779
685.31478	0.03781
684.02902	0.03784
682.74325	0.03791
681.45748	0.03801
680.17171	0.03811
678.88594	0.03819
677.60017	0.03827
676.31440	0.03834
675.02863	0.03842
673.74287	0.03850
672.45710	0.03857
671.17133	0.03862
669.88556	0.03865
668.59979	0.03867
667.31402	0.03873
666.02825	0.03884
664.74248	0.03901
663.45671	0.03918
662.17095	0.03931
660.88518	0.03938
659.59941	0.03940
658.31364	0.03941
657.02787	0.03942
655.74210	0.03947
654.45633	0.03953
653.17056	0.03961
651.88480	0.03969
650.59903	0.03977
649.31326	0.03983
648.02749	0.03984
646.74172	0.03980
645.45595	0.03972
644.17018	0.03960
642.88441	0.03946
641.59864	0.03931
640.31288	0.03920
639.02711	0.03918
637.74134	0.03925
636.45557	0.03937
635.16980	0.03948
633.88403	0.03950
632.59826	0.03933
631.31249	0.03950
630.02673	0.04245
628.74096	0.04708
627.45519	0.04379
626.16942	0.04887
624.88365	0.05949
623.59788	0.06929
622.31211	0.07580
621.02634	0.07783
619.74057	0.07488
618.45481	0.06820
617.16904	0.06040
615.88327	0.05390
614.59750	0.04994
613.31173	0.04892
612.02596	0.05078
610.74019	0.05482
609.45442	0.05953
608.16866	0.06334
606.88289	0.06559
605.59712	0.06649
604.31135	0.06638
603.02558	0.06545
601.73981	0.06381
600.45404	0.06160
599.16827	0.05910
597.88250	0.05663
596.59674	0.05450
595.31097	0.05287
594.02520	0.05175
592.73943	0.05105
591.45366	0.05065
590.16789	0.05044
588.88212	0.05034
587.59635	0.05035
586.31059	0.05049
585.02482	0.05084
583.73905	0.05142
582.45328	0.05212
581.16751	0.05275
579.88174	0.05315
578.59597	0.05333
577.31020	0.05344
576.02443	0.05367
574.73867	0.05415
573.45290	0.05492
572.16713	0.05590
570.88136	0.05702
569.59559	0.05817
568.30982	0.05919
567.02405	0.05990
565.73828	0.06014
564.45251	0.05991
563.16675	0.05931
561.88098	0.05849
560.59521	0.05759
559.30944	0.05672
558.02367	0.05596
556.73790	0.05531
555.45213	0.05468
554.16636	0.05397
552.88060	0.05319
551.59483	0.05246
550.30906	0.05191
549.02329	0.05151
547.73752	0.05115
546.45175	0.05078
545.16598	0.05042
543.88021	0.05007
542.59444	0.04973
541.30868	0.04937
540.02291	0.04903
538.73714	0.04876
537.45137	0.04858
536.16560	0.04847
534.87983	0.04841
533.59406	0.04837
532.30829	0.04833
531.02253	0.04828
529.73676	0.04822
528.45099	0.04811
527.16522	0.04787
525.87945	0.04748
524.59368	0.04702
523.30791	0.04664
522.02214	0.04642
520.73637	0.04634
519.45061	0.04629
518.16484	0.04622
516.87907	0.04611
515.59330	0.04596
514.30753	0.04577
513.02176	0.04552
511.73599	0.04521
510.45022	0.04491
509.16446	0.04470
507.87869	0.04456
506.59292	0.04442
505.30715	0.04416
504.02138	0.04377
502.73561	0.04336
501.44984	0.04304
500.16407	0.04285
498.87830	0.04272
497.59254	0.04258
496.30677	0.04242
495.02100	0.04227
493.73523	0.04215
492.44946	0.04204
491.16369	0.04189
489.87792	0.04169
488.59215	0.04146
487.30639	0.04122
486.02062	0.04105
484.73485	0.04095
483.44908	0.04086
482.16331	0.04067
480.87754	0.04037
479.59177	0.04001
478.30600	0.03969
477.02023	0.03944
475.73447	0.03928
474.44870	0.03920
473.16293	0.03918
471.87716	0.03921
470.59139	0.03924
469.30562	0.03923
468.01985	0.03916
466.73408	0.03905
465.44832	0.03892
464.16255	0.03876
462.87678	0.03857
461.59101	0.03835
460.30524	0.03811
459.01947	0.03785
457.73370	0.03760
456.44793	0.03735
455.16216	0.03710
453.87640	0.03685
452.59063	0.03656
451.30486	0.03626
450.01909	0.03597
448.73332	0.03574
447.44755	0.03561
446.16178	0.03555
444.87601	0.03549
443.59025	0.03536
442.30448	0.03517
441.01871	0.03496
439.73294	0.03476
438.44717	0.03461
437.16140	0.03450
435.87563	0.03445
434.58986	0.03443
433.30409	0.03441
432.01833	0.03433
430.73256	0.03417
429.44679	0.03398
428.16102	0.03380
426.87525	0.03365
425.58948	0.03354
424.30371	0.03342
423.01794	0.03328
421.73218	0.03312
420.44641	0.03296
419.16064	0.03283
417.87487	0.03271
416.58910	0.03257
415.30333	0.03241
414.01756	0.03224
412.73179	0.03212
411.44602	0.03204
410.16026	0.03196
408.87449	0.03186
407.58872	0.03174
406.30295	0.03160
405.01718	0.03145
403.73141	0.03129
402.44564	0.03113
401.15987	0.03101
399.87411	0.03093
