3997.45528	0.02103
3996.16951	0.02020
3994.88374	0.01982
3993.59798	0.02006
3992.31221	0.02071
3991.02644	0.02139
3989.74067	0.02188
3988.45490	0.02216
3987.16913	0.02231
3985.88336	0.02239
3984.59759	0.02232
3983.31183	0.02200
3982.02606	0.02147
3980.74029	0.02106
3979.45452	0.02103
3978.16875	0.02137
3976.88298	0.02183
3975.59721	0.02219
3974.31144	0.02237
3973.02567	0.02239
3971.73991	0.02233
3970.45414	0.02226
3969.16837	0.02215
3967.88260	0.02188
3966.59683	0.02142
3965.31106	0.02088
3964.02529	0.02040
3962.73952	0.02009
3961.45376	0.02002
3960.16799	0.02016
3958.88222	0.02045
3957.59645	0.02067
3956.31068	0.02063
3955.02491	0.02028
3953.73914	0.01987
3952.45337	0.01973
3951.16760	0.01997
3949.88184	0.02036
3948.59607	0.02060
3947.31030	0.02057
3946.02453	0.02038
3944.73876	0.02021
3943.45299	0.02028
3942.16722	0.02061
3940.88145	0.02101
3939.59569	0.02126
3938.30992	0.02125
3937.02415	0.02106
3935.73838	0.02079
3934.45261	0.02050
3933.16684	0.02024
3931.88107	0.02006
3930.59530	0.01999
3929.30953	0.02009
3928.02377	0.02041
3926.73800	0.02089
3925.45223	0.02134
3924.16646	0.02157
3922.88069	0.02157
3921.59492	0.02148
3920.30915	0.02145
3919.02338	0.02145
3917.73762	0.02136
3916.45185	0.02109
3915.16608	0.02076
3913.88031	0.02056
3912.59454	0.02048
3911.30877	0.02044
3910.02300	0.02038
3908.73723	0.02040
3907.45146	0.02064
3906.16570	0.02111
3904.87993	0.02168
3903.59416	0.02200
3902.30839	0.02170
3901.02262	0.02071
3899.73685	0.01949
3898.45108	0.01870
3897.16531	0.01858
3895.87955	0.01883
3894.59378	0.01902
3893.30801	0.01917
3892.02224	0.01954
3890.73647	0.02015
3889.45070	0.02061
3888.16493	0.02054
3886.87916	0.01999
3885.59339	0.01935
3884.30763	0.01899
3883.02186	0.01901
3881.73609	0.01926
3880.45032	0.01955
3879.16455	0.01977
3877.87878	0.01987
3876.59301	0.01994
3875.30724	0.02012
3874.02148	0.02047
3872.73571	0.02088
3871.44994	0.02108
3870.16417	0.02093
3868.87840	0.02055
3867.59263	0.02028
3866.30686	0.02035
3865.02109	0.02070
3863.73532	0.02116
3862.44956	0.02159
3861.16379	0.02189
3859.87802	0.02199
3858.59225	0.02182
3857.30648	0.02144
3856.02071	0.02091
3854.73494	0.02026
3853.44917	0.01956
3852.16341	0.01902
3850.87764	0.01887
3849.59187	0.01914
3848.30610	0.01960
3847.02033	0.02005
3845.73456	0.02038
3844.44879	0.02057
3843.16302	0.02063
3841.87725	0.02049
3840.59149	0.02015
3839.30572	0.01971
3838.01995	0.01937
3836.73418	0.01932
3835.44841	0.01952
3834.16264	0.01974
3832.87687	0.01975
3831.59110	0.01952
3830.30534	0.01927
3829.01957	0.01926
3827.73380	0.01958
3826.44803	0.02011
3825.16226	0.02053
3823.87649	0.02054
3822.59072	0.02006
3821.30495	0.01931
3820.01918	0.01871
3818.73342	0.01862
3817.44765	0.01912
3816.16188	0.01994
3814.87611	0.02070
3813.59034	0.02105
3812.30457	0.02093
3811.01880	0.02048
3809.73303	0.01987
3808.44726	0.01924
3807.16150	0.01880
3805.87573	0.01877
3804.58996	0.01924
3803.30419	0.02000
3802.01842	0.02062
3800.73265	0.02080
3799.44688	0.02058
3798.16111	0.02026
3796.87535	0.02016
3795.58958	0.02033
3794.30381	0.02044
3793.01804	0.02012
3791.73227	0.01936
3790.44650	0.01852
3789.16073	0.01800
3787.87496	0.01793
3786.58919	0.01808
3785.30343	0.01809
3784.01766	0.01780
3782.73189	0.01738
3781.44612	0.01725
3780.16035	0.01764
3778.87458	0.01827
3777.58881	0.01866
3776.30304	0.01858
3775.01728	0.01825
3773.73151	0.01806
3772.44574	0.01814
3771.15997	0.01830
3769.87420	0.01830
3768.58843	0.01813
3767.30266	0.01809
3766.01689	0.01843
3764.73112	0.01908
3763.44536	0.01967
3762.15959	0.01990
3760.87382	0.01978
3759.58805	0.01952
3758.30228	0.01932
3757.01651	0.01925
3755.73074	0.01932
3754.44497	0.01955
3753.15921	0.01991
3751.87344	0.02024
3750.58767	0.02033
3749.30190	0.02010
3748.01613	0.01970
3746.73036	0.01939
3745.44459	0.01930
3744.15882	0.01935
3742.87305	0.01939
3741.58729	0.01929
3740.30152	0.01904
3739.01575	0.01869
3737.72998	0.01834
3736.44421	0.01812
3735.15844	0.01813
3733.87267	0.01845
3732.58690	0.01902
3731.30114	0.01958
3730.01537	0.01985
3728.72960	0.01970
3727.44383	0.01932
3726.15806	0.01897
3724.87229	0.01878
3723.58652	0.01864
3722.30075	0.01843
3721.01498	0.01820
3719.72922	0.01813
3718.44345	0.01830
3717.15768	0.01859
3715.87191	0.01878
3714.58614	0.01877
3713.30037	0.01864
3712.01460	0.01857
3710.72883	0.01863
3709.44307	0.01877
3708.15730	0.01887
3706.87153	0.01875
3705.58576	0.01833
3704.29999	0.01775
3703.01422	0.01736
3701.72845	0.01742
3700.44268	0.01786
3699.15691	0.01831
3697.87115	0.01842
3696.58538	0.01813
3695.29961	0.01764
3694.01384	0.01727
3692.72807	0.01724
3691.44230	0.01759
3690.15653	0.01811
3688.87076	0.01843
3687.58500	0.01827
3686.29923	0.01785
3685.01346	0.01764
3683.72769	0.01796
3682.44192	0.01861
3681.15615	0.01917
3679.87038	0.01941
3678.58461	0.01938
3677.29884	0.01913
3676.01308	0.01865
3674.72731	0.01811
3673.44154	0.01789
3672.15577	0.01824
3670.87000	0.01899
3669.58423	0.01966
3668.29846	0.01983
3667.01269	0.01941
3665.72693	0.01866
3664.44116	0.01797
3663.15539	0.01762
3661.86962	0.01759
3660.58385	0.01774
3659.29808	0.01801
3658.01231	0.01836
3656.72654	0.01872
3655.44077	0.01894
3654.15501	0.01887
3652.86924	0.01850
3651.58347	0.01789
3650.29770	0.01724
3649.01193	0.01681
3647.72616	0.01681
3646.44039	0.01722
3645.15462	0.01786
3643.86886	0.01843
3642.58309	0.01883
3641.29732	0.01911
3640.01155	0.01940
3638.72578	0.01969
3637.44001	0.01987
3636.15424	0.01999
3634.86847	0.02028
3633.58270	0.02093
3632.29694	0.02182
3631.01117	0.02253
3629.72540	0.02271
3628.43963	0.02228
3627.15386	0.02151
3625.86809	0.02085
3624.58232	0.02069
3623.29655	0.02104
3622.01079	0.02154
3620.72502	0.02181
3619.43925	0.02177
3618.15348	0.02151
3616.86771	0.02113
3615.58194	0.02066
3614.29617	0.02025
3613.01040	0.02003
3611.72463	0.02003
3610.43887	0.02023
3609.15310	0.02058
3607.86733	0.02102
3606.58156	0.02145
3605.29579	0.02186
3604.01002	0.02221
3602.72425	0.02237
3601.43848	0.02225
3600.15272	0.02190
3598.86695	0.02156
3597.58118	0.02139
3596.29541	0.02136
3595.00964	0.02137
3593.72387	0.02134
3592.43810	0.02127
3591.15233	0.02123
3589.86656	0.02130
3588.58080	0.02153
3587.29503	0.02198
3586.00926	0.02267
3584.72349	0.02349
3583.43772	0.02414
3582.15195	0.02441
3580.86618	0.02434
3579.58041	0.02413
3578.29464	0.02400
3577.00888	0.02400
3575.72311	0.02412
3574.43734	0.02435
3573.15157	0.02471
3571.86580	0.02515
3570.58003	0.02558
3569.29426	0.02587
3568.00849	0.02602
3566.72273	0.02611
3565.43696	0.02623
3564.15119	0.02636
3562.86542	0.02642
3561.57965	0.02632
3560.29388	0.02610
3559.00811	0.02587
3557.72234	0.02573
3556.43657	0.02571
3555.15081	0.02582
3553.86504	0.02599
3552.57927	0.02611
3551.29350	0.02610
3550.00773	0.02604
3548.72196	0.02604
3547.43619	0.02616
3546.15042	0.02638
3544.86466	0.02663
3543.57889	0.02684
3542.29312	0.02694
3541.00735	0.02695
3539.72158	0.02699
3538.43581	0.02707
3537.15004	0.02715
3535.86427	0.02727
3534.57850	0.02756
3533.29274	0.02809
3532.00697	0.02869
3530.72120	0.02907
3529.43543	0.02913
3528.14966	0.02899
3526.86389	0.02881
3525.57812	0.02873
3524.29235	0.02877
3523.00659	0.02887
3521.72082	0.02896
3520.43505	0.02906
3519.14928	0.02923
3517.86351	0.02953
3516.57774	0.02987
3515.29197	0.03014
3514.00620	0.03032
3512.72043	0.03054
3511.43467	0.03099
3510.14890	0.03165
3508.86313	0.03226
3507.57736	0.03250
3506.29159	0.03230
3505.00582	0.03189
3503.72005	0.03159
3502.43428	0.03155
3501.14852	0.03166
3499.86275	0.03182
3498.57698	0.03200
3497.29121	0.03230
3496.00544	0.03277
3494.71967	0.03333
3493.43390	0.03379
3492.14813	0.03394
3490.86236	0.03375
3489.57660	0.03340
3488.29083	0.03317
3487.00506	0.03328
3485.71929	0.03371
3484.43352	0.03420
3483.14775	0.03446
3481.86198	0.03445
3480.57621	0.03425
3479.29045	0.03400
3478.00468	0.03375
3476.71891	0.03360
3475.43314	0.03364
3474.14737	0.03390
3472.86160	0.03425
3471.57583	0.03453
3470.29006	0.03469
3469.00429	0.03482
3467.71853	0.03497
3466.43276	0.03509
3465.14699	0.03500
3463.86122	0.03468
3462.57545	0.03437
3461.28968	0.03437
3460.00391	0.03470
3458.71814	0.03511
3457.43238	0.03527
3456.14661	0.03514
3454.86084	0.03485
3453.57507	0.03454
3452.28930	0.03424
3451.00353	0.03406
3449.71776	0.03416
3448.43199	0.03459
3447.14622	0.03518
3445.86046	0.03562
3444.57469	0.03586
3443.28892	0.03603
3442.00315	0.03629
3440.71738	0.03662
3439.43161	0.03687
3438.14584	0.03689
3436.86007	0.03660
3435.57431	0.03617
3434.28854	0.03588
3433.00277	0.03590
3431.71700	0.03613
3430.43123	0.03640
3429.14546	0.03670
3427.85969	0.03715
3426.57392	0.03778
3425.28815	0.03841
3424.00239	0.03880
3422.71662	0.03886
3421.43085	0.03869
3420.14508	0.03849
3418.85931	0.03839
3417.57354	0.03844
3416.28777	0.03862
3415.00200	0.03888
3413.71624	0.03917
3412.43047	0.03948
3411.14470	0.03981
3409.85893	0.04008
3408.57316	0.04019
3407.28739	0.04014
3406.00162	0.04008
3404.71585	0.04021
3403.43008	0.04058
3402.14432	0.04104
3400.85855	0.04137
3399.57278	0.04145
3398.28701	0.04137
3397.00124	0.04124
3395.71547	0.04113
3394.42970	0.04098
3393.14393	0.04081
3391.85817	0.04075
3390.57240	0.04098
3389.28663	0.04151
3388.00086	0.04218
3386.71509	0.04273
3385.42932	0.04295
3384.14355	0.04281
3382.85778	0.04250
3381.57201	0.04232
3380.28625	0.04244
3379.00048	0.04277
3377.71471	0.04307
3376.42894	0.04317
3375.14317	0.04317
3373.85740	0.04318
3372.57163	0.04327
3371.28586	0.04342
3370.00010	0.04363
3368.71433	0.04389
3367.42856	0.04414
3366.14279	0.04428
3364.85702	0.04439
3363.57125	0.04457
3362.28548	0.04480
3360.99971	0.04491
3359.71394	0.04486
3358.42818	0.04489
3357.14241	0.04520
3355.85664	0.04567
3354.57087	0.04600
3353.28510	0.04608
3351.99933	0.04607
3350.71356	0.04617
3349.42779	0.04640
3348.14202	0.04670
3346.85626	0.04707
3345.57049	0.04751
3344.28472	0.04789
3342.99895	0.04802
3341.71318	0.04789
3340.42741	0.04768
3339.14164	0.04766
3337.85587	0.04795
3336.57011	0.04856
3335.28434	0.04935
3333.99857	0.05009
3332.71280	0.05058
3331.42703	0.05070
3330.14126	0.05055
3328.85549	0.05030
3327.56972	0.05007
3326.28395	0.04988
3324.99819	0.04975
3323.71242	0.04972
3322.42665	0.04983
3321.14088	0.05007
3319.85511	0.05039
3318.56934	0.05073
3317.28357	0.05096
3315.99780	0.05101
3314.71204	0.05092
3313.42627	0.05089
3312.14050	0.05104
3310.85473	0.05130
3309.56896	0.05154
3308.28319	0.05170
3306.99742	0.05184
3305.71165	0.05205
3304.42588	0.05232
3303.14012	0.05264
3301.85435	0.05299
3300.56858	0.05333
3299.28281	0.05357
3297.99704	0.05356
3296.71127	0.05331
3295.42550	0.05298
3294.13973	0.05280
3292.85397	0.05284
3291.56820	0.05299
3290.28243	0.05313
3288.99666	0.05332
3287.71089	0.05360
3286.42512	0.05386
3285.13935	0.05391
3283.85358	0.05365
3282.56781	0.05327
3281.28205	0.05306
3279.99628	0.05322
3278.71051	0.05367
3277.42474	0.05421
3276.13897	0.05457
3274.85320	0.05460
3273.56743	0.05434
3272.28166	0.05388
3270.99590	0.05333
3269.71013	0.05278
3268.42436	0.05228
3267.13859	0.05189
3265.85282	0.05161
3264.56705	0.05142
3263.28128	0.05136
3261.99551	0.05140
3260.70974	0.05141
3259.42398	0.05128
3258.13821	0.05106
3256.85244	0.05087
3255.56667	0.05079
3254.28090	0.05079
3252.99513	0.05088
3251.70936	0.05113
3250.42359	0.05153
3249.13783	0.05186
3247.85206	0.05189
3246.56629	0.05158
3245.28052	0.05115
3243.99475	0.05079
3242.70898	0.05051
3241.42321	0.05028
3240.13744	0.05009
3238.85167	0.04994
3237.56591	0.04980
3236.28014	0.04961
3234.99437	0.04937
3233.70860	0.04913
3232.42283	0.04889
3231.13706	0.04865
3229.85129	0.04846
3228.56552	0.04833
3227.27976	0.04825
3225.99399	0.04816
3224.70822	0.04798
3223.42245	0.04775
3222.13668	0.04762
3220.85091	0.04776
3219.56514	0.04818
3218.27937	0.04863
3216.99360	0.04883
3215.70784	0.04877
3214.42207	0.04867
3213.13630	0.04862
3211.85053	0.04850
3210.56476	0.04815
3209.27899	0.04760
3207.99322	0.04702
3206.70745	0.04652
3205.42169	0.04613
3204.13592	0.04590
3202.85015	0.04585
3201.56438	0.04594
3200.27861	0.04611
3198.99284	0.04629
3197.70707	0.04638
3196.42130	0.04625
3195.13553	0.04588
3193.84977	0.04549
3192.56400	0.04543
3191.27823	0.04577
3189.99246	0.04624
3188.70669	0.04650
3187.42092	0.04641
3186.13515	0.04607
3184.84938	0.04560
3183.56362	0.04513
3182.27785	0.04477
3180.99208	0.04464
3179.70631	0.04470
3178.42054	0.04483
3177.13477	0.04490
3175.84900	0.04482
3174.56323	0.04458
3173.27746	0.04426
3171.99170	0.04401
3170.70593	0.04383
3169.42016	0.04356
3168.13439	0.04309
3166.84862	0.04260
3165.56285	0.04238
3164.27708	0.04249
3162.99131	0.04265
3161.70555	0.04253
3160.41978	0.04214
3159.13401	0.04176
3157.84824	0.04166
3156.56247	0.04181
3155.27670	0.04196
3153.99093	0.04188
3152.70516	0.04157
3151.41939	0.04118
3150.13363	0.04091
3148.84786	0.04083
3147.56209	0.04092
3146.27632	0.04105
3144.99055	0.04111
3143.70478	0.04104
3142.41901	0.04087
3141.13324	0.04065
3139.84748	0.04043
3138.56171	0.04025
3137.27594	0.04011
3135.99017	0.03999
3134.70440	0.03986
3133.41863	0.03980
3132.13286	0.03991
3130.84709	0.04015
3129.56132	0.04034
3128.27556	0.04029
3126.98979	0.04005
3125.70402	0.03977
3124.41825	0.03959
3123.13248	0.03955
3121.84671	0.03961
3120.56094	0.03964
3119.27517	0.03955
3117.98940	0.03935
3116.70364	0.03914
3115.41787	0.03898
3114.13210	0.03882
3112.84633	0.03856
3111.56056	0.03827
3110.27479	0.03815
3108.98902	0.03834
3107.70325	0.03880
3106.41749	0.03927
3105.13172	0.03952
3103.84595	0.03949
3102.56018	0.03933
3101.27441	0.03925
3099.98864	0.03933
3098.70287	0.03950
3097.41710	0.03967
3096.13133	0.03980
3094.84557	0.03987
3093.55980	0.03982
3092.27403	0.03966
3090.98826	0.03953
3089.70249	0.03953
3088.41672	0.03960
3087.13095	0.03955
3085.84518	0.03927
3084.55942	0.03886
3083.27365	0.03853
3081.98788	0.03839
3080.70211	0.03842
3079.41634	0.03857
3078.13057	0.03883
3076.84480	0.03917
3075.55903	0.03951
3074.27326	0.03971
3072.98750	0.03973
3071.70173	0.03967
3070.41596	0.03965
3069.13019	0.03967
3067.84442	0.03963
3066.55865	0.03948
3065.27288	0.03931
3063.98711	0.03927
3062.70135	0.03942
3061.41558	0.03967
3060.12981	0.03983
3058.84404	0.03978
3057.55827	0.03953
3056.27250	0.03926
3054.98673	0.03916
3053.70096	0.03928
3052.41519	0.03939
3051.12943	0.03931
3049.84366	0.03899
3048.55789	0.03860
3047.27212	0.03827
3045.98635	0.03799
3044.70058	0.03772
3043.41481	0.03749
3042.12904	0.03743
3040.84328	0.03756
3039.55751	0.03778
3038.27174	0.03787
3036.98597	0.03774
3035.70020	0.03745
3034.41443	0.03715
3033.12866	0.03692
3031.84289	0.03675
3030.55712	0.03656
3029.27136	0.03633
3027.98559	0.03615
3026.69982	0.03608
3025.41405	0.03608
3024.12828	0.03600
3022.84251	0.03583
3021.55674	0.03566
3020.27097	0.03555
3018.98521	0.03547
3017.69944	0.03538
3016.41367	0.03531
3015.12790	0.03530
3013.84213	0.03531
3012.55636	0.03529
3011.27059	0.03524
3009.98482	0.03521
3008.69905	0.03525
3007.41329	0.03529
3006.12752	0.03528
3004.84175	0.03521
3003.55598	0.03507
3002.27021	0.03487
3000.98444	0.03466
2999.69867	0.03451
2998.41290	0.03451
2997.12714	0.03463
2995.84137	0.03487
2994.55560	0.03519
2993.26983	0.03548
2991.98406	0.03561
2990.69829	0.03552
2989.41252	0.03526
2988.12675	0.03497
2986.84098	0.03480
2985.55522	0.03487
2984.26945	0.03515
2982.98368	0.03552
2981.69791	0.03592
2980.41214	0.03627
2979.12637	0.03647
2977.84060	0.03646
2976.55483	0.03633
2975.26907	0.03633
2973.98330	0.03652
2972.69753	0.03676
2971.41176	0.03689
2970.12599	0.03691
2968.84022	0.03697
2967.55445	0.03717
2966.26868	0.03751
2964.98291	0.03791
2963.69715	0.03827
2962.41138	0.03848
2961.12561	0.03849
2959.83984	0.03838
2958.55407	0.03831
2957.26830	0.03840
2955.98253	0.03861
2954.69676	0.03874
2953.41100	0.03865
2952.12523	0.03839
2950.83946	0.03817
2949.55369	0.03819
2948.26792	0.03843
2946.98215	0.03878
2945.69638	0.03904
2944.41061	0.03914
2943.12484	0.03909
2941.83908	0.03902
2940.55331	0.03901
2939.26754	0.03902
2937.98177	0.03902
2936.69600	0.03904
2935.41023	0.03913
2934.12446	0.03925
2932.83869	0.03935
2931.55293	0.03946
2930.26716	0.03969
2928.98139	0.03998
2927.69562	0.04014
2926.40985	0.04006
2925.12408	0.03980
2923.83831	0.03951
2922.55254	0.03937
2921.26677	0.03939
2919.98101	0.03949
2918.69524	0.03952
2917.40947	0.03936
2916.12370	0.03901
2914.83793	0.03856
2913.55216	0.03811
2912.26639	0.03770
2910.98062	0.03732
2909.69486	0.03692
2908.40909	0.03653
2907.12332	0.03623
2905.83755	0.03607
2904.55178	0.03603
2903.26601	0.03606
2901.98024	0.03612
2900.69447	0.03618
2899.40870	0.03620
2898.12294	0.03612
2896.83717	0.03593
2895.55140	0.03566
2894.26563	0.03533
2892.97986	0.03496
2891.69409	0.03461
2890.40832	0.03439
2889.12255	0.03441
2887.83678	0.03466
2886.55102	0.03500
2885.26525	0.03531
2883.97948	0.03545
2882.69371	0.03540
2881.40794	0.03519
2880.12217	0.03493
2878.83640	0.03474
2877.55063	0.03470
2876.26487	0.03476
2874.97910	0.03482
2873.69333	0.03482
2872.40756	0.03474
2871.12179	0.03462
2869.83602	0.03454
2868.55025	0.03456
2867.26448	0.03459
2865.97871	0.03457
2864.69295	0.03452
2863.40718	0.03459
2862.12141	0.03472
2860.83564	0.03475
2859.54987	0.03452
2858.26410	0.03413
2856.97833	0.03377
2855.69256	0.03359
2854.40680	0.03358
2853.12103	0.03359
2851.83526	0.03348
2850.54949	0.03321
2849.26372	0.03292
2847.97795	0.03273
2846.69218	0.03261
2845.40641	0.03241
2844.12064	0.03209
2842.83488	0.03174
2841.54911	0.03150
2840.26334	0.03138
2838.97757	0.03129
2837.69180	0.03114
2836.40603	0.03098
2835.12026	0.03091
2833.83449	0.03092
2832.54873	0.03086
2831.26296	0.03061
2829.97719	0.03026
2828.69142	0.03003
2827.40565	0.02999
2826.11988	0.03002
2824.83411	0.02994
2823.54834	0.02974
2822.26257	0.02959
2820.97681	0.02961
2819.69104	0.02976
2818.40527	0.02985
2817.11950	0.02974
2815.83373	0.02944
2814.54796	0.02909
2813.26219	0.02887
2811.97642	0.02884
2810.69066	0.02897
2809.40489	0.02914
2808.11912	0.02925
2806.83335	0.02927
2805.54758	0.02923
2804.26181	0.02914
2802.97604	0.02899
2801.69027	0.02882
2800.40450	0.02868
2799.11874	0.02858
2797.83297	0.02844
2796.54720	0.02823
2795.26143	0.02799
2793.97566	0.02791
2792.68989	0.02809
2791.40412	0.02847
2790.11835	0.02877
2788.83259	0.02879
2787.54682	0.02858
2786.26105	0.02836
2784.97528	0.02835
2783.68951	0.02856
2782.40374	0.02880
2781.11797	0.02887
2779.83220	0.02870
2778.54643	0.02839
2777.26067	0.02811
2775.97490	0.02793
2774.68913	0.02786
2773.40336	0.02788
2772.11759	0.02796
2770.83182	0.02803
2769.54605	0.02801
2768.26028	0.02785
2766.97452	0.02768
2765.68875	0.02758
2764.40298	0.02752
2763.11721	0.02740
2761.83144	0.02715
2760.54567	0.02687
2759.25990	0.02667
2757.97413	0.02660
2756.68836	0.02660
2755.40260	0.02667
2754.11683	0.02683
2752.83106	0.02709
2751.54529	0.02734
2750.25952	0.02745
2748.97375	0.02735
2747.68798	0.02714
2746.40221	0.02694
2745.11645	0.02679
2743.83068	0.02662
2742.54491	0.02638
2741.25914	0.02612
2739.97337	0.02591
2738.68760	0.02580
2737.40183	0.02575
2736.11606	0.02574
2734.83029	0.02575
2733.54453	0.02577
2732.25876	0.02580
2730.97299	0.02583
2729.68722	0.02586
2728.40145	0.02584
2727.11568	0.02572
2725.82991	0.02556
2724.54414	0.02545
2723.25838	0.02548
2721.97261	0.02560
2720.68684	0.02571
2719.40107	0.02570
2718.11530	0.02559
2716.82953	0.02548
2715.54376	0.02545
2714.25799	0.02551
2712.97222	0.02559
2711.68646	0.02561
2710.40069	0.02556
2709.11492	0.02545
2707.82915	0.02535
2706.54338	0.02529
2705.25761	0.02523
2703.97184	0.02512
2702.68607	0.02498
2701.40031	0.02493
2700.11454	0.02502
2698.82877	0.02517
2697.54300	0.02526
2696.25723	0.02520
2694.97146	0.02503
2693.68569	0.02484
2692.39992	0.02465
2691.11415	0.02450
2689.82839	0.02439
2688.54262	0.02433
2687.25685	0.02431
2685.97108	0.02425
2684.68531	0.02409
2683.39954	0.02387
2682.11377	0.02368
2680.82800	0.02358
2679.54224	0.02357
2678.25647	0.02363
2676.97070	0.02370
2675.68493	0.02373
2674.39916	0.02368
2673.11339	0.02359
2671.82762	0.02354
2670.54185	0.02363
2669.25608	0.02382
2667.97032	0.02398
2666.68455	0.02399
2665.39878	0.02390
2664.11301	0.02383
2662.82724	0.02386
2661.54147	0.02394
2660.25570	0.02400
2658.96993	0.02404
2657.68417	0.02411
2656.39840	0.02417
2655.11263	0.02413
2653.82686	0.02398
2652.54109	0.02383
2651.25532	0.02377
2649.96955	0.02377
2648.68378	0.02375
2647.39801	0.02368
2646.11225	0.02363
2644.82648	0.02363
2643.54071	0.02364
2642.25494	0.02360
2640.96917	0.02350
2639.68340	0.02337
2638.39763	0.02322
2637.11186	0.02306
2635.82609	0.02292
2634.54033	0.02281
2633.25456	0.02270
2631.96879	0.02255
2630.68302	0.02231
2629.39725	0.02203
2628.11148	0.02185
2626.82571	0.02188
2625.53994	0.02210
2624.25418	0.02231
2622.96841	0.02241
2621.68264	0.02241
2620.39687	0.02236
2619.11110	0.02226
2617.82533	0.02214
2616.53956	0.02206
2615.25379	0.02201
2613.96802	0.02186
2612.68226	0.02149
2611.39649	0.02104
2610.11072	0.02077
2608.82495	0.02073
2607.53918	0.02075
2606.25341	0.02067
2604.96764	0.02051
2603.68187	0.02042
2602.39611	0.02040
2601.11034	0.02036
2599.82457	0.02028
2598.53880	0.02024
2597.25303	0.02027
2595.96726	0.02033
2594.68149	0.02037
2593.39572	0.02039
2592.10995	0.02040
2590.82419	0.02037
2589.53842	0.02030
2588.25265	0.02021
2586.96688	0.02013
2585.68111	0.02004
2584.39534	0.01995
2583.10957	0.01990
2581.82380	0.01990
2580.53804	0.01989
2579.25227	0.01979
2577.96650	0.01958
2576.68073	0.01940
2575.39496	0.01940
2574.10919	0.01949
2572.82342	0.01942
2571.53765	0.01908
2570.25188	0.01873
2568.96612	0.01872
2567.68035	0.01909
2566.39458	0.01954
2565.10881	0.01975
2563.82304	0.01973
2562.53727	0.01970
2561.25150	0.01977
2559.96573	0.01980
2558.67997	0.01967
2557.39420	0.01945
2556.10843	0.01934
2554.82266	0.01938
2553.53689	0.01942
2552.25112	0.01939
2550.96535	0.01939
2549.67958	0.01951
2548.39381	0.01965
2547.10805	0.01962
2545.82228	0.01931
2544.53651	0.01885
2543.25074	0.01852
2541.96497	0.01846
2540.67920	0.01862
2539.39343	0.01884
2538.10766	0.01902
2536.82190	0.01910
2535.53613	0.01899
2534.25036	0.01861
2532.96459	0.01810
2531.67882	0.01765
2530.39305	0.01743
2529.10728	0.01742
2527.82151	0.01752
2526.53574	0.01763
2525.24998	0.01772
2523.96421	0.01779
2522.67844	0.01777
2521.39267	0.01763
2520.10690	0.01747
2518.82113	0.01753
2517.53536	0.01788
2516.24959	0.01829
2514.96383	0.01845
2513.67806	0.01829
2512.39229	0.01800
2511.10652	0.01780
2509.82075	0.01763
2508.53498	0.01734
2507.24921	0.01691
2505.96344	0.01653
2504.67767	0.01639
2503.39191	0.01655
2502.10614	0.01697
2500.82037	0.01756
2499.53460	0.01803
2498.24883	0.01807
2496.96306	0.01770
2495.67729	0.01735
2494.39152	0.01742
2493.10576	0.01791
2491.81999	0.01846
2490.53422	0.01864
2489.24845	0.01827
2487.96268	0.01744
2486.67691	0.01649
2485.39114	0.01585
2484.10537	0.01577
2482.81960	0.01620
2481.53384	0.01683
2480.24807	0.01739
2478.96230	0.01778
2477.67653	0.01798
2476.39076	0.01810
2475.10499	0.01819
2473.81922	0.01825
2472.53345	0.01815
2471.24769	0.01776
2469.96192	0.01720
2468.67615	0.01677
2467.39038	0.01674
2466.10461	0.01706
2464.81884	0.01746
2463.53307	0.01775
2462.24730	0.01789
2460.96153	0.01795
2459.67577	0.01793
2458.39000	0.01779
2457.10423	0.01755
2455.81846	0.01729
2454.53269	0.01710
2453.24692	0.01702
2451.96115	0.01706
2450.67538	0.01718
2449.38962	0.01731
2448.10385	0.01735
2446.81808	0.01722
2445.53231	0.01692
2444.24654	0.01654
2442.96077	0.01631
2441.67500	0.01640
2440.38923	0.01673
2439.10346	0.01702
2437.81770	0.01708
2436.53193	0.01705
2435.24616	0.01706
2433.96039	0.01707
2432.67462	0.01697
2431.38885	0.01678
2430.10308	0.01661
2428.81731	0.01650
2427.53155	0.01640
2426.24578	0.01623
2424.96001	0.01600
2423.67424	0.01582
2422.38847	0.01579
2421.10270	0.01594
2419.81693	0.01613
2418.53116	0.01631
2417.24539	0.01648
2415.95963	0.01669
2414.67386	0.01684
2413.38809	0.01680
2412.10232	0.01656
2410.81655	0.01619
2409.53078	0.01580
2408.24501	0.01542
2406.95924	0.01513
2405.67347	0.01505
2404.38771	0.01530
2403.10194	0.01583
2401.81617	0.01632
2400.53040	0.01648
2399.24463	0.01629
2397.95886	0.01592
2396.67309	0.01556
2395.38732	0.01526
2394.10156	0.01505
2392.81579	0.01495
2391.53002	0.01501
2390.24425	0.01518
2388.95848	0.01537
2387.67271	0.01549
2386.38694	0.01551
2385.10117	0.01545
2383.81540	0.01534
2382.52964	0.01521
2381.24387	0.01512
2379.95810	0.01512
2378.67233	0.01524
2377.38656	0.01540
2376.10079	0.01553
2374.81502	0.01561
2373.52925	0.01564
2372.24349	0.01569
2370.95772	0.01584
2369.67195	0.01611
2368.38618	0.01640
2367.10041	0.01658
2365.81464	0.01655
2364.52887	0.01639
2363.24310	0.01624
2361.95733	0.01622
2360.67157	0.01629
2359.38580	0.01638
2358.10003	0.01638
2356.81426	0.01631
2355.52849	0.01624
2354.24272	0.01626
2352.95695	0.01632
2351.67118	0.01628
2350.38542	0.01615
2349.09965	0.01604
2347.81388	0.01606
2346.52811	0.01615
2345.24234	0.01628
2343.95657	0.01645
2342.67080	0.01659
2341.38503	0.01655
2340.09926	0.01638
2338.81350	0.01636
2337.52773	0.01650
2336.24196	0.01646
2334.95619	0.01628
2333.67042	0.01630
2332.38465	0.01643
2331.09888	0.01640
2329.81311	0.01643
2328.52735	0.01682
2327.24158	0.01728
2325.95581	0.01775
2324.67004	0.01822
2323.38427	0.01828
2322.09850	0.01796
2320.81273	0.01768
2319.52696	0.01747
2318.24119	0.01730
2316.95543	0.01715
2315.66966	0.01690
2314.38389	0.01668
2313.09812	0.01661
2311.81235	0.01657
2310.52658	0.01651
2309.24081	0.01643
2307.95504	0.01635
2306.66928	0.01632
2305.38351	0.01626
2304.09774	0.01613
2302.81197	0.01601
2301.52620	0.01593
2300.24043	0.01580
2298.95466	0.01552
2297.66889	0.01516
2296.38312	0.01491
2295.09736	0.01483
2293.81159	0.01477
2292.52582	0.01460
2291.24005	0.01441
2289.95428	0.01437
2288.66851	0.01454
2287.38274	0.01484
2286.09697	0.01514
2284.81121	0.01536
2283.52544	0.01541
2282.23967	0.01530
2280.95390	0.01513
2279.66813	0.01495
2278.38236	0.01470
2277.09659	0.01429
2275.81082	0.01376
2274.52505	0.01334
2273.23929	0.01323
2271.95352	0.01344
2270.66775	0.01378
2269.38198	0.01396
2268.09621	0.01377
2266.81044	0.01330
2265.52467	0.01282
2264.23890	0.01255
2262.95314	0.01241
2261.66737	0.01224
2260.38160	0.01206
2259.09583	0.01207
2257.81006	0.01236
2256.52429	0.01280
2255.23852	0.01319
2253.95275	0.01345
2252.66698	0.01361
2251.38122	0.01360
2250.09545	0.01322
2248.80968	0.01234
2247.52391	0.01116
2246.23814	0.01020
2244.95237	0.00988
2243.66660	0.01029
2242.38083	0.01109
2241.09507	0.01184
2239.80930	0.01217
2238.52353	0.01204
2237.23776	0.01167
2235.95199	0.01142
2234.66622	0.01145
2233.38045	0.01155
2232.09468	0.01138
2230.80891	0.01105
2229.52315	0.01097
2228.23738	0.01132
2226.95161	0.01167
2225.66584	0.01150
2224.38007	0.01081
2223.09430	0.01014
2221.80853	0.00992
2220.52276	0.00997
2219.23700	0.00979
2217.95123	0.00922
2216.66546	0.00866
2215.37969	0.00851
2214.09392	0.00862
2212.80815	0.00863
2211.52238	0.00852
2210.23661	0.00861
2208.95084	0.00913
2207.66508	0.00985
2206.37931	0.01026
2205.09354	0.00990
2203.80777	0.00885
2202.52200	0.00769
2201.23623	0.00697
2199.95046	0.00690
2198.66469	0.00739
2197.37893	0.00824
2196.09316	0.00906
2194.80739	0.00928
2193.52162	0.00873
2192.23585	0.00786
2190.95008	0.00733
2189.66431	0.00741
2188.37854	0.00785
2187.09277	0.00824
2185.80701	0.00836
2184.52124	0.00826
2183.23547	0.00815
2181.94970	0.00823
2180.66393	0.00864
2179.37816	0.00943
2178.09239	0.01027
2176.80662	0.01057
2175.52085	0.01007
2174.23509	0.00922
2172.94932	0.00868
2171.66355	0.00855
2170.37778	0.00841
2169.09201	0.00789
2167.80624	0.00703
2166.52047	0.00615
2165.23470	0.00565
2163.94894	0.00586
2162.66317	0.00671
2161.37740	0.00746
2160.09163	0.00736
2158.80586	0.00639
2157.52009	0.00531
2156.23432	0.00465
2154.94855	0.00445
2153.66278	0.00464
2152.37702	0.00515
2151.09125	0.00571
2149.80548	0.00590
2148.51971	0.00558
2147.23394	0.00503
2145.94817	0.00454
2144.66240	0.00411
2143.37663	0.00357
2142.09087	0.00306
2140.80510	0.00303
2139.51933	0.00378
2138.23356	0.00498
2136.94779	0.00597
2135.66202	0.00638
2134.37625	0.00645
2133.09048	0.00661
2131.80471	0.00710
2130.51895	0.00782
2129.23318	0.00848
2127.94741	0.00877
2126.66164	0.00868
2125.37587	0.00858
2124.09010	0.00885
2122.80433	0.00949
2121.51856	0.01015
2120.23280	0.01050
2118.94703	0.01052
2117.66126	0.01033
2116.37549	0.01004
2115.08972	0.00970
2113.80395	0.00939
2112.51818	0.00918
2111.23241	0.00905
2109.94664	0.00888
2108.66088	0.00866
2107.37511	0.00859
2106.08934	0.00892
2104.80357	0.00961
2103.51780	0.01029
2102.23203	0.01062
2100.94626	0.01063
2099.66049	0.01130
2098.37473	0.01148
2097.08896	0.01108
2095.80319	0.01038
2094.51742	0.00964
2093.23165	0.00907
2091.94588	0.00871
2090.66011	0.00843
2089.37434	0.00817
2088.08857	0.00800
2086.80281	0.00810
2085.51704	0.00850
2084.23127	0.00899
2082.94550	0.00924
2081.65973	0.00915
2080.37396	0.00898
2079.08819	0.00912
2077.80242	0.00967
2076.51666	0.01035
2075.23089	0.01075
2073.94512	0.01065
2072.65935	0.01013
2071.37358	0.00947
2070.08781	0.00889
2068.80204	0.00845
2067.51627	0.00815
2066.23050	0.00788
2064.94474	0.00753
2063.65897	0.00711
2062.37320	0.00684
2061.08743	0.00693
2059.80166	0.00722
2058.51589	0.00727
2057.23012	0.00678
2055.94435	0.00591
2054.65859	0.00508
2053.37282	0.00468
2052.08705	0.00482
2050.80128	0.00530
2049.51551	0.00572
2048.22974	0.00579
2046.94397	0.00563
2045.65820	0.00562
2044.37243	0.00579
2043.08667	0.00581
2041.80090	0.00551
2040.51513	0.00533
2039.22936	0.00585
2037.94359	0.00705
2036.65782	0.00831
2035.37205	0.00910
2034.08628	0.00933
2032.80052	0.00915
2031.51475	0.00868
2030.22898	0.00803
2028.94321	0.00736
2027.65744	0.00678
2026.37167	0.00623
2025.08590	0.00569
2023.80013	0.00530
2022.51436	0.00518
2021.22860	0.00523
2019.94283	0.00518
2018.65706	0.00487
2017.37129	0.00434
2016.08552	0.00380
2014.79975	0.00361
2013.51398	0.00416
2012.22821	0.00550
2010.94245	0.00709
2009.65668	0.00816
2008.37091	0.00843
2007.08514	0.00822
2005.79937	0.00801
2004.51360	0.00785
2003.22783	0.00748
2001.94206	0.00670
2000.65629	0.00574
1999.37053	0.00515
1998.08476	0.00539
1996.79899	0.00641
1995.51322	0.00770
1994.22745	0.00865
1992.94168	0.00897
1991.65591	0.00868
1990.37014	0.00789
1989.08438	0.00677
1987.79861	0.00567
1986.51284	0.00503
1985.22707	0.00511
1983.94130	0.00581
1982.65553	0.00679
1981.36976	0.00762
1980.08399	0.00813
1978.79822	0.00842
1977.51246	0.00853
1976.22669	0.00830
1974.94092	0.00778
1973.65515	0.00748
1972.36938	0.00783
1971.08361	0.00846
1969.79784	0.00847
1968.51207	0.00755
1967.22631	0.00645
1965.94054	0.00620
1964.65477	0.00702
1963.36900	0.00816
1962.08323	0.00874
1960.79746	0.00850
1959.51169	0.00779
1958.22592	0.00699
1956.94015	0.00628
1955.65439	0.00576
1954.36862	0.00562
1953.08285	0.00596
1951.79708	0.00656
1950.51131	0.00706
1949.22554	0.00727
1947.93977	0.00733
1946.65400	0.00740
1945.36823	0.00746
1944.08247	0.00750
1942.79670	0.00768
1941.51093	0.00815
1940.22516	0.00887
1938.93939	0.00950
1937.65362	0.00983
1936.36785	0.00983
1935.08208	0.00963
1933.79632	0.00930
1932.51055	0.00893
1931.22478	0.00859
1929.93901	0.00835
1928.65324	0.00819
1927.36747	0.00813
1926.08170	0.00825
1924.79593	0.00861
1923.51016	0.00907
1922.22440	0.00937
1920.93863	0.00935
1919.65286	0.00906
1918.36709	0.00874
1917.08132	0.00859
1915.79555	0.00865
1914.50978	0.00880
1913.22401	0.00888
1911.93825	0.00887
1910.65248	0.00884
1909.36671	0.00885
1908.08094	0.00889
1906.79517	0.00892
1905.50940	0.00899
1904.22363	0.00913
1902.93786	0.00932
1901.65209	0.00950
1900.36633	0.00964
1899.08056	0.00971
1897.79479	0.00970
1896.50902	0.00961
1895.22325	0.00950
1893.93748	0.00946
1892.65171	0.00955
1891.36594	0.00974
1890.08018	0.00990
1888.79441	0.00990
1887.50864	0.00972
1886.22287	0.00947
1884.93710	0.00928
1883.65133	0.00916
1882.36556	0.00904
1881.07979	0.00888
1879.79402	0.00874
1878.50826	0.00871
1877.22249	0.00885
1875.93672	0.00917
1874.65095	0.00956
1873.36518	0.00989
1872.07941	0.01005
1870.79364	0.00999
1869.50787	0.00976
1868.22211	0.00950
1866.93634	0.00935
1865.65057	0.00931
1864.36480	0.00932
1863.07903	0.00931
1861.79326	0.00931
1860.50749	0.00930
1859.22172	0.00929
1857.93595	0.00927
1856.65019	0.00926
1855.36442	0.00926
1854.07865	0.00922
1852.79288	0.00912
1851.50711	0.00900
1850.22134	0.00894
1848.93557	0.00895
1847.64980	0.00898
1846.36404	0.00897
1845.07827	0.00895
1843.79250	0.00896
1842.50673	0.00900
1841.22096	0.00904
1839.93519	0.00910
1838.64942	0.00920
1837.36365	0.00929
1836.07788	0.00929
1834.79212	0.00914
1833.50635	0.00888
1832.22058	0.00864
1830.93481	0.00857
1829.64904	0.00871
1828.36327	0.00896
1827.07750	0.00913
1825.79173	0.00916
1824.50597	0.00911
1823.22020	0.00910
1821.93443	0.00914
1820.64866	0.00914
1819.36289	0.00904
1818.07712	0.00887
1816.79135	0.00872
1815.50558	0.00864
1814.21981	0.00862
1812.93405	0.00863
1811.64828	0.00864
1810.36251	0.00869
1809.07674	0.00877
1807.79097	0.00882
1806.50520	0.00881
1805.21943	0.00878
1803.93366	0.00880
1802.64790	0.00894
1801.36213	0.00912
1800.07636	0.00926
1798.79059	0.00928
1797.50482	0.00923
1796.21905	0.00917
1794.93328	0.00909
1793.64751	0.00898
1792.36174	0.00887
1791.07598	0.00882
1789.79021	0.00889
1788.50444	0.00905
1787.21867	0.00920
1785.93290	0.00924
1784.64713	0.00916
1783.36136	0.00904
1782.07559	0.00896
1780.78983	0.00893
1779.50406	0.00895
1778.21829	0.00898
1776.93252	0.00904
1775.64675	0.00914
1774.36098	0.00926
1773.07521	0.00935
1771.78944	0.00933
1770.50367	0.00919
1769.21791	0.00895
1767.93214	0.00869
1766.64637	0.00851
1765.36060	0.00847
1764.07483	0.00854
1762.78906	0.00864
1761.50329	0.00871
1760.21752	0.00873
1758.93176	0.00877
1757.64599	0.00884
1756.36022	0.00892
1755.07445	0.00899
1753.78868	0.00903
1752.50291	0.00905
1751.21714	0.00906
1749.93137	0.00907
1748.64560	0.00910
1747.35984	0.00919
1746.07407	0.00936
1744.78830	0.00957
1743.50253	0.00977
1742.21676	0.00992
1740.93099	0.01007
1739.64522	0.01024
1738.35945	0.01042
1737.07369	0.01056
1735.78792	0.01066
1734.50215	0.01071
1733.21638	0.01073
1731.93061	0.01076
1730.64484	0.01077
1729.35907	0.01076
1728.07330	0.01073
1726.78753	0.01071
1725.50177	0.01076
1724.21600	0.01091
1722.93023	0.01115
1721.64446	0.01142
1720.35869	0.01169
1719.07292	0.01192
1717.78715	0.01211
1716.50138	0.01229
1715.21561	0.01248
1713.92985	0.01270
1712.64408	0.01299
1711.35831	0.01339
1710.07254	0.01390
1708.78677	0.01448
1707.50100	0.01507
1706.21523	0.01563
1704.92946	0.01621
1703.64370	0.01689
1702.35793	0.01774
1701.07216	0.01875
1699.78639	0.01981
1698.50062	0.02078
1697.21485	0.02161
1695.92908	0.02237
1694.64331	0.02313
1693.35754	0.02396
1692.07178	0.02485
1690.78601	0.02579
1689.50024	0.02676
1688.21447	0.02773
1686.92870	0.02873
1685.64293	0.02973
1684.35716	0.03070
1683.07139	0.03161
1681.78563	0.03250
1680.49986	0.03343
1679.21409	0.03444
1677.92832	0.03554
1676.64255	0.03669
1675.35678	0.03783
1674.07101	0.03896
1672.78524	0.04006
1671.49947	0.04115
1670.21371	0.04223
1668.92794	0.04330
1667.64217	0.04435
1666.35640	0.04538
1665.07063	0.04639
1663.78486	0.04743
1662.49909	0.04849
1661.21332	0.04953
1659.92756	0.05049
1658.64179	0.05133
1657.35602	0.05210
1656.07025	0.05286
1654.78448	0.05362
1653.49871	0.05429
1652.21294	0.05483
1650.92717	0.05525
1649.64140	0.05567
1648.35564	0.05617
1647.06987	0.05672
1645.78410	0.05718
1644.49833	0.05747
1643.21256	0.05761
1641.92679	0.05771
1640.64102	0.05786
1639.35525	0.05809
1638.06949	0.05835
1636.78372	0.05858
1635.49795	0.05870
1634.21218	0.05870
1632.92641	0.05860
1631.64064	0.05845
1630.35487	0.05823
1629.06910	0.05790
1627.78333	0.05744
1626.49757	0.05688
1625.21180	0.05626
1623.92603	0.05559
1622.64026	0.05482
1621.35449	0.05394
1620.06872	0.05298
1618.78295	0.05201
1617.49718	0.05106
1616.21142	0.05011
1614.92565	0.04913
1613.63988	0.04806
1612.35411	0.04692
1611.06834	0.04574
1609.78257	0.04459
1608.49680	0.04352
1607.21103	0.04255
1605.92526	0.04169
1604.63950	0.04088
1603.35373	0.04007
1602.06796	0.03927
1600.78219	0.03850
1599.49642	0.03780
1598.21065	0.03718
1596.92488	0.03662
1595.63911	0.03609
1594.35335	0.03559
1593.06758	0.03515
1591.78181	0.03481
1590.49604	0.03455
1589.21027	0.03437
1587.92450	0.03427
1586.63873	0.03420
1585.35296	0.03414
1584.06719	0.03408
1582.78143	0.03403
1581.49566	0.03400
1580.20989	0.03404
1578.92412	0.03415
1577.63835	0.03432
1576.35258	0.03453
1575.06681	0.03479
1573.78104	0.03514
1572.49528	0.03559
1571.20951	0.03614
1569.92374	0.03675
1568.63797	0.03734
1567.35220	0.03788
1566.06643	0.03839
1564.78066	0.03888
1563.49489	0.03940
1562.20912	0.03996
1560.92336	0.04060
1559.63759	0.04131
1558.35182	0.04203
1557.06605	0.04270
1555.78028	0.04329
1554.49451	0.04381
1553.20874	0.04429
1551.92297	0.04479
1550.63721	0.04533
1549.35144	0.04587
1548.06567	0.04639
1546.77990	0.04683
1545.49413	0.04723
1544.20836	0.04763
1542.92259	0.04803
1541.63682	0.04840
1540.35105	0.04865
1539.06529	0.04879
1537.77952	0.04884
1536.49375	0.04889
1535.20798	0.04897
1533.92221	0.04906
1532.63644	0.04915
1531.35067	0.04922
1530.06490	0.04926
1528.77914	0.04927
1527.49337	0.04926
1526.20760	0.04925
1524.92183	0.04925
1523.63606	0.04922
1522.35029	0.04914
1521.06452	0.04902
1519.77875	0.04888
1518.49298	0.04875
1517.20722	0.04862
1515.92145	0.04843
1514.63568	0.04817
1513.34991	0.04785
1512.06414	0.04750
1510.77837	0.04712
1509.49260	0.04669
1508.20683	0.04618
1506.92107	0.04557
1505.63530	0.04487
1504.34953	0.04413
1503.06376	0.04340
1501.77799	0.04268
1500.49222	0.04197
1499.20645	0.04124
1497.92068	0.04047
1496.63491	0.03967
1495.34915	0.03884
1494.06338	0.03802
1492.77761	0.03725
1491.49184	0.03653
1490.20607	0.03585
1488.92030	0.03517
1487.63453	0.03448
1486.34876	0.03379
1485.06299	0.03317
1483.77723	0.03265
1482.49146	0.03225
1481.20569	0.03197
1479.91992	0.03181
1478.63415	0.03173
1477.34838	0.03173
1476.06261	0.03177
1474.77684	0.03186
1473.49108	0.03200
1472.20531	0.03216
1470.91954	0.03234
1469.63377	0.03257
1468.34800	0.03287
1467.06223	0.03322
1465.77646	0.03358
1464.49069	0.03393
1463.20492	0.03428
1461.91916	0.03464
1460.63339	0.03503
1459.34762	0.03545
1458.06185	0.03586
1456.77608	0.03623
1455.49031	0.03650
1454.20454	0.03667
1452.91877	0.03676
1451.63301	0.03676
1450.34724	0.03673
1449.06147	0.03668
1447.77570	0.03664
1446.48993	0.03659
1445.20416	0.03651
1443.91839	0.03639
1442.63262	0.03622
1441.34685	0.03604
1440.06109	0.03585
1438.77532	0.03565
1437.48955	0.03543
1436.20378	0.03520
1434.91801	0.03497
1433.63224	0.03474
1432.34647	0.03453
1431.06070	0.03436
1429.77494	0.03423
1428.48917	0.03410
1427.20340	0.03395
1425.91763	0.03382
1424.63186	0.03371
1423.34609	0.03364
1422.06032	0.03359
1420.77455	0.03355
1419.48878	0.03349
1418.20302	0.03342
1416.91725	0.03333
1415.63148	0.03327
1414.34571	0.03324
1413.05994	0.03322
1411.77417	0.03321
1410.48840	0.03318
1409.20263	0.03316
1407.91687	0.03312
1406.63110	0.03305
1405.34533	0.03296
1404.05956	0.03287
1402.77379	0.03283
1401.48802	0.03283
1400.20225	0.03283
1398.91648	0.03277
1397.63071	0.03265
1396.34495	0.03250
1395.05918	0.03237
1393.77341	0.03225
1392.48764	0.03216
1391.20187	0.03208
1389.91610	0.03202
1388.63033	0.03195
1387.34456	0.03185
1386.05880	0.03171
1384.77303	0.03157
1383.48726	0.03145
1382.20149	0.03135
1380.91572	0.03122
1379.62995	0.03104
1378.34418	0.03082
1377.05841	0.03058
1375.77264	0.03033
1374.48688	0.03005
1373.20111	0.02976
1371.91534	0.02946
1370.62957	0.02916
1369.34380	0.02884
1368.05803	0.02850
1366.77226	0.02819
1365.48649	0.02789
1364.20073	0.02762
1362.91496	0.02737
1361.62919	0.02715
1360.34342	0.02697
1359.05765	0.02682
1357.77188	0.02669
1356.48611	0.02656
1355.20034	0.02644
1353.91457	0.02634
1352.62881	0.02630
1351.34304	0.02630
1350.05727	0.02631
1348.77150	0.02635
1347.48573	0.02642
1346.19996	0.02653
1344.91419	0.02667
1343.62842	0.02681
1342.34266	0.02695
1341.05689	0.02708
1339.77112	0.02717
1338.48535	0.02722
1337.19958	0.02721
1335.91381	0.02715
1334.62804	0.02707
1333.34227	0.02700
1332.05650	0.02694
1330.77074	0.02688
1329.48497	0.02681
1328.19920	0.02671
1326.91343	0.02658
1325.62766	0.02641
1324.34189	0.02622
1323.05612	0.02602
1321.77035	0.02584
1320.48459	0.02574
1319.19882	0.02569
1317.91305	0.02568
1316.62728	0.02565
1315.34151	0.02558
1314.05574	0.02548
1312.76997	0.02540
1311.48420	0.02535
1310.19843	0.02530
1308.91267	0.02523
1307.62690	0.02513
1306.34113	0.02504
1305.05536	0.02497
1303.76959	0.02493
1302.48382	0.02489
1301.19805	0.02484
1299.91228	0.02478
1298.62652	0.02473
1297.34075	0.02468
1296.05498	0.02465
1294.76921	0.02465
1293.48344	0.02467
1292.19767	0.02470
1290.91190	0.02472
1289.62613	0.02473
1288.34036	0.02478
1287.05460	0.02488
1285.76883	0.02505
1284.48306	0.02524
1283.19729	0.02540
1281.91152	0.02551
1280.62575	0.02559
1279.33998	0.02563
1278.05421	0.02565
1276.76845	0.02564
1275.48268	0.02562
1274.19691	0.02561
1272.91114	0.02564
1271.62537	0.02570
1270.33960	0.02578
1269.05383	0.02586
1267.76806	0.02594
1266.48229	0.02603
1265.19653	0.02617
1263.91076	0.02635
1262.62499	0.02655
1261.33922	0.02676
1260.05345	0.02695
1258.76768	0.02708
1257.48191	0.02720
1256.19614	0.02731
1254.91037	0.02745
1253.62461	0.02760
1252.33884	0.02776
1251.05307	0.02790
1249.76730	0.02807
1248.48153	0.02829
1247.19576	0.02859
1245.90999	0.02894
1244.62422	0.02929
1243.33846	0.02960
1242.05269	0.02985
1240.76692	0.03005
1239.48115	0.03022
1238.19538	0.03038
1236.90961	0.03056
1235.62384	0.03076
1234.33807	0.03093
1233.05230	0.03102
1231.76654	0.03102
1230.48077	0.03098
1229.19500	0.03091
1227.90923	0.03083
1226.62346	0.03068
1225.33769	0.03044
1224.05192	0.03010
1222.76615	0.02971
1221.48039	0.02934
1220.19462	0.02902
1218.90885	0.02872
1217.62308	0.02843
1216.33731	0.02815
1215.05154	0.02789
1213.76577	0.02765
1212.48000	0.02747
1211.19423	0.02737
1209.90847	0.02731
1208.62270	0.02728
1207.33693	0.02723
1206.05116	0.02719
1204.76539	0.02716
1203.47962	0.02714
1202.19385	0.02709
1200.90808	0.02694
1199.62232	0.02667
1198.33655	0.02643
1197.05078	0.02613
1195.76501	0.02579
1194.47924	0.02548
1193.19347	0.02523
1191.90770	0.02501
1190.62193	0.02480
1189.33616	0.02460
1188.05040	0.02443
1186.76463	0.02428
1185.47886	0.02412
1184.19309	0.02394
1182.90732	0.02374
1181.62155	0.02357
1180.33578	0.02349
1179.05001	0.02351
1177.76425	0.02363
1176.47848	0.02378
1175.19271	0.02387
1173.90694	0.02388
1172.62117	0.02382
1171.33540	0.02378
1170.04963	0.02382
1168.76386	0.02396
1167.47809	0.02415
1166.19233	0.02434
1164.90656	0.02449
1163.62079	0.02457
1162.33502	0.02463
1161.04925	0.02470
1159.76348	0.02482
1158.47771	0.02495
1157.19194	0.02507
1155.90618	0.02513
1154.62041	0.02515
1153.33464	0.02514
1152.04887	0.02513
1150.76310	0.02513
1149.47733	0.02515
1148.19156	0.02521
1146.90579	0.02526
1145.62002	0.02524
1144.33426	0.02515
1143.04849	0.02502
1141.76272	0.02493
1140.47695	0.02487
1139.19118	0.02482
1137.90541	0.02479
1136.61964	0.02483
1135.33387	0.02497
1134.04811	0.02524
1132.76234	0.02559
1131.47657	0.02597
1130.19080	0.02641
1128.90503	0.02698
1127.61926	0.02769
1126.33349	0.02851
1125.04772	0.02941
1123.76195	0.03039
1122.47619	0.03142
1121.19042	0.03244
1119.90465	0.03343
1118.61888	0.03440
1117.33311	0.03539
1116.04734	0.03643
1114.76157	0.03753
1113.47580	0.03867
1112.19004	0.03978
1110.90427	0.04083
1109.61850	0.04181
1108.33273	0.04277
1107.04696	0.04373
1105.76119	0.04472
1104.47542	0.04573
1103.18965	0.04673
1101.90388	0.04763
1100.61812	0.04839
1099.33235	0.04902
1098.04658	0.04957
1096.76081	0.05004
1095.47504	0.05042
1094.18927	0.05067
1092.90350	0.05077
1091.61773	0.05069
1090.33197	0.05046
1089.04620	0.05021
1087.76043	0.05007
1086.47466	0.05012
1085.18889	0.05038
1083.90312	0.05088
1082.61735	0.05160
1081.33158	0.05246
1080.04581	0.05336
1078.76005	0.05419
1077.47428	0.05499
1076.18851	0.05581
1074.90274	0.05670
1073.61697	0.05760
1072.33120	0.05843
1071.04543	0.05914
1069.75966	0.05975
1068.47390	0.06033
1067.18813	0.06097
1065.90236	0.06171
1064.61659	0.06249
1063.33082	0.06324
1062.04505	0.06397
1060.75928	0.06473
1059.47351	0.06553
1058.18774	0.06633
1056.90198	0.06709
1055.61621	0.06785
1054.33044	0.06863
1053.04467	0.06943
1051.75890	0.07021
1050.47313	0.07097
1049.18736	0.07172
1047.90159	0.07254
1046.61583	0.07346
1045.33006	0.07445
1044.04429	0.07546
1042.75852	0.07646
1041.47275	0.07746
1040.18698	0.07846
1038.90121	0.07944
1037.61544	0.08040
1036.32967	0.08137
1035.04391	0.08239
1033.75814	0.08350
1032.47237	0.08465
1031.18660	0.08569
1029.90083	0.08642
1028.61506	0.08670
1027.32929	0.08652
1026.04352	0.08597
1024.75775	0.08521
1023.47199	0.08435
1022.18622	0.08346
1020.90045	0.08248
1019.61468	0.08131
1018.32891	0.07993
1017.04314	0.07834
1015.75737	0.07666
1014.47160	0.07498
1013.18584	0.07339
1011.90007	0.07190
1010.61430	0.07054
1009.32853	0.06925
1008.04276	0.06800
1006.75699	0.06671
1005.47122	0.06539
1004.18545	0.06412
1002.89968	0.06297
1001.61392	0.06192
1000.32815	0.06088
999.04238	0.05980
997.75661	0.05867
996.47084	0.05754
995.18507	0.05647
993.89930	0.05550
992.61353	0.05461
991.32777	0.05380
990.04200	0.05302
988.75623	0.05226
987.47046	0.05155
986.18469	0.05087
984.89892	0.05020
983.61315	0.04951
982.32738	0.04878
981.04161	0.04806
979.75585	0.04739
978.47008	0.04679
977.18431	0.04623
975.89854	0.04566
974.61277	0.04507
973.32700	0.04452
972.04123	0.04413
970.75546	0.04396
969.46970	0.04402
968.18393	0.04424
966.89816	0.04449
965.61239	0.04459
964.32662	0.04443
963.04085	0.04406
961.75508	0.04361
960.46931	0.04320
959.18354	0.04284
957.89778	0.04247
956.61201	0.04200
955.32624	0.04141
954.04047	0.04079
952.75470	0.04019
951.46893	0.03968
950.18316	0.03923
948.89739	0.03880
947.61163	0.03838
946.32586	0.03800
945.04009	0.03766
943.75432	0.03734
942.46855	0.03702
941.18278	0.03671
939.89701	0.03646
938.61124	0.03625
937.32547	0.03600
936.03971	0.03565
934.75394	0.03523
933.46817	0.03481
932.18240	0.03446
930.89663	0.03418
929.61086	0.03393
928.32509	0.03369
927.03932	0.03346
925.75356	0.03328
924.46779	0.03318
923.18202	0.03310
921.89625	0.03297
920.61048	0.03272
919.32471	0.03237
918.03894	0.03198
916.75317	0.03157
915.46740	0.03118
914.18164	0.03082
912.89587	0.03053
911.61010	0.03031
910.32433	0.03014
909.03856	0.02998
907.75279	0.02977
906.46702	0.02952
905.18125	0.02925
903.89549	0.02899
902.60972	0.02878
901.32395	0.02863
900.03818	0.02854
898.75241	0.02847
897.46664	0.02835
896.18087	0.02815
894.89510	0.02789
893.60933	0.02765
892.32357	0.02748
891.03780	0.02741
889.75203	0.02739
888.46626	0.02732
887.18049	0.02716
885.89472	0.02696
884.60895	0.02683
883.32318	0.02685
882.03742	0.02700
880.75165	0.02721
879.46588	0.02738
878.18011	0.02748
876.89434	0.02751
875.60857	0.02745
874.32280	0.02732
873.03703	0.02721
871.75126	0.02717
870.46550	0.02722
869.17973	0.02728
867.89396	0.02731
866.60819	0.02733
865.32242	0.02737
864.03665	0.02741
862.75088	0.02736
861.46511	0.02713
860.17935	0.02676
858.89358	0.02638
857.60781	0.02612
856.32204	0.02601
855.03627	0.02600
853.75050	0.02602
852.46473	0.02599
851.17896	0.02589
849.89319	0.02572
848.60743	0.02551
847.32166	0.02527
846.03589	0.02501
844.75012	0.02479
843.46435	0.02460
842.17858	0.02443
840.89281	0.02426
839.60704	0.02407
838.32128	0.02391
837.03551	0.02378
835.74974	0.02369
834.46397	0.02365
833.17820	0.02364
831.89243	0.02365
830.60666	0.02359
829.32089	0.02343
828.03512	0.02319
826.74936	0.02298
825.46359	0.02288
824.17782	0.02289
822.89205	0.02295
821.60628	0.02299
820.32051	0.02297
819.03474	0.02287
817.74897	0.02274
816.46321	0.02263
815.17744	0.02258
813.89167	0.02258
812.60590	0.02255
811.32013	0.02248
810.03436	0.02237
808.74859	0.02229
807.46282	0.02225
806.17705	0.02228
804.89129	0.02236
803.60552	0.02243
802.31975	0.02246
801.03398	0.02244
799.74821	0.02242
798.46244	0.02240
797.17667	0.02236
795.89090	0.02226
794.60513	0.02213
793.31937	0.02204
792.03360	0.02204
790.74783	0.02208
789.46206	0.02211
788.17629	0.02206
786.89052	0.02193
785.60475	0.02178
784.31898	0.02166
783.03322	0.02163
781.74745	0.02170
780.46168	0.02184
779.17591	0.02199
777.89014	0.02208
776.60437	0.02209
775.31860	0.02204
774.03283	0.02198
772.74706	0.02191
771.46130	0.02183
770.17553	0.02178
768.88976	0.02179
767.60399	0.02183
766.31822	0.02188
765.03245	0.02191
763.74668	0.02194
762.46091	0.02197
761.17515	0.02202
759.88938	0.02208
758.60361	0.02217
757.31784	0.02223
756.03207	0.02224
754.74630	0.02216
753.46053	0.02207
752.17476	0.02202
750.88899	0.02209
749.60323	0.02223
748.31746	0.02235
747.03169	0.02240
745.74592	0.02240
744.46015	0.02244
743.17438	0.02258
741.88861	0.02279
740.60284	0.02297
739.31708	0.02303
738.03131	0.02297
736.74554	0.02286
735.45977	0.02270
734.17400	0.02253
732.88823	0.02239
731.60246	0.02239
730.31669	0.02253
729.03092	0.02273
727.74516	0.02288
726.45939	0.02292
725.17362	0.02290
723.88785	0.02290
722.60208	0.02292
721.31631	0.02293
720.03054	0.02295
718.74477	0.02296
717.45901	0.02295
716.17324	0.02293
714.88747	0.02289
713.60170	0.02285
712.31593	0.02287
711.03016	0.02295
709.74439	0.02310
708.45862	0.02325
707.17285	0.02336
705.88709	0.02341
704.60132	0.02339
703.31555	0.02336
702.02978	0.02335
700.74401	0.02338
699.45824	0.02341
698.17247	0.02339
696.88670	0.02331
695.60094	0.02320
694.31517	0.02311
693.02940	0.02305
691.74363	0.02300
690.45786	0.02295
689.17209	0.02293
687.88632	0.02293
686.60055	0.02297
685.31478	0.02301
684.02902	0.02303
682.74325	0.02303
681.45748	0.02302
680.17171	0.02306
678.88594	0.02313
677.60017	0.02317
676.31440	0.02315
675.02863	0.02307
673.74287	0.02298
672.45710	0.02292
671.17133	0.02289
669.88556	0.02288
668.59979	0.02289
667.31402	0.02293
666.02825	0.02299
664.74248	0.02309
663.45671	0.02319
662.17095	0.02326
660.88518	0.02326
659.59941	0.02319
658.31364	0.02307
657.02787	0.02294
655.74210	0.02285
654.45633	0.02282
653.17056	0.02284
651.88480	0.02289
650.59903	0.02298
649.31326	0.02307
648.02749	0.02313
646.74172	0.02314
645.45595	0.02306
644.17018	0.02291
642.88441	0.02271
641.59864	0.02249
640.31288	0.02232
639.02711	0.02224
637.74134	0.02226
636.45557	0.02236
635.16980	0.02248
633.88403	0.02256
632.59826	0.02252
631.31249	0.02247
630.02673	0.02289
628.74096	0.02362
627.45519	0.02293
626.16942	0.02384
624.88365	0.02574
623.59788	0.02726
622.31211	0.02784
621.02634	0.02741
619.74057	0.02629
618.45481	0.02505
617.16904	0.02429
615.88327	0.02430
614.59750	0.02491
613.31173	0.02583
612.02596	0.02726
610.74019	0.02985
609.45442	0.03374
608.16866	0.03792
606.88289	0.04098
605.59712	0.04232
604.31135	0.04245
603.02558	0.04237
601.73981	0.04260
600.45404	0.04287
599.16827	0.04257
597.88250	0.04141
596.59674	0.03970
595.31097	0.03797
594.02520	0.03666
592.73943	0.03584
591.45366	0.03537
590.16789	0.03503
588.88212	0.03470
587.59635	0.03445
586.31059	0.03443
585.02482	0.03479
583.73905	0.03557
582.45328	0.03669
581.16751	0.03796
579.88174	0.03915
578.59597	0.04014
577.31020	0.04093
576.02443	0.04159
574.73867	0.04219
573.45290	0.04277
572.16713	0.04341
570.88136	0.04420
569.59559	0.04527
568.30982	0.04662
567.02405	0.04805
565.73828	0.04923
564.45251	0.04991
563.16675	0.05009
561.88098	0.04987
560.59521	0.04942
559.30944	0.04881
558.02367	0.04810
556.73790	0.04730
555.45213	0.04641
554.16636	0.04545
552.88060	0.04448
551.59483	0.04361
550.30906	0.04284
549.02329	0.04213
547.73752	0.04147
546.45175	0.04091
545.16598	0.04048
543.88021	0.04010
542.59444	0.03967
541.30868	0.03917
540.02291	0.03867
538.73714	0.03826
537.45137	0.03795
536.16560	0.03765
534.87983	0.03732
533.59406	0.03697
532.30829	0.03665
531.02253	0.03636
529.73676	0.03605
528.45099	0.03564
527.16522	0.03514
525.87945	0.03463
524.59368	0.03420
523.30791	0.03392
522.02214	0.03376
520.73637	0.03365
519.45061	0.03351
518.16484	0.03329
516.87907	0.03299
515.59330	0.03264
514.30753	0.03229
513.02176	0.03193
511.73599	0.03160
510.45022	0.03133
509.16446	0.03115
507.87869	0.03099
506.59292	0.03078
505.30715	0.03047
504.02138	0.03009
502.73561	0.02970
501.44984	0.02936
500.16407	0.02909
498.87830	0.02883
497.59254	0.02854
496.30677	0.02819
495.02100	0.02787
493.73523	0.02762
492.44946	0.02743
491.16369	0.02726
489.87792	0.02710
488.59215	0.02694
487.30639	0.02677
486.02062	0.02661
484.73485	0.02644
483.44908	0.02625
482.16331	0.02604
480.87754	0.02586
479.59177	0.02575
478.30600	0.02571
477.02023	0.02570
475.73447	0.02567
474.44870	0.02563
473.16293	0.02562
471.87716	0.02567
470.59139	0.02577
469.30562	0.02584
468.01985	0.02581
466.73408	0.02564
465.44832	0.02538
464.16255	0.02511
462.87678	0.02488
461.59101	0.02469
460.30524	0.02453
459.01947	0.02434
457.73370	0.02409
456.44793	0.02375
455.16216	0.02339
453.87640	0.02308
452.59063	0.02284
451.30486	0.02262
450.01909	0.02235
448.73332	0.02208
447.44755	0.02188
446.16178	0.02180
444.87601	0.02178
443.59025	0.02171
442.30448	0.02156
441.01871	0.02135
439.73294	0.02116
438.44717	0.02104
437.16140	0.02100
435.87563	0.02101
434.58986	0.02102
433.30409	0.02099
432.01833	0.02088
430.73256	0.02072
429.44679	0.02057
428.16102	0.02048
426.87525	0.02045
425.58948	0.02040
424.30371	0.02029
423.01794	0.02011
421.73218	0.01991
420.44641	0.01975
419.16064	0.01966
417.87487	0.01957
416.58910	0.01944
415.30333	0.01925
414.01756	0.01909
412.73179	0.01900
411.44602	0.01896
410.16026	0.01890
408.87449	0.01880
407.58872	0.01866
406.30295	0.01853
405.01718	0.01845
403.73141	0.01840
402.44564	0.01834
401.15987	0.01827
399.87411	0.01817
