3997.45528	0.00986
3996.16951	0.00934
3994.88374	0.00873
3993.59798	0.00829
3992.31221	0.00831
3991.02644	0.00882
3989.74067	0.00961
3988.45490	0.01043
3987.16913	0.01117
3985.88336	0.01180
3984.59759	0.01222
3983.31183	0.01226
3982.02606	0.01181
3980.74029	0.01110
3979.45452	0.01053
3978.16875	0.01031
3976.88298	0.01027
3975.59721	0.01006
3974.31144	0.00956
3973.02567	0.00903
3971.73991	0.00884
3970.45414	0.00914
3969.16837	0.00972
3967.88260	0.01026
3966.59683	0.01053
3965.31106	0.01040
3964.02529	0.00987
3962.73952	0.00902
3961.45376	0.00810
3960.16799	0.00742
3958.88222	0.00714
3957.59645	0.00724
3956.31068	0.00752
3955.02491	0.00778
3953.73914	0.00792
3952.45337	0.00805
3951.16760	0.00830
3949.88184	0.00868
3948.59607	0.00910
3947.31030	0.00952
3946.02453	0.00995
3944.73876	0.01040
3943.45299	0.01081
3942.16722	0.01100
3940.88145	0.01090
3939.59569	0.01062
3938.30992	0.01033
3937.02415	0.01008
3935.73838	0.00976
3934.45261	0.00937
3933.16684	0.00915
3931.88107	0.00930
3930.59530	0.00977
3929.30953	0.01027
3928.02377	0.01059
3926.73800	0.01063
3925.45223	0.01044
3924.16646	0.01012
3922.88069	0.00976
3921.59492	0.00940
3920.30915	0.00899
3919.02338	0.00858
3917.73762	0.00831
3916.45185	0.00834
3915.16608	0.00878
3913.88031	0.00947
3912.59454	0.01010
3911.30877	0.01041
3910.02300	0.01043
3908.73723	0.01043
3907.45146	0.01069
3906.16570	0.01118
3904.87993	0.01153
3903.59416	0.01138
3902.30839	0.01079
3901.02262	0.01009
3899.73685	0.00959
3898.45108	0.00927
3897.16531	0.00897
3895.87955	0.00860
3894.59378	0.00836
3893.30801	0.00850
3892.02224	0.00911
3890.73647	0.00992
3889.45070	0.01061
3888.16493	0.01109
3886.87916	0.01138
3885.59339	0.01135
3884.30763	0.01098
3883.02186	0.01040
3881.73609	0.00981
3880.45032	0.00929
3879.16455	0.00885
3877.87878	0.00857
3876.59301	0.00862
3875.30724	0.00907
3874.02148	0.00983
3872.73571	0.01069
3871.44994	0.01139
3870.16417	0.01158
3868.87840	0.01116
3867.59263	0.01049
3866.30686	0.01002
3865.02109	0.00990
3863.73532	0.01005
3862.44956	0.01038
3861.16379	0.01073
3859.87802	0.01093
3858.59225	0.01089
3857.30648	0.01071
3856.02071	0.01056
3854.73494	0.01036
3853.44917	0.00992
3852.16341	0.00937
3850.87764	0.00915
3849.59187	0.00949
3848.30610	0.01021
3847.02033	0.01090
3845.73456	0.01119
3844.44879	0.01094
3843.16302	0.01029
3841.87725	0.00962
3840.59149	0.00937
3839.30572	0.00974
3838.01995	0.01043
3836.73418	0.01096
3835.44841	0.01113
3834.16264	0.01102
3832.87687	0.01079
3831.59110	0.01049
3830.30534	0.01014
3829.01957	0.00977
3827.73380	0.00948
3826.44803	0.00933
3825.16226	0.00938
3823.87649	0.00964
3822.59072	0.00995
3821.30495	0.01001
3820.01918	0.00977
3818.73342	0.00961
3817.44765	0.00976
3816.16188	0.00998
3814.87611	0.01002
3813.59034	0.00996
3812.30457	0.01000
3811.01880	0.01008
3809.73303	0.01012
3808.44726	0.01009
3807.16150	0.00991
3805.87573	0.00962
3804.58996	0.00956
3803.30419	0.01001
3802.01842	0.01065
3800.73265	0.01087
3799.44688	0.01058
3798.16111	0.01026
3796.87535	0.01034
3795.58958	0.01081
3794.30381	0.01128
3793.01804	0.01132
3791.73227	0.01075
3790.44650	0.00982
3789.16073	0.00898
3787.87496	0.00856
3786.58919	0.00861
3785.30343	0.00894
3784.01766	0.00938
3782.73189	0.00988
3781.44612	0.01043
3780.16035	0.01092
3778.87458	0.01110
3777.58881	0.01083
3776.30304	0.01024
3775.01728	0.00964
3773.73151	0.00925
3772.44574	0.00912
3771.15997	0.00908
3769.87420	0.00895
3768.58843	0.00877
3767.30266	0.00879
3766.01689	0.00914
3764.73112	0.00968
3763.44536	0.01017
3762.15959	0.01046
3760.87382	0.01049
3759.58805	0.01030
3758.30228	0.00997
3757.01651	0.00962
3755.73074	0.00933
3754.44497	0.00923
3753.15921	0.00934
3751.87344	0.00957
3750.58767	0.00981
3749.30190	0.00999
3748.01613	0.01013
3746.73036	0.01033
3745.44459	0.01037
3744.15882	0.00977
3742.87305	0.00862
3741.58729	0.00770
3740.30152	0.00750
3739.01575	0.00791
3737.72998	0.00848
3736.44421	0.00885
3735.15844	0.00894
3733.87267	0.00899
3732.58690	0.00926
3731.30114	0.00971
3730.01537	0.01010
3728.72960	0.01024
3727.44383	0.01010
3726.15806	0.00983
3724.87229	0.00965
3723.58652	0.00962
3722.30075	0.00964
3721.01498	0.00966
3719.72922	0.00976
3718.44345	0.00996
3717.15768	0.01020
3715.87191	0.01046
3714.58614	0.01079
3713.30037	0.01108
3712.01460	0.01107
3710.72883	0.01068
3709.44307	0.01014
3708.15730	0.00969
3706.87153	0.00935
3705.58576	0.00906
3704.29999	0.00886
3703.01422	0.00874
3701.72845	0.00863
3700.44268	0.00843
3699.15691	0.00822
3697.87115	0.00812
3696.58538	0.00814
3695.29961	0.00831
3694.01384	0.00859
3692.72807	0.00888
3691.44230	0.00923
3690.15653	0.00976
3688.87076	0.01027
3687.58500	0.01030
3686.29923	0.00980
3685.01346	0.00921
3683.72769	0.00901
3682.44192	0.00926
3681.15615	0.00963
3679.87038	0.00977
3678.58461	0.00968
3677.29884	0.00958
3676.01308	0.00954
3674.72731	0.00953
3673.44154	0.00973
3672.15577	0.01023
3670.87000	0.01070
3669.58423	0.01086
3668.29846	0.01093
3667.01269	0.01118
3665.72693	0.01145
3664.44116	0.01132
3663.15539	0.01078
3661.86962	0.01030
3660.58385	0.01034
3659.29808	0.01093
3658.01231	0.01173
3656.72654	0.01235
3655.44077	0.01257
3654.15501	0.01241
3652.86924	0.01193
3651.58347	0.01115
3650.29770	0.01020
3649.01193	0.00935
3647.72616	0.00883
3646.44039	0.00873
3645.15462	0.00907
3643.86886	0.00988
3642.58309	0.01102
3641.29732	0.01211
3640.01155	0.01277
3638.72578	0.01293
3637.44001	0.01287
3636.15424	0.01287
3634.86847	0.01307
3633.58270	0.01341
3632.29694	0.01380
3631.01117	0.01416
3629.72540	0.01423
3628.43963	0.01383
3627.15386	0.01314
3625.86809	0.01262
3624.58232	0.01252
3623.29655	0.01278
3622.01079	0.01320
3620.72502	0.01353
3619.43925	0.01357
3618.15348	0.01337
3616.86771	0.01318
3615.58194	0.01316
3614.29617	0.01319
3613.01040	0.01314
3611.72463	0.01314
3610.43887	0.01343
3609.15310	0.01400
3607.86733	0.01454
3606.58156	0.01480
3605.29579	0.01482
3604.01002	0.01480
3602.72425	0.01488
3601.43848	0.01510
3600.15272	0.01545
3598.86695	0.01588
3597.58118	0.01633
3596.29541	0.01672
3595.00964	0.01701
3593.72387	0.01718
3592.43810	0.01720
3591.15233	0.01703
3589.86656	0.01681
3588.58080	0.01669
3587.29503	0.01688
3586.00926	0.01745
3584.72349	0.01826
3583.43772	0.01897
3582.15195	0.01939
3580.86618	0.01961
3579.58041	0.01969
3578.29464	0.01959
3577.00888	0.01934
3575.72311	0.01914
3574.43734	0.01910
3573.15157	0.01919
3571.86580	0.01926
3570.58003	0.01933
3569.29426	0.01949
3568.00849	0.01977
3566.72273	0.02009
3565.43696	0.02034
3564.15119	0.02050
3562.86542	0.02059
3561.57965	0.02069
3560.29388	0.02081
3559.00811	0.02094
3557.72234	0.02109
3556.43657	0.02129
3555.15081	0.02155
3553.86504	0.02172
3552.57927	0.02166
3551.29350	0.02141
3550.00773	0.02124
3548.72196	0.02143
3547.43619	0.02197
3546.15042	0.02252
3544.86466	0.02275
3543.57889	0.02257
3542.29312	0.02211
3541.00735	0.02159
3539.72158	0.02127
3538.43581	0.02131
3537.15004	0.02175
3535.86427	0.02247
3534.57850	0.02327
3533.29274	0.02399
3532.00697	0.02463
3530.72120	0.02519
3529.43543	0.02566
3528.14966	0.02594
3526.86389	0.02599
3525.57812	0.02586
3524.29235	0.02570
3523.00659	0.02563
3521.72082	0.02566
3520.43505	0.02577
3519.14928	0.02587
3517.86351	0.02593
3516.57774	0.02592
3515.29197	0.02587
3514.00620	0.02593
3512.72043	0.02624
3511.43467	0.02677
3510.14890	0.02728
3508.86313	0.02752
3507.57736	0.02737
3506.29159	0.02701
3505.00582	0.02674
3503.72005	0.02681
3502.43428	0.02720
3501.14852	0.02762
3499.86275	0.02786
3498.57698	0.02791
3497.29121	0.02789
3496.00544	0.02795
3494.71967	0.02816
3493.43390	0.02854
3492.14813	0.02903
3490.86236	0.02956
3489.57660	0.03002
3488.29083	0.03037
3487.00506	0.03054
3485.71929	0.03048
3484.43352	0.03021
3483.14775	0.02990
3481.86198	0.02975
3480.57621	0.02994
3479.29045	0.03043
3478.00468	0.03103
3476.71891	0.03156
3475.43314	0.03199
3474.14737	0.03233
3472.86160	0.03255
3471.57583	0.03261
3470.29006	0.03250
3469.00429	0.03226
3467.71853	0.03187
3466.43276	0.03135
3465.14699	0.03081
3463.86122	0.03042
3462.57545	0.03030
3461.28968	0.03047
3460.00391	0.03095
3458.71814	0.03169
3457.43238	0.03248
3456.14661	0.03305
3454.86084	0.03323
3453.57507	0.03301
3452.28930	0.03252
3451.00353	0.03196
3449.71776	0.03161
3448.43199	0.03168
3447.14622	0.03211
3445.86046	0.03263
3444.57469	0.03305
3443.28892	0.03340
3442.00315	0.03374
3440.71738	0.03407
3439.43161	0.03427
3438.14584	0.03429
3436.86007	0.03418
3435.57431	0.03411
3434.28854	0.03420
3433.00277	0.03443
3431.71700	0.03470
3430.43123	0.03494
3429.14546	0.03517
3427.85969	0.03542
3426.57392	0.03564
3425.28815	0.03579
3424.00239	0.03590
3422.71662	0.03601
3421.43085	0.03615
3420.14508	0.03627
3418.85931	0.03637
3417.57354	0.03646
3416.28777	0.03659
3415.00200	0.03679
3413.71624	0.03705
3412.43047	0.03729
3411.14470	0.03746
3409.85893	0.03752
3408.57316	0.03753
3407.28739	0.03759
3406.00162	0.03775
3404.71585	0.03799
3403.43008	0.03822
3402.14432	0.03835
3400.85855	0.03837
3399.57278	0.03835
3398.28701	0.03849
3397.00124	0.03882
3395.71547	0.03915
3394.42970	0.03921
3393.14393	0.03901
3391.85817	0.03889
3390.57240	0.03919
3389.28663	0.03991
3388.00086	0.04074
3386.71509	0.04131
3385.42932	0.04145
3384.14355	0.04117
3382.85778	0.04065
3381.57201	0.04018
3380.28625	0.04005
3379.00048	0.04026
3377.71471	0.04053
3376.42894	0.04065
3375.14317	0.04065
3373.85740	0.04070
3372.57163	0.04084
3371.28586	0.04106
3370.00010	0.04138
3368.71433	0.04186
3367.42856	0.04245
3366.14279	0.04302
3364.85702	0.04339
3363.57125	0.04347
3362.28548	0.04321
3360.99971	0.04272
3359.71394	0.04230
3358.42818	0.04231
3357.14241	0.04286
3355.85664	0.04374
3354.57087	0.04457
3353.28510	0.04509
3351.99933	0.04528
3350.71356	0.04530
3349.42779	0.04534
3348.14202	0.04558
3346.85626	0.04602
3345.57049	0.04653
3344.28472	0.04687
3342.99895	0.04688
3341.71318	0.04661
3340.42741	0.04629
3339.14164	0.04616
3337.85587	0.04630
3336.57011	0.04666
3335.28434	0.04712
3333.99857	0.04760
3332.71280	0.04799
3331.42703	0.04820
3330.14126	0.04821
3328.85549	0.04808
3327.56972	0.04795
3326.28395	0.04793
3324.99819	0.04808
3323.71242	0.04844
3322.42665	0.04892
3321.14088	0.04932
3319.85511	0.04949
3318.56934	0.04943
3317.28357	0.04934
3315.99780	0.04946
3314.71204	0.04984
3313.42627	0.05034
3312.14050	0.05082
3310.85473	0.05120
3309.56896	0.05148
3308.28319	0.05167
3306.99742	0.05178
3305.71165	0.05182
3304.42588	0.05186
3303.14012	0.05189
3301.85435	0.05194
3300.56858	0.05201
3299.28281	0.05206
3297.99704	0.05204
3296.71127	0.05193
3295.42550	0.05177
3294.13973	0.05163
3292.85397	0.05159
3291.56820	0.05172
3290.28243	0.05202
3288.99666	0.05243
3287.71089	0.05285
3286.42512	0.05322
3285.13935	0.05354
3283.85358	0.05374
3282.56781	0.05372
3281.28205	0.05348
3279.99628	0.05322
3278.71051	0.05314
3277.42474	0.05333
3276.13897	0.05365
3274.85320	0.05387
3273.56743	0.05388
3272.28166	0.05367
3270.99590	0.05334
3269.71013	0.05296
3268.42436	0.05265
3267.13859	0.05249
3265.85282	0.05248
3264.56705	0.05248
3263.28128	0.05237
3261.99551	0.05214
3260.70974	0.05185
3259.42398	0.05163
3258.13821	0.05158
3256.85244	0.05176
3255.56667	0.05210
3254.28090	0.05244
3252.99513	0.05264
3251.70936	0.05266
3250.42359	0.05254
3249.13783	0.05232
3247.85206	0.05201
3246.56629	0.05166
3245.28052	0.05139
3243.99475	0.05122
3242.70898	0.05110
3241.42321	0.05103
3240.13744	0.05102
3238.85167	0.05097
3237.56591	0.05070
3236.28014	0.05015
3234.99437	0.04951
3233.70860	0.04907
3232.42283	0.04896
3231.13706	0.04906
3229.85129	0.04917
3228.56552	0.04913
3227.27976	0.04896
3225.99399	0.04876
3224.70822	0.04865
3223.42245	0.04868
3222.13668	0.04883
3220.85091	0.04908
3219.56514	0.04932
3218.27937	0.04940
3216.99360	0.04918
3215.70784	0.04880
3214.42207	0.04853
3213.13630	0.04852
3211.85053	0.04869
3210.56476	0.04889
3209.27899	0.04903
3207.99322	0.04902
3206.70745	0.04871
3205.42169	0.04815
3204.13592	0.04764
3202.85015	0.04746
3201.56438	0.04766
3200.27861	0.04802
3198.99284	0.04832
3197.70707	0.04841
3196.42130	0.04818
3195.13553	0.04759
3193.84977	0.04683
3192.56400	0.04629
3191.27823	0.04622
3189.99246	0.04647
3188.70669	0.04667
3187.42092	0.04663
3186.13515	0.04651
3184.84938	0.04646
3183.56362	0.04647
3182.27785	0.04643
3180.99208	0.04633
3179.70631	0.04621
3178.42054	0.04615
3177.13477	0.04613
3175.84900	0.04611
3174.56323	0.04609
3173.27746	0.04611
3171.99170	0.04617
3170.70593	0.04620
3169.42016	0.04604
3168.13439	0.04564
3166.84862	0.04519
3165.56285	0.04495
3164.27708	0.04494
3162.99131	0.04495
3161.70555	0.04475
3160.41978	0.04430
3159.13401	0.04380
3157.84824	0.04348
3156.56247	0.04347
3155.27670	0.04376
3153.99093	0.04420
3152.70516	0.04457
3151.41939	0.04474
3150.13363	0.04473
3148.84786	0.04461
3147.56209	0.04445
3146.27632	0.04422
3144.99055	0.04389
3143.70478	0.04352
3142.41901	0.04328
3141.13324	0.04324
3139.84748	0.04331
3138.56171	0.04338
3137.27594	0.04338
3135.99017	0.04325
3134.70440	0.04296
3133.41863	0.04255
3132.13286	0.04221
3130.84709	0.04217
3129.56132	0.04242
3128.27556	0.04281
3126.98979	0.04308
3125.70402	0.04306
3124.41825	0.04277
3123.13248	0.04238
3121.84671	0.04209
3120.56094	0.04198
3119.27517	0.04192
3117.98940	0.04180
3116.70364	0.04163
3115.41787	0.04153
3114.13210	0.04154
3112.84633	0.04159
3111.56056	0.04159
3110.27479	0.04152
3108.98902	0.04144
3107.70325	0.04136
3106.41749	0.04129
3105.13172	0.04123
3103.84595	0.04123
3102.56018	0.04138
3101.27441	0.04171
3099.98864	0.04218
3098.70287	0.04264
3097.41710	0.04288
3096.13133	0.04283
3094.84557	0.04256
3093.55980	0.04227
3092.27403	0.04216
3090.98826	0.04232
3089.70249	0.04268
3088.41672	0.04301
3087.13095	0.04307
3085.84518	0.04281
3084.55942	0.04240
3083.27365	0.04212
3081.98788	0.04211
3080.70211	0.04235
3079.41634	0.04272
3078.13057	0.04309
3076.84480	0.04331
3075.55903	0.04332
3074.27326	0.04319
3072.98750	0.04306
3071.70173	0.04300
3070.41596	0.04294
3069.13019	0.04282
3067.84442	0.04262
3066.55865	0.04245
3065.27288	0.04245
3063.98711	0.04263
3062.70135	0.04294
3061.41558	0.04326
3060.12981	0.04349
3058.84404	0.04354
3057.55827	0.04343
3056.27250	0.04323
3054.98673	0.04305
3053.70096	0.04299
3052.41519	0.04301
3051.12943	0.04300
3049.84366	0.04281
3048.55789	0.04248
3047.27212	0.04220
3045.98635	0.04207
3044.70058	0.04208
3043.41481	0.04207
3042.12904	0.04202
3040.84328	0.04198
3039.55751	0.04203
3038.27174	0.04212
3036.98597	0.04219
3035.70020	0.04222
3034.41443	0.04217
3033.12866	0.04200
3031.84289	0.04167
3030.55712	0.04123
3029.27136	0.04081
3027.98559	0.04056
3026.69982	0.04047
3025.41405	0.04046
3024.12828	0.04039
3022.84251	0.04026
3021.55674	0.04021
3020.27097	0.04037
3018.98521	0.04067
3017.69944	0.04090
3016.41367	0.04096
3015.12790	0.04090
3013.84213	0.04083
3012.55636	0.04075
3011.27059	0.04059
3009.98482	0.04035
3008.69905	0.04008
3007.41329	0.03980
3006.12752	0.03955
3004.84175	0.03931
3003.55598	0.03915
3002.27021	0.03912
3000.98444	0.03917
2999.69867	0.03921
2998.41290	0.03935
2997.12714	0.03950
2995.84137	0.03971
2994.55560	0.04001
2993.26983	0.04029
2991.98406	0.04042
2990.69829	0.04029
2989.41252	0.03997
2988.12675	0.03966
2986.84098	0.03959
2985.55522	0.03979
2984.26945	0.04011
2982.98368	0.04038
2981.69791	0.04058
2980.41214	0.04073
2979.12637	0.04082
2977.84060	0.04086
2976.55483	0.04100
2975.26907	0.04131
2973.98330	0.04170
2972.69753	0.04199
2971.41176	0.04207
2970.12599	0.04203
2968.84022	0.04200
2967.55445	0.04212
2966.26868	0.04248
2964.98291	0.04305
2963.69715	0.04358
2962.41138	0.04377
2961.12561	0.04353
2959.83984	0.04310
2958.55407	0.04284
2957.26830	0.04290
2955.98253	0.04314
2954.69676	0.04330
2953.41100	0.04329
2952.12523	0.04323
2950.83946	0.04327
2949.55369	0.04342
2948.26792	0.04360
2946.98215	0.04376
2945.69638	0.04389
2944.41061	0.04391
2943.12484	0.04380
2941.83908	0.04362
2940.55331	0.04353
2939.26754	0.04359
2937.98177	0.04378
2936.69600	0.04401
2935.41023	0.04417
2934.12446	0.04416
2932.83869	0.04401
2931.55293	0.04390
2930.26716	0.04399
2928.98139	0.04424
2927.69562	0.04452
2926.40985	0.04472
2925.12408	0.04482
2923.83831	0.04480
2922.55254	0.04471
2921.26677	0.04462
2919.98101	0.04458
2918.69524	0.04450
2917.40947	0.04427
2916.12370	0.04389
2914.83793	0.04351
2913.55216	0.04316
2912.26639	0.04280
2910.98062	0.04239
2909.69486	0.04201
2908.40909	0.04175
2907.12332	0.04160
2905.83755	0.04143
2904.55178	0.04117
2903.26601	0.04089
2901.98024	0.04069
2900.69447	0.04066
2899.40870	0.04078
2898.12294	0.04096
2896.83717	0.04108
2895.55140	0.04104
2894.26563	0.04081
2892.97986	0.04044
2891.69409	0.04003
2890.40832	0.03966
2889.12255	0.03944
2887.83678	0.03945
2886.55102	0.03966
2885.26525	0.03991
2883.97948	0.04006
2882.69371	0.04008
2881.40794	0.04006
2880.12217	0.04002
2878.83640	0.03996
2877.55063	0.03984
2876.26487	0.03971
2874.97910	0.03967
2873.69333	0.03974
2872.40756	0.03989
2871.12179	0.03998
2869.83602	0.03994
2868.55025	0.03974
2867.26448	0.03941
2865.97871	0.03909
2864.69295	0.03895
2863.40718	0.03908
2862.12141	0.03933
2860.83564	0.03943
2859.54987	0.03927
2858.26410	0.03901
2856.97833	0.03887
2855.69256	0.03892
2854.40680	0.03907
2853.12103	0.03916
2851.83526	0.03906
2850.54949	0.03876
2849.26372	0.03839
2847.97795	0.03817
2846.69218	0.03818
2845.40641	0.03827
2844.12064	0.03822
2842.83488	0.03795
2841.54911	0.03764
2840.26334	0.03743
2838.97757	0.03730
2837.69180	0.03717
2836.40603	0.03703
2835.12026	0.03698
2833.83449	0.03697
2832.54873	0.03689
2831.26296	0.03672
2829.97719	0.03652
2828.69142	0.03636
2827.40565	0.03623
2826.11988	0.03605
2824.83411	0.03582
2823.54834	0.03558
2822.26257	0.03541
2820.97681	0.03538
2819.69104	0.03550
2818.40527	0.03567
2817.11950	0.03576
2815.83373	0.03563
2814.54796	0.03534
2813.26219	0.03513
2811.97642	0.03525
2810.69066	0.03563
2809.40489	0.03597
2808.11912	0.03599
2806.83335	0.03570
2805.54758	0.03528
2804.26181	0.03496
2802.97604	0.03487
2801.69027	0.03498
2800.40450	0.03513
2799.11874	0.03510
2797.83297	0.03483
2796.54720	0.03440
2795.26143	0.03398
2793.97566	0.03373
2792.68989	0.03371
2791.40412	0.03385
2790.11835	0.03401
2788.83259	0.03412
2787.54682	0.03415
2786.26105	0.03412
2784.97528	0.03408
2783.68951	0.03408
2782.40374	0.03412
2781.11797	0.03412
2779.83220	0.03403
2778.54643	0.03392
2777.26067	0.03386
2775.97490	0.03383
2774.68913	0.03372
2773.40336	0.03352
2772.11759	0.03332
2770.83182	0.03322
2769.54605	0.03320
2768.26028	0.03319
2766.97452	0.03317
2765.68875	0.03313
2764.40298	0.03308
2763.11721	0.03294
2761.83144	0.03269
2760.54567	0.03238
2759.25990	0.03213
2757.97413	0.03201
2756.68836	0.03200
2755.40260	0.03208
2754.11683	0.03220
2752.83106	0.03237
2751.54529	0.03253
2750.25952	0.03263
2748.97375	0.03262
2747.68798	0.03252
2746.40221	0.03235
2745.11645	0.03217
2743.83068	0.03200
2742.54491	0.03183
2741.25914	0.03162
2739.97337	0.03137
2738.68760	0.03119
2737.40183	0.03113
2736.11606	0.03117
2734.83029	0.03120
2733.54453	0.03116
2732.25876	0.03111
2730.97299	0.03116
2729.68722	0.03132
2728.40145	0.03143
2727.11568	0.03134
2725.82991	0.03108
2724.54414	0.03081
2723.25838	0.03068
2721.97261	0.03070
2720.68684	0.03080
2719.40107	0.03088
2718.11530	0.03087
2716.82953	0.03080
2715.54376	0.03072
2714.25799	0.03067
2712.97222	0.03061
2711.68646	0.03048
2710.40069	0.03028
2709.11492	0.03008
2707.82915	0.02993
2706.54338	0.02981
2705.25761	0.02967
2703.97184	0.02953
2702.68607	0.02946
2701.40031	0.02952
2700.11454	0.02963
2698.82877	0.02969
2697.54300	0.02967
2696.25723	0.02962
2694.97146	0.02959
2693.68569	0.02953
2692.39992	0.02942
2691.11415	0.02930
2689.82839	0.02923
2688.54262	0.02921
2687.25685	0.02915
2685.97108	0.02897
2684.68531	0.02870
2683.39954	0.02844
2682.11377	0.02830
2680.82800	0.02825
2679.54224	0.02822
2678.25647	0.02812
2676.97070	0.02797
2675.68493	0.02784
2674.39916	0.02779
2673.11339	0.02781
2671.82762	0.02788
2670.54185	0.02799
2669.25608	0.02818
2667.97032	0.02837
2666.68455	0.02845
2665.39878	0.02835
2664.11301	0.02814
2662.82724	0.02797
2661.54147	0.02788
2660.25570	0.02787
2658.96993	0.02789
2657.68417	0.02789
2656.39840	0.02788
2655.11263	0.02784
2653.82686	0.02774
2652.54109	0.02759
2651.25532	0.02741
2649.96955	0.02729
2648.68378	0.02725
2647.39801	0.02728
2646.11225	0.02731
2644.82648	0.02728
2643.54071	0.02717
2642.25494	0.02701
2640.96917	0.02687
2639.68340	0.02675
2638.39763	0.02664
2637.11186	0.02655
2635.82609	0.02648
2634.54033	0.02635
2633.25456	0.02609
2631.96879	0.02572
2630.68302	0.02531
2629.39725	0.02498
2628.11148	0.02480
2626.82571	0.02485
2625.53994	0.02509
2624.25418	0.02535
2622.96841	0.02548
2621.68264	0.02547
2620.39687	0.02538
2619.11110	0.02528
2617.82533	0.02526
2616.53956	0.02537
2615.25379	0.02546
2613.96802	0.02530
2612.68226	0.02477
2611.39649	0.02413
2610.11072	0.02373
2608.82495	0.02368
2607.53918	0.02376
2606.25341	0.02377
2604.96764	0.02371
2603.68187	0.02370
2602.39611	0.02374
2601.11034	0.02379
2599.82457	0.02382
2598.53880	0.02383
2597.25303	0.02379
2595.96726	0.02363
2594.68149	0.02339
2593.39572	0.02317
2592.10995	0.02308
2590.82419	0.02310
2589.53842	0.02315
2588.25265	0.02318
2586.96688	0.02314
2585.68111	0.02306
2584.39534	0.02300
2583.10957	0.02300
2581.82380	0.02303
2580.53804	0.02301
2579.25227	0.02295
2577.96650	0.02293
2576.68073	0.02304
2575.39496	0.02320
2574.10919	0.02322
2572.82342	0.02289
2571.53765	0.02229
2570.25188	0.02180
2568.96612	0.02169
2567.68035	0.02189
2566.39458	0.02207
2565.10881	0.02205
2563.82304	0.02190
2562.53727	0.02175
2561.25150	0.02166
2559.96573	0.02163
2558.67997	0.02166
2557.39420	0.02176
2556.10843	0.02184
2554.82266	0.02185
2553.53689	0.02180
2552.25112	0.02178
2550.96535	0.02184
2549.67958	0.02196
2548.39381	0.02202
2547.10805	0.02190
2545.82228	0.02161
2544.53651	0.02132
2543.25074	0.02127
2541.96497	0.02147
2540.67920	0.02170
2539.39343	0.02178
2538.10766	0.02172
2536.82190	0.02161
2535.53613	0.02149
2534.25036	0.02133
2532.96459	0.02113
2531.67882	0.02094
2530.39305	0.02082
2529.10728	0.02086
2527.82151	0.02107
2526.53574	0.02130
2525.24998	0.02134
2523.96421	0.02115
2522.67844	0.02087
2521.39267	0.02066
2520.10690	0.02060
2518.82113	0.02074
2517.53536	0.02112
2516.24959	0.02162
2514.96383	0.02197
2513.67806	0.02197
2512.39229	0.02171
2511.10652	0.02150
2509.82075	0.02147
2508.53498	0.02149
2507.24921	0.02139
2505.96344	0.02116
2504.67767	0.02092
2503.39191	0.02080
2502.10614	0.02086
2500.82037	0.02107
2499.53460	0.02128
2498.24883	0.02124
2496.96306	0.02089
2495.67729	0.02049
2494.39152	0.02038
2493.10576	0.02059
2491.81999	0.02085
2490.53422	0.02090
2489.24845	0.02061
2487.96268	0.02000
2486.67691	0.01930
2485.39114	0.01890
2484.10537	0.01908
2482.81960	0.01969
2481.53384	0.02029
2480.24807	0.02058
2478.96230	0.02061
2477.67653	0.02062
2476.39076	0.02067
2475.10499	0.02071
2473.81922	0.02073
2472.53345	0.02074
2471.24769	0.02069
2469.96192	0.02048
2468.67615	0.02017
2467.39038	0.01997
2466.10461	0.02002
2464.81884	0.02023
2463.53307	0.02041
2462.24730	0.02048
2460.96153	0.02050
2459.67577	0.02053
2458.39000	0.02054
2457.10423	0.02048
2455.81846	0.02035
2454.53269	0.02021
2453.24692	0.02020
2451.96115	0.02034
2450.67538	0.02056
2449.38962	0.02074
2448.10385	0.02090
2446.81808	0.02108
2445.53231	0.02116
2444.24654	0.02103
2442.96077	0.02076
2441.67500	0.02058
2440.38923	0.02063
2439.10346	0.02078
2437.81770	0.02084
2436.53193	0.02080
2435.24616	0.02076
2433.96039	0.02077
2432.67462	0.02084
2431.38885	0.02097
2430.10308	0.02110
2428.81731	0.02114
2427.53155	0.02100
2426.24578	0.02080
2424.96001	0.02073
2423.67424	0.02089
2422.38847	0.02119
2421.10270	0.02145
2419.81693	0.02151
2418.53116	0.02138
2417.24539	0.02119
2415.95963	0.02106
2414.67386	0.02095
2413.38809	0.02079
2412.10232	0.02059
2410.81655	0.02041
2409.53078	0.02028
2408.24501	0.02014
2406.95924	0.01995
2405.67347	0.01976
2404.38771	0.01976
2403.10194	0.02001
2401.81617	0.02040
2400.53040	0.02061
2399.24463	0.02048
2397.95886	0.02018
2396.67309	0.01990
2395.38732	0.01979
2394.10156	0.01982
2392.81579	0.01989
2391.53002	0.01992
2390.24425	0.01994
2388.95848	0.02002
2387.67271	0.02017
2386.38694	0.02035
2385.10117	0.02048
2383.81540	0.02052
2382.52964	0.02050
2381.24387	0.02048
2379.95810	0.02055
2378.67233	0.02066
2377.38656	0.02081
2376.10079	0.02102
2374.81502	0.02119
2373.52925	0.02107
2372.24349	0.02074
2370.95772	0.02054
2369.67195	0.02062
2368.38618	0.02085
2367.10041	0.02102
2365.81464	0.02120
2364.52887	0.02139
2363.24310	0.02159
2361.95733	0.02172
2360.67157	0.02168
2359.38580	0.02164
2358.10003	0.02174
2356.81426	0.02192
2355.52849	0.02208
2354.24272	0.02220
2352.95695	0.02221
2351.67118	0.02194
2350.38542	0.02160
2349.09965	0.02147
2347.81388	0.02148
2346.52811	0.02137
2345.24234	0.02142
2343.95657	0.02201
2342.67080	0.02285
2341.38503	0.02279
2340.09926	0.02198
2338.81350	0.02181
2337.52773	0.02230
2336.24196	0.02205
2334.95619	0.02142
2333.67042	0.02166
2332.38465	0.02236
2331.09888	0.02197
2329.81311	0.02165
2328.52735	0.02202
2327.24158	0.02193
2325.95581	0.02166
2324.67004	0.02183
2323.38427	0.02193
2322.09850	0.02150
2320.81273	0.02126
2319.52696	0.02107
2318.24119	0.02093
2316.95543	0.02096
2315.66966	0.02079
2314.38389	0.02052
2313.09812	0.02032
2311.81235	0.02010
2310.52658	0.02002
2309.24081	0.01999
2307.95504	0.01979
2306.66928	0.01949
2305.38351	0.01909
2304.09774	0.01875
2302.81197	0.01860
2301.52620	0.01861
2300.24043	0.01871
2298.95466	0.01879
2297.66889	0.01880
2296.38312	0.01875
2295.09736	0.01861
2293.81159	0.01835
2292.52582	0.01799
2291.24005	0.01768
2289.95428	0.01758
2288.66851	0.01770
2287.38274	0.01791
2286.09697	0.01808
2284.81121	0.01819
2283.52544	0.01823
2282.23967	0.01819
2280.95390	0.01804
2279.66813	0.01777
2278.38236	0.01739
2277.09659	0.01697
2275.81082	0.01666
2274.52505	0.01654
2273.23929	0.01647
2271.95352	0.01628
2270.66775	0.01596
2269.38198	0.01563
2268.09621	0.01541
2266.81044	0.01532
2265.52467	0.01539
2264.23890	0.01562
2262.95314	0.01582
2261.66737	0.01576
2260.38160	0.01543
2259.09583	0.01510
2257.81006	0.01497
2256.52429	0.01504
2255.23852	0.01516
2253.95275	0.01523
2252.66698	0.01522
2251.38122	0.01510
2250.09545	0.01480
2248.80968	0.01438
2247.52391	0.01389
2246.23814	0.01370
2244.95237	0.01398
2243.66660	0.01462
2242.38083	0.01524
2241.09507	0.01546
2239.80930	0.01517
2238.52353	0.01461
2237.23776	0.01418
2235.95199	0.01412
2234.66622	0.01433
2233.38045	0.01439
2232.09468	0.01392
2230.80891	0.01291
2229.52315	0.01177
2228.23738	0.01097
2226.95161	0.01067
2225.66584	0.01075
2224.38007	0.01099
2223.09430	0.01118
2221.80853	0.01118
2220.52276	0.01097
2219.23700	0.01063
2217.95123	0.01038
2216.66546	0.01048
2215.37969	0.01103
2214.09392	0.01178
2212.80815	0.01227
2211.52238	0.01223
2210.23661	0.01184
2208.95084	0.01152
2207.66508	0.01156
2206.37931	0.01180
2205.09354	0.01180
2203.80777	0.01138
2202.52200	0.01098
2201.23623	0.01108
2199.95046	0.01155
2198.66469	0.01181
2197.37893	0.01153
2196.09316	0.01079
2194.80739	0.00974
2193.52162	0.00854
2192.23585	0.00750
2190.95008	0.00703
2189.66431	0.00737
2188.37854	0.00838
2187.09277	0.00954
2185.80701	0.01022
2184.52124	0.01015
2183.23547	0.00965
2181.94970	0.00938
2180.66393	0.00986
2179.37816	0.01112
2178.09239	0.01270
2176.80662	0.01373
2175.52085	0.01359
2174.23509	0.01239
2172.94932	0.01076
2171.66355	0.00922
2170.37778	0.00784
2169.09201	0.00657
2167.80624	0.00556
2166.52047	0.00519
2165.23470	0.00579
2163.94894	0.00714
2162.66317	0.00830
2161.37740	0.00832
2160.09163	0.00723
2158.80586	0.00600
2157.52009	0.00547
2156.23432	0.00563
2154.94855	0.00608
2153.66278	0.00661
2152.37702	0.00716
2151.09125	0.00761
2149.80548	0.00791
2148.51971	0.00819
2147.23394	0.00858
2145.94817	0.00894
2144.66240	0.00897
2143.37663	0.00860
2142.09087	0.00811
2140.80510	0.00790
2139.51933	0.00807
2138.23356	0.00833
2136.94779	0.00828
2135.66202	0.00783
2134.37625	0.00743
2133.09048	0.00762
2131.80471	0.00853
2130.51895	0.00974
2129.23318	0.01065
2127.94741	0.01096
2126.66164	0.01080
2125.37587	0.01062
2124.09010	0.01082
2122.80433	0.01143
2121.51856	0.01211
2120.23280	0.01251
2118.94703	0.01260
2117.66126	0.01260
2116.37549	0.01260
2115.08972	0.01248
2113.80395	0.01210
2112.51818	0.01157
2111.23241	0.01112
2109.94664	0.01082
2108.66088	0.01061
2107.37511	0.01050
2106.08934	0.01060
2104.80357	0.01090
2103.51780	0.01132
2102.23203	0.01165
2100.94626	0.01198
2099.66049	0.01613
2098.37473	0.01810
2097.08896	0.01799
2095.80319	0.01720
2094.51742	0.01601
2093.23165	0.01448
2091.94588	0.01292
2090.66011	0.01172
2089.37434	0.01115
2088.08857	0.01126
2086.80281	0.01183
2085.51704	0.01253
2084.23127	0.01311
2082.94550	0.01349
2081.65973	0.01381
2080.37396	0.01431
2079.08819	0.01520
2077.80242	0.01633
2076.51666	0.01721
2075.23089	0.01739
2073.94512	0.01685
2072.65935	0.01603
2071.37358	0.01542
2070.08781	0.01520
2068.80204	0.01518
2067.51627	0.01506
2066.23050	0.01468
2064.94474	0.01404
2063.65897	0.01326
2062.37320	0.01254
2061.08743	0.01200
2059.80166	0.01157
2058.51589	0.01096
2057.23012	0.00994
2055.94435	0.00862
2054.65859	0.00747
2053.37282	0.00716
2052.08705	0.00825
2050.80128	0.01056
2049.51551	0.01306
2048.22974	0.01455
2046.94397	0.01473
2045.65820	0.01428
2044.37243	0.01400
2043.08667	0.01413
2041.80090	0.01444
2040.51513	0.01479
2039.22936	0.01522
2037.94359	0.01568
2036.65782	0.01597
2035.37205	0.01598
2034.08628	0.01583
2032.80052	0.01566
2031.51475	0.01551
2030.22898	0.01544
2028.94321	0.01549
2027.65744	0.01546
2026.37167	0.01493
2025.08590	0.01378
2023.80013	0.01251
2022.51436	0.01174
2021.22860	0.01155
2019.94283	0.01144
2018.65706	0.01109
2017.37129	0.01067
2016.08552	0.01059
2014.79975	0.01101
2013.51398	0.01173
2012.22821	0.01251
2010.94245	0.01332
2009.65668	0.01421
2008.37091	0.01508
2007.08514	0.01556
2005.79937	0.01525
2004.51360	0.01411
2003.22783	0.01243
2001.94206	0.01063
2000.65629	0.00898
1999.37053	0.00778
1998.08476	0.00727
1996.79899	0.00748
1995.51322	0.00806
1994.22745	0.00844
1992.94168	0.00830
1991.65591	0.00772
1990.37014	0.00699
1989.08438	0.00646
1987.79861	0.00638
1986.51284	0.00689
1985.22707	0.00792
1983.94130	0.00941
1982.65553	0.01143
1981.36976	0.01414
1980.08399	0.01741
1978.79822	0.02062
1977.51246	0.02285
1976.22669	0.02344
1974.94092	0.02262
1973.65515	0.02122
1972.36938	0.01989
1971.08361	0.01865
1969.79784	0.01723
1968.51207	0.01563
1967.22631	0.01427
1965.94054	0.01354
1964.65477	0.01350
1963.36900	0.01387
1962.08323	0.01429
1960.79746	0.01443
1959.51169	0.01408
1958.22592	0.01314
1956.94015	0.01174
1955.65439	0.01025
1954.36862	0.00920
1953.08285	0.00904
1951.79708	0.00983
1950.51131	0.01115
1949.22554	0.01230
1947.93977	0.01283
1946.65400	0.01273
1945.36823	0.01240
1944.08247	0.01231
1942.79670	0.01267
1941.51093	0.01333
1940.22516	0.01393
1938.93939	0.01424
1937.65362	0.01433
1936.36785	0.01447
1935.08208	0.01480
1933.79632	0.01523
1932.51055	0.01551
1931.22478	0.01547
1929.93901	0.01509
1928.65324	0.01449
1927.36747	0.01388
1926.08170	0.01347
1924.79593	0.01330
1923.51016	0.01327
1922.22440	0.01324
1920.93863	0.01317
1919.65286	0.01322
1918.36709	0.01353
1917.08132	0.01409
1915.79555	0.01474
1914.50978	0.01525
1913.22401	0.01549
1911.93825	0.01549
1910.65248	0.01533
1909.36671	0.01508
1908.08094	0.01482
1906.79517	0.01464
1905.50940	0.01460
1904.22363	0.01462
1902.93786	0.01461
1901.65209	0.01455
1900.36633	0.01458
1899.08056	0.01470
1897.79479	0.01484
1896.50902	0.01491
1895.22325	0.01492
1893.93748	0.01496
1892.65171	0.01503
1891.36594	0.01502
1890.08018	0.01483
1888.79441	0.01449
1887.50864	0.01418
1886.22287	0.01410
1884.93710	0.01426
1883.65133	0.01446
1882.36556	0.01446
1881.07979	0.01420
1879.79402	0.01385
1878.50826	0.01366
1877.22249	0.01374
1875.93672	0.01401
1874.65095	0.01427
1873.36518	0.01441
1872.07941	0.01440
1870.79364	0.01426
1869.50787	0.01403
1868.22211	0.01377
1866.93634	0.01360
1865.65057	0.01356
1864.36480	0.01361
1863.07903	0.01372
1861.79326	0.01385
1860.50749	0.01395
1859.22172	0.01394
1857.93595	0.01385
1856.65019	0.01375
1855.36442	0.01373
1854.07865	0.01380
1852.79288	0.01388
1851.50711	0.01389
1850.22134	0.01380
1848.93557	0.01366
1847.64980	0.01352
1846.36404	0.01341
1845.07827	0.01335
1843.79250	0.01330
1842.50673	0.01323
1841.22096	0.01319
1839.93519	0.01322
1838.64942	0.01328
1837.36365	0.01331
1836.07788	0.01329
1834.79212	0.01323
1833.50635	0.01314
1832.22058	0.01306
1830.93481	0.01303
1829.64904	0.01311
1828.36327	0.01336
1827.07750	0.01385
1825.79173	0.01457
1824.50597	0.01537
1823.22020	0.01609
1821.93443	0.01658
1820.64866	0.01676
1819.36289	0.01653
1818.07712	0.01582
1816.79135	0.01475
1815.50558	0.01356
1814.21981	0.01260
1812.93405	0.01201
1811.64828	0.01178
1810.36251	0.01175
1809.07674	0.01181
1807.79097	0.01191
1806.50520	0.01205
1805.21943	0.01223
1803.93366	0.01247
1802.64790	0.01273
1801.36213	0.01294
1800.07636	0.01306
1798.79059	0.01310
1797.50482	0.01312
1796.21905	0.01315
1794.93328	0.01320
1793.64751	0.01327
1792.36174	0.01334
1791.07598	0.01341
1789.79021	0.01352
1788.50444	0.01371
1787.21867	0.01394
1785.93290	0.01411
1784.64713	0.01412
1783.36136	0.01402
1782.07559	0.01396
1780.78983	0.01398
1779.50406	0.01400
1778.21829	0.01394
1776.93252	0.01380
1775.64675	0.01366
1774.36098	0.01358
1773.07521	0.01349
1771.78944	0.01333
1770.50367	0.01311
1769.21791	0.01294
1767.93214	0.01285
1766.64637	0.01281
1765.36060	0.01285
1764.07483	0.01296
1762.78906	0.01305
1761.50329	0.01306
1760.21752	0.01300
1758.93176	0.01297
1757.64599	0.01303
1756.36022	0.01312
1755.07445	0.01317
1753.78868	0.01323
1752.50291	0.01330
1751.21714	0.01336
1749.93137	0.01336
1748.64560	0.01332
1747.35984	0.01331
1746.07407	0.01337
1744.78830	0.01352
1743.50253	0.01371
1742.21676	0.01389
1740.93099	0.01404
1739.64522	0.01413
1738.35945	0.01416
1737.07369	0.01419
1735.78792	0.01432
1734.50215	0.01449
1733.21638	0.01459
1731.93061	0.01460
1730.64484	0.01457
1729.35907	0.01458
1728.07330	0.01463
1726.78753	0.01472
1725.50177	0.01483
1724.21600	0.01494
1722.93023	0.01504
1721.64446	0.01518
1720.35869	0.01543
1719.07292	0.01574
1717.78715	0.01602
1716.50138	0.01617
1715.21561	0.01628
1713.92985	0.01643
1712.64408	0.01668
1711.35831	0.01700
1710.07254	0.01742
1708.78677	0.01792
1707.50100	0.01848
1706.21523	0.01904
1704.92946	0.01955
1703.64370	0.02007
1702.35793	0.02075
1701.07216	0.02160
1699.78639	0.02243
1698.50062	0.02322
1697.21485	0.02407
1695.92908	0.02494
1694.64331	0.02568
1693.35754	0.02633
1692.07178	0.02702
1690.78601	0.02776
1689.50024	0.02850
1688.21447	0.02929
1686.92870	0.03023
1685.64293	0.03132
1684.35716	0.03235
1683.07139	0.03319
1681.78563	0.03397
1680.49986	0.03485
1679.21409	0.03587
1677.92832	0.03697
1676.64255	0.03810
1675.35678	0.03919
1674.07101	0.04016
1672.78524	0.04110
1671.49947	0.04207
1670.21371	0.04310
1668.92794	0.04410
1667.64217	0.04507
1666.35640	0.04606
1665.07063	0.04712
1663.78486	0.04822
1662.49909	0.04926
1661.21332	0.05017
1659.92756	0.05099
1658.64179	0.05173
1657.35602	0.05243
1656.07025	0.05317
1654.78448	0.05395
1653.49871	0.05463
1652.21294	0.05502
1650.92717	0.05523
1649.64140	0.05550
1648.35564	0.05596
1647.06987	0.05648
1645.78410	0.05691
1644.49833	0.05721
1643.21256	0.05742
1641.92679	0.05758
1640.64102	0.05769
1639.35525	0.05779
1638.06949	0.05797
1636.78372	0.05822
1635.49795	0.05839
1634.21218	0.05839
1632.92641	0.05827
1631.64064	0.05813
1630.35487	0.05797
1629.06910	0.05771
1627.78333	0.05731
1626.49757	0.05681
1625.21180	0.05628
1623.92603	0.05572
1622.64026	0.05505
1621.35449	0.05420
1620.06872	0.05324
1618.78295	0.05229
1617.49718	0.05134
1616.21142	0.05035
1614.92565	0.04930
1613.63988	0.04826
1612.35411	0.04728
1611.06834	0.04631
1609.78257	0.04534
1608.49680	0.04439
1607.21103	0.04345
1605.92526	0.04255
1604.63950	0.04170
1603.35373	0.04090
1602.06796	0.04016
1600.78219	0.03947
1599.49642	0.03882
1598.21065	0.03821
1596.92488	0.03760
1595.63911	0.03700
1594.35335	0.03644
1593.06758	0.03597
1591.78181	0.03561
1590.49604	0.03533
1589.21027	0.03510
1587.92450	0.03491
1586.63873	0.03476
1585.35296	0.03464
1584.06719	0.03450
1582.78143	0.03432
1581.49566	0.03416
1580.20989	0.03407
1578.92412	0.03414
1577.63835	0.03438
1576.35258	0.03468
1575.06681	0.03494
1573.78104	0.03518
1572.49528	0.03554
1571.20951	0.03604
1569.92374	0.03657
1568.63797	0.03704
1567.35220	0.03747
1566.06643	0.03790
1564.78066	0.03834
1563.49489	0.03878
1562.20912	0.03928
1560.92336	0.03992
1559.63759	0.04059
1558.35182	0.04117
1557.06605	0.04165
1555.78028	0.04218
1554.49451	0.04276
1553.20874	0.04332
1551.92297	0.04384
1550.63721	0.04438
1549.35144	0.04490
1548.06567	0.04539
1546.77990	0.04585
1545.49413	0.04630
1544.20836	0.04672
1542.92259	0.04709
1541.63682	0.04740
1540.35105	0.04762
1539.06529	0.04773
1537.77952	0.04777
1536.49375	0.04786
1535.20798	0.04805
1533.92221	0.04820
1532.63644	0.04825
1531.35067	0.04825
1530.06490	0.04828
1528.77914	0.04836
1527.49337	0.04842
1526.20760	0.04843
1524.92183	0.04841
1523.63606	0.04841
1522.35029	0.04846
1521.06452	0.04845
1519.77875	0.04835
1518.49298	0.04819
1517.20722	0.04801
1515.92145	0.04775
1514.63568	0.04743
1513.34991	0.04711
1512.06414	0.04680
1510.77837	0.04649
1509.49260	0.04615
1508.20683	0.04576
1506.92107	0.04525
1505.63530	0.04458
1504.34953	0.04383
1503.06376	0.04312
1501.77799	0.04249
1500.49222	0.04189
1499.20645	0.04127
1497.92068	0.04062
1496.63491	0.03991
1495.34915	0.03915
1494.06338	0.03838
1492.77761	0.03767
1491.49184	0.03702
1490.20607	0.03638
1488.92030	0.03574
1487.63453	0.03511
1486.34876	0.03452
1485.06299	0.03397
1483.77723	0.03347
1482.49146	0.03303
1481.20569	0.03265
1479.91992	0.03237
1478.63415	0.03223
1477.34838	0.03222
1476.06261	0.03232
1474.77684	0.03250
1473.49108	0.03274
1472.20531	0.03295
1470.91954	0.03310
1469.63377	0.03327
1468.34800	0.03352
1467.06223	0.03390
1465.77646	0.03434
1464.49069	0.03475
1463.20492	0.03513
1461.91916	0.03552
1460.63339	0.03600
1459.34762	0.03657
1458.06185	0.03716
1456.77608	0.03766
1455.49031	0.03800
1454.20454	0.03827
1452.91877	0.03853
1451.63301	0.03875
1450.34724	0.03889
1449.06147	0.03894
1447.77570	0.03889
1446.48993	0.03875
1445.20416	0.03857
1443.91839	0.03838
1442.63262	0.03818
1441.34685	0.03795
1440.06109	0.03768
1438.77532	0.03739
1437.48955	0.03707
1436.20378	0.03668
1434.91801	0.03628
1433.63224	0.03594
1432.34647	0.03566
1431.06070	0.03537
1429.77494	0.03506
1428.48917	0.03479
1427.20340	0.03461
1425.91763	0.03451
1424.63186	0.03443
1423.34609	0.03434
1422.06032	0.03427
1420.77455	0.03425
1419.48878	0.03422
1418.20302	0.03413
1416.91725	0.03401
1415.63148	0.03394
1414.34571	0.03394
1413.05994	0.03395
1411.77417	0.03393
1410.48840	0.03385
1409.20263	0.03375
1407.91687	0.03366
1406.63110	0.03360
1405.34533	0.03356
1404.05956	0.03353
1402.77379	0.03349
1401.48802	0.03347
1400.20225	0.03348
1398.91648	0.03346
1397.63071	0.03341
1396.34495	0.03333
1395.05918	0.03327
1393.77341	0.03319
1392.48764	0.03311
1391.20187	0.03305
1389.91610	0.03306
1388.63033	0.03311
1387.34456	0.03315
1386.05880	0.03312
1384.77303	0.03301
1383.48726	0.03288
1382.20149	0.03278
1380.91572	0.03271
1379.62995	0.03265
1378.34418	0.03256
1377.05841	0.03243
1375.77264	0.03226
1374.48688	0.03205
1373.20111	0.03180
1371.91534	0.03152
1370.62957	0.03128
1369.34380	0.03107
1368.05803	0.03087
1366.77226	0.03067
1365.48649	0.03045
1364.20073	0.03025
1362.91496	0.03006
1361.62919	0.02987
1360.34342	0.02969
1359.05765	0.02951
1357.77188	0.02934
1356.48611	0.02919
1355.20034	0.02906
1353.91457	0.02895
1352.62881	0.02888
1351.34304	0.02884
1350.05727	0.02882
1348.77150	0.02885
1347.48573	0.02892
1346.19996	0.02904
1344.91419	0.02917
1343.62842	0.02932
1342.34266	0.02948
1341.05689	0.02966
1339.77112	0.02984
1338.48535	0.02999
1337.19958	0.03008
1335.91381	0.03013
1334.62804	0.03015
1333.34227	0.03014
1332.05650	0.03007
1330.77074	0.02992
1329.48497	0.02976
1328.19920	0.02963
1326.91343	0.02956
1325.62766	0.02951
1324.34189	0.02946
1323.05612	0.02939
1321.77035	0.02931
1320.48459	0.02925
1319.19882	0.02923
1317.91305	0.02924
1316.62728	0.02928
1315.34151	0.02931
1314.05574	0.02932
1312.76997	0.02930
1311.48420	0.02928
1310.19843	0.02925
1308.91267	0.02922
1307.62690	0.02919
1306.34113	0.02916
1305.05536	0.02916
1303.76959	0.02914
1302.48382	0.02909
1301.19805	0.02901
1299.91228	0.02892
1298.62652	0.02886
1297.34075	0.02884
1296.05498	0.02885
1294.76921	0.02888
1293.48344	0.02891
1292.19767	0.02893
1290.91190	0.02897
1289.62613	0.02904
1288.34036	0.02915
1287.05460	0.02927
1285.76883	0.02938
1284.48306	0.02948
1283.19729	0.02957
1281.91152	0.02966
1280.62575	0.02976
1279.33998	0.02985
1278.05421	0.02992
1276.76845	0.02999
1275.48268	0.03005
1274.19691	0.03011
1272.91114	0.03021
1271.62537	0.03033
1270.33960	0.03046
1269.05383	0.03060
1267.76806	0.03077
1266.48229	0.03099
1265.19653	0.03126
1263.91076	0.03152
1262.62499	0.03174
1261.33922	0.03190
1260.05345	0.03202
1258.76768	0.03213
1257.48191	0.03225
1256.19614	0.03240
1254.91037	0.03260
1253.62461	0.03281
1252.33884	0.03303
1251.05307	0.03321
1249.76730	0.03340
1248.48153	0.03360
1247.19576	0.03387
1245.90999	0.03418
1244.62422	0.03453
1243.33846	0.03488
1242.05269	0.03522
1240.76692	0.03552
1239.48115	0.03576
1238.19538	0.03598
1236.90961	0.03617
1235.62384	0.03634
1234.33807	0.03650
1233.05230	0.03661
1231.76654	0.03669
1230.48077	0.03673
1229.19500	0.03673
1227.90923	0.03667
1226.62346	0.03654
1225.33769	0.03634
1224.05192	0.03612
1222.76615	0.03591
1221.48039	0.03574
1220.19462	0.03559
1218.90885	0.03543
1217.62308	0.03526
1216.33731	0.03507
1215.05154	0.03490
1213.76577	0.03478
1212.48000	0.03472
1211.19423	0.03474
1209.90847	0.03479
1208.62270	0.03484
1207.33693	0.03487
1206.05116	0.03492
1204.76539	0.03503
1203.47962	0.03523
1202.19385	0.03544
1200.90808	0.03532
1199.62232	0.03471
1198.33655	0.03456
1197.05078	0.03439
1195.76501	0.03419
1194.47924	0.03401
1193.19347	0.03386
1191.90770	0.03374
1190.62193	0.03364
1189.33616	0.03355
1188.05040	0.03347
1186.76463	0.03343
1185.47886	0.03342
1184.19309	0.03344
1182.90732	0.03350
1181.62155	0.03359
1180.33578	0.03369
1179.05001	0.03380
1177.76425	0.03390
1176.47848	0.03399
1175.19271	0.03410
1173.90694	0.03422
1172.62117	0.03438
1171.33540	0.03457
1170.04963	0.03479
1168.76386	0.03502
1167.47809	0.03525
1166.19233	0.03547
1164.90656	0.03565
1163.62079	0.03580
1162.33502	0.03593
1161.04925	0.03608
1159.76348	0.03628
1158.47771	0.03654
1157.19194	0.03678
1155.90618	0.03697
1154.62041	0.03708
1153.33464	0.03716
1152.04887	0.03721
1150.76310	0.03725
1149.47733	0.03733
1148.19156	0.03748
1146.90579	0.03767
1145.62002	0.03780
1144.33426	0.03781
1143.04849	0.03772
1141.76272	0.03760
1140.47695	0.03750
1139.19118	0.03746
1137.90541	0.03749
1136.61964	0.03759
1135.33387	0.03778
1134.04811	0.03801
1132.76234	0.03827
1131.47657	0.03857
1130.19080	0.03893
1128.90503	0.03936
1127.61926	0.03984
1126.33349	0.04035
1125.04772	0.04085
1123.76195	0.04131
1122.47619	0.04171
1121.19042	0.04211
1119.90465	0.04258
1118.61888	0.04315
1117.33311	0.04378
1116.04734	0.04444
1114.76157	0.04512
1113.47580	0.04582
1112.19004	0.04650
1110.90427	0.04712
1109.61850	0.04769
1108.33273	0.04826
1107.04696	0.04887
1105.76119	0.04954
1104.47542	0.05023
1103.18965	0.05087
1101.90388	0.05141
1100.61812	0.05186
1099.33235	0.05228
1098.04658	0.05272
1096.76081	0.05316
1095.47504	0.05353
1094.18927	0.05376
1092.90350	0.05385
1091.61773	0.05384
1090.33197	0.05379
1089.04620	0.05375
1087.76043	0.05371
1086.47466	0.05369
1085.18889	0.05375
1083.90312	0.05397
1082.61735	0.05440
1081.33158	0.05494
1080.04581	0.05544
1078.76005	0.05584
1077.47428	0.05615
1076.18851	0.05649
1074.90274	0.05691
1073.61697	0.05739
1072.33120	0.05783
1071.04543	0.05818
1069.75966	0.05846
1068.47390	0.05874
1067.18813	0.05908
1065.90236	0.05949
1064.61659	0.05988
1063.33082	0.06021
1062.04505	0.06050
1060.75928	0.06082
1059.47351	0.06115
1058.18774	0.06148
1056.90198	0.06181
1055.61621	0.06217
1054.33044	0.06259
1053.04467	0.06300
1051.75890	0.06333
1050.47313	0.06356
1049.18736	0.06377
1047.90159	0.06405
1046.61583	0.06443
1045.33006	0.06489
1044.04429	0.06539
1042.75852	0.06587
1041.47275	0.06633
1040.18698	0.06678
1038.90121	0.06728
1037.61544	0.06783
1036.32967	0.06842
1035.04391	0.06905
1033.75814	0.06970
1032.47237	0.07037
1031.18660	0.07097
1029.90083	0.07141
1028.61506	0.07163
1027.32929	0.07161
1026.04352	0.07138
1024.75775	0.07101
1023.47199	0.07056
1022.18622	0.07006
1020.90045	0.06949
1019.61468	0.06884
1018.32891	0.06810
1017.04314	0.06726
1015.75737	0.06631
1014.47160	0.06525
1013.18584	0.06415
1011.90007	0.06310
1010.61430	0.06213
1009.32853	0.06123
1008.04276	0.06037
1006.75699	0.05950
1005.47122	0.05862
1004.18545	0.05778
1002.89968	0.05696
1001.61392	0.05618
1000.32815	0.05541
999.04238	0.05465
997.75661	0.05393
996.47084	0.05323
995.18507	0.05257
993.89930	0.05195
992.61353	0.05140
991.32777	0.05093
990.04200	0.05053
988.75623	0.05011
987.47046	0.04965
986.18469	0.04912
984.89892	0.04859
983.61315	0.04811
982.32738	0.04770
981.04161	0.04735
979.75585	0.04702
978.47008	0.04668
977.18431	0.04633
975.89854	0.04602
974.61277	0.04576
973.32700	0.04560
972.04123	0.04554
970.75546	0.04557
969.46970	0.04565
968.18393	0.04577
966.89816	0.04584
965.61239	0.04582
964.32662	0.04568
963.04085	0.04547
961.75508	0.04528
960.46931	0.04510
959.18354	0.04488
957.89778	0.04457
956.61201	0.04417
955.32624	0.04372
954.04047	0.04325
952.75470	0.04282
951.46893	0.04243
950.18316	0.04205
948.89739	0.04166
947.61163	0.04125
946.32586	0.04084
945.04009	0.04041
943.75432	0.03997
942.46855	0.03957
941.18278	0.03928
939.89701	0.03910
938.61124	0.03896
937.32547	0.03877
936.03971	0.03849
934.75394	0.03813
933.46817	0.03770
932.18240	0.03727
930.89663	0.03691
929.61086	0.03663
928.32509	0.03637
927.03932	0.03609
925.75356	0.03581
924.46779	0.03556
923.18202	0.03535
921.89625	0.03511
920.61048	0.03484
919.32471	0.03452
918.03894	0.03417
916.75317	0.03380
915.46740	0.03341
914.18164	0.03302
912.89587	0.03272
911.61010	0.03253
910.32433	0.03242
909.03856	0.03227
907.75279	0.03207
906.46702	0.03189
905.18125	0.03176
903.89549	0.03163
902.60972	0.03142
901.32395	0.03113
900.03818	0.03087
898.75241	0.03072
897.46664	0.03067
896.18087	0.03063
894.89510	0.03052
893.60933	0.03037
892.32357	0.03031
891.03780	0.03036
889.75203	0.03046
888.46626	0.03044
887.18049	0.03026
885.89472	0.03000
884.60895	0.02982
883.32318	0.02982
882.03742	0.02994
880.75165	0.03009
879.46588	0.03016
878.18011	0.03015
876.89434	0.03004
875.60857	0.02987
874.32280	0.02972
873.03703	0.02963
871.75126	0.02960
870.46550	0.02953
869.17973	0.02936
867.89396	0.02914
866.60819	0.02900
865.32242	0.02900
864.03665	0.02905
862.75088	0.02899
861.46511	0.02873
860.17935	0.02835
858.89358	0.02799
857.60781	0.02776
856.32204	0.02766
855.03627	0.02764
853.75050	0.02766
852.46473	0.02767
851.17896	0.02760
849.89319	0.02742
848.60743	0.02716
847.32166	0.02687
846.03589	0.02662
844.75012	0.02643
843.46435	0.02626
842.17858	0.02607
840.89281	0.02583
839.60704	0.02561
838.32128	0.02543
837.03551	0.02530
835.74974	0.02515
834.46397	0.02497
833.17820	0.02481
831.89243	0.02471
830.60666	0.02465
829.32089	0.02457
828.03512	0.02442
826.74936	0.02423
825.46359	0.02404
824.17782	0.02392
822.89205	0.02390
821.60628	0.02396
820.32051	0.02404
819.03474	0.02407
817.74897	0.02403
816.46321	0.02397
815.17744	0.02392
813.89167	0.02386
812.60590	0.02380
811.32013	0.02375
810.03436	0.02375
808.74859	0.02375
807.46282	0.02370
806.17705	0.02363
804.89129	0.02363
803.60552	0.02373
802.31975	0.02387
801.03398	0.02393
799.74821	0.02385
798.46244	0.02367
797.17667	0.02349
795.89090	0.02336
794.60513	0.02326
793.31937	0.02318
792.03360	0.02312
790.74783	0.02307
789.46206	0.02302
788.17629	0.02295
786.89052	0.02288
785.60475	0.02281
784.31898	0.02273
783.03322	0.02267
781.74745	0.02265
780.46168	0.02270
779.17591	0.02279
777.89014	0.02285
776.60437	0.02282
775.31860	0.02271
774.03283	0.02259
772.74706	0.02251
771.46130	0.02246
770.17553	0.02244
768.88976	0.02246
767.60399	0.02252
766.31822	0.02259
765.03245	0.02266
763.74668	0.02273
762.46091	0.02278
761.17515	0.02280
759.88938	0.02279
758.60361	0.02275
757.31784	0.02272
756.03207	0.02271
754.74630	0.02270
753.46053	0.02269
752.17476	0.02272
750.88899	0.02285
749.60323	0.02307
748.31746	0.02327
747.03169	0.02330
745.74592	0.02316
744.46015	0.02301
743.17438	0.02302
741.88861	0.02316
740.60284	0.02324
739.31708	0.02316
738.03131	0.02298
736.74554	0.02285
735.45977	0.02281
734.17400	0.02282
732.88823	0.02282
731.60246	0.02284
730.31669	0.02291
729.03092	0.02303
727.74516	0.02315
726.45939	0.02326
725.17362	0.02335
723.88785	0.02339
722.60208	0.02342
721.31631	0.02345
720.03054	0.02346
718.74477	0.02348
717.45901	0.02348
716.17324	0.02344
714.88747	0.02336
713.60170	0.02327
712.31593	0.02319
711.03016	0.02315
709.74439	0.02317
708.45862	0.02323
707.17285	0.02331
705.88709	0.02338
704.60132	0.02340
703.31555	0.02339
702.02978	0.02340
700.74401	0.02346
699.45824	0.02357
698.17247	0.02369
696.88670	0.02375
695.60094	0.02373
694.31517	0.02366
693.02940	0.02356
691.74363	0.02347
690.45786	0.02342
689.17209	0.02342
687.88632	0.02344
686.60055	0.02344
685.31478	0.02338
684.02902	0.02327
682.74325	0.02317
681.45748	0.02313
680.17171	0.02319
678.88594	0.02330
677.60017	0.02338
676.31440	0.02340
675.02863	0.02339
673.74287	0.02339
672.45710	0.02340
671.17133	0.02338
669.88556	0.02332
668.59979	0.02326
667.31402	0.02328
666.02825	0.02333
664.74248	0.02342
663.45671	0.02350
662.17095	0.02353
660.88518	0.02351
659.59941	0.02345
658.31364	0.02337
657.02787	0.02330
655.74210	0.02329
654.45633	0.02334
653.17056	0.02341
651.88480	0.02346
650.59903	0.02347
649.31326	0.02348
648.02749	0.02347
646.74172	0.02343
645.45595	0.02332
644.17018	0.02318
642.88441	0.02304
641.59864	0.02292
640.31288	0.02284
639.02711	0.02279
637.74134	0.02280
636.45557	0.02287
635.16980	0.02299
633.88403	0.02303
632.59826	0.02284
631.31249	0.02297
630.02673	0.02587
628.74096	0.03049
627.45519	0.02743
626.16942	0.03270
624.88365	0.04342
623.59788	0.05304
622.31211	0.05888
621.02634	0.05994
619.74057	0.05647
618.45481	0.05002
617.16904	0.04276
615.88327	0.03644
614.59750	0.03213
613.31173	0.03052
612.02596	0.03199
610.74019	0.03625
609.45442	0.04187
608.16866	0.04698
606.88289	0.05051
605.59712	0.05251
604.31135	0.05338
603.02558	0.05326
601.73981	0.05204
600.45404	0.04981
599.16827	0.04705
597.88250	0.04438
596.59674	0.04222
595.31097	0.04065
594.02520	0.03954
592.73943	0.03869
591.45366	0.03798
590.16789	0.03736
588.88212	0.03690
587.59635	0.03668
586.31059	0.03676
585.02482	0.03711
583.73905	0.03769
582.45328	0.03844
581.16751	0.03923
579.88174	0.03995
578.59597	0.04052
577.31020	0.04094
576.02443	0.04132
574.73867	0.04178
573.45290	0.04249
572.16713	0.04354
570.88136	0.04490
569.59559	0.04638
568.30982	0.04774
567.02405	0.04876
565.73828	0.04926
564.45251	0.04924
563.16675	0.04885
561.88098	0.04829
560.59521	0.04771
559.30944	0.04709
558.02367	0.04636
556.73790	0.04555
555.45213	0.04475
554.16636	0.04405
552.88060	0.04347
551.59483	0.04301
550.30906	0.04267
549.02329	0.04243
547.73752	0.04224
546.45175	0.04202
545.16598	0.04172
543.88021	0.04130
542.59444	0.04082
541.30868	0.04035
540.02291	0.03995
538.73714	0.03964
537.45137	0.03940
536.16560	0.03919
534.87983	0.03897
533.59406	0.03875
532.30829	0.03852
531.02253	0.03831
529.73676	0.03816
528.45099	0.03807
527.16522	0.03800
525.87945	0.03786
524.59368	0.03762
523.30791	0.03728
522.02214	0.03691
520.73637	0.03657
519.45061	0.03632
518.16484	0.03613
516.87907	0.03595
515.59330	0.03574
514.30753	0.03549
513.02176	0.03519
511.73599	0.03485
510.45022	0.03452
509.16446	0.03422
507.87869	0.03393
506.59292	0.03362
505.30715	0.03326
504.02138	0.03286
502.73561	0.03243
501.44984	0.03198
500.16407	0.03152
498.87830	0.03105
497.59254	0.03060
496.30677	0.03020
495.02100	0.02989
493.73523	0.02968
492.44946	0.02953
491.16369	0.02939
489.87792	0.02922
488.59215	0.02899
487.30639	0.02870
486.02062	0.02840
484.73485	0.02813
483.44908	0.02791
482.16331	0.02768
480.87754	0.02741
479.59177	0.02715
478.30600	0.02697
477.02023	0.02685
475.73447	0.02677
474.44870	0.02668
473.16293	0.02658
471.87716	0.02653
470.59139	0.02658
469.30562	0.02671
468.01985	0.02681
466.73408	0.02677
465.44832	0.02658
464.16255	0.02626
462.87678	0.02592
461.59101	0.02561
460.30524	0.02539
459.01947	0.02522
457.73370	0.02503
456.44793	0.02484
455.16216	0.02465
453.87640	0.02448
452.59063	0.02428
451.30486	0.02404
450.01909	0.02378
448.73332	0.02356
447.44755	0.02338
446.16178	0.02324
444.87601	0.02309
443.59025	0.02289
442.30448	0.02265
441.01871	0.02244
439.73294	0.02232
438.44717	0.02232
437.16140	0.02239
435.87563	0.02246
434.58986	0.02249
433.30409	0.02245
432.01833	0.02235
430.73256	0.02220
429.44679	0.02203
428.16102	0.02190
426.87525	0.02184
425.58948	0.02182
424.30371	0.02179
423.01794	0.02171
421.73218	0.02158
420.44641	0.02142
419.16064	0.02127
417.87487	0.02116
416.58910	0.02106
415.30333	0.02096
414.01756	0.02085
412.73179	0.02074
411.44602	0.02066
410.16026	0.02057
408.87449	0.02048
407.58872	0.02037
406.30295	0.02028
405.01718	0.02020
403.73141	0.02012
402.44564	0.01999
401.15987	0.01983
399.87411	0.01966
