3997.45528	0.00198
3996.16951	0.00129
3994.88374	0.00095
3993.59798	0.00107
3992.31221	0.00147
3991.02644	0.00192
3989.74067	0.00238
3988.45490	0.00298
3987.16913	0.00368
3985.88336	0.00428
3984.59759	0.00447
3983.31183	0.00414
3982.02606	0.00345
3980.74029	0.00275
3979.45452	0.00237
3978.16875	0.00238
3976.88298	0.00262
3975.59721	0.00294
3974.31144	0.00327
3973.02567	0.00358
3971.73991	0.00386
3970.45414	0.00406
3969.16837	0.00423
3967.88260	0.00436
3966.59683	0.00438
3965.31106	0.00416
3964.02529	0.00366
3962.73952	0.00291
3961.45376	0.00208
3960.16799	0.00148
3958.88222	0.00133
3957.59645	0.00160
3956.31068	0.00195
3955.02491	0.00202
3953.73914	0.00179
3952.45337	0.00159
3951.16760	0.00177
3949.88184	0.00231
3948.59607	0.00292
3947.31030	0.00338
3946.02453	0.00367
3944.73876	0.00394
3943.45299	0.00424
3942.16722	0.00446
3940.88145	0.00445
3939.59569	0.00419
3938.30992	0.00382
3937.02415	0.00348
3935.73838	0.00320
3934.45261	0.00296
3933.16684	0.00268
3931.88107	0.00238
3930.59530	0.00215
3929.30953	0.00215
3928.02377	0.00249
3926.73800	0.00304
3925.45223	0.00359
3924.16646	0.00396
3922.88069	0.00406
3921.59492	0.00385
3920.30915	0.00331
3919.02338	0.00256
3917.73762	0.00182
3916.45185	0.00127
3915.16608	0.00107
3913.88031	0.00127
3912.59454	0.00184
3911.30877	0.00258
3910.02300	0.00320
3908.73723	0.00347
3907.45146	0.00337
3906.16570	0.00311
3904.87993	0.00294
3903.59416	0.00294
3902.30839	0.00294
3901.02262	0.00275
3899.73685	0.00242
3898.45108	0.00216
3897.16531	0.00213
3895.87955	0.00222
3894.59378	0.00226
3893.30801	0.00224
3892.02224	0.00229
3890.73647	0.00246
3889.45070	0.00261
3888.16493	0.00263
3886.87916	0.00255
3885.59339	0.00251
3884.30763	0.00251
3883.02186	0.00240
3881.73609	0.00205
3880.45032	0.00153
3879.16455	0.00109
3877.87878	0.00096
3876.59301	0.00121
3875.30724	0.00175
3874.02148	0.00236
3872.73571	0.00281
3871.44994	0.00298
3870.16417	0.00294
3868.87840	0.00279
3867.59263	0.00258
3866.30686	0.00233
3865.02109	0.00203
3863.73532	0.00180
3862.44956	0.00181
3861.16379	0.00207
3859.87802	0.00242
3858.59225	0.00263
3857.30648	0.00265
3856.02071	0.00264
3854.73494	0.00271
3853.44917	0.00279
3852.16341	0.00281
3850.87764	0.00278
3849.59187	0.00277
3848.30610	0.00278
3847.02033	0.00282
3845.73456	0.00295
3844.44879	0.00316
3843.16302	0.00333
3841.87725	0.00326
3840.59149	0.00297
3839.30572	0.00276
3838.01995	0.00291
3836.73418	0.00339
3835.44841	0.00385
3834.16264	0.00397
3832.87687	0.00370
3831.59110	0.00315
3830.30534	0.00255
3829.01957	0.00218
3827.73380	0.00229
3826.44803	0.00277
3825.16226	0.00315
3823.87649	0.00306
3822.59072	0.00252
3821.30495	0.00186
3820.01918	0.00143
3818.73342	0.00148
3817.44765	0.00206
3816.16188	0.00300
3814.87611	0.00386
3813.59034	0.00420
3812.30457	0.00387
3811.01880	0.00307
3809.73303	0.00219
3808.44726	0.00164
3807.16150	0.00162
3805.87573	0.00204
3804.58996	0.00261
3803.30419	0.00317
3802.01842	0.00367
3800.73265	0.00398
3799.44688	0.00391
3798.16111	0.00352
3796.87535	0.00322
3795.58958	0.00338
3794.30381	0.00392
3793.01804	0.00445
3791.73227	0.00465
3790.44650	0.00448
3789.16073	0.00410
3787.87496	0.00373
3786.58919	0.00346
3785.30343	0.00316
3784.01766	0.00269
3782.73189	0.00219
3781.44612	0.00203
3780.16035	0.00248
3778.87458	0.00337
3777.58881	0.00426
3776.30304	0.00474
3775.01728	0.00467
3773.73151	0.00422
3772.44574	0.00369
3771.15997	0.00330
3769.87420	0.00307
3768.58843	0.00298
3767.30266	0.00306
3766.01689	0.00337
3764.73112	0.00377
3763.44536	0.00395
3762.15959	0.00369
3760.87382	0.00300
3759.58805	0.00209
3758.30228	0.00123
3757.01651	0.00067
3755.73074	0.00058
3754.44497	0.00092
3753.15921	0.00150
3751.87344	0.00211
3750.58767	0.00257
3749.30190	0.00286
3748.01613	0.00302
3746.73036	0.00312
3745.44459	0.00309
3744.15882	0.00283
3742.87305	0.00237
3741.58729	0.00197
3740.30152	0.00188
3739.01575	0.00219
3737.72998	0.00275
3736.44421	0.00333
3735.15844	0.00380
3733.87267	0.00416
3732.58690	0.00447
3731.30114	0.00468
3730.01537	0.00458
3728.72960	0.00411
3727.44383	0.00355
3726.15806	0.00324
3724.87229	0.00323
3723.58652	0.00325
3722.30075	0.00305
3721.01498	0.00270
3719.72922	0.00245
3718.44345	0.00242
3717.15768	0.00243
3715.87191	0.00219
3714.58614	0.00174
3713.30037	0.00157
3712.01460	0.00215
3710.72883	0.00339
3709.44307	0.00455
3708.15730	0.00489
3706.87153	0.00416
3705.58576	0.00284
3704.29999	0.00172
3703.01422	0.00137
3701.72845	0.00181
3700.44268	0.00255
3699.15691	0.00303
3697.87115	0.00315
3696.58538	0.00319
3695.29961	0.00328
3694.01384	0.00333
3692.72807	0.00326
3691.44230	0.00314
3690.15653	0.00312
3688.87076	0.00338
3687.58500	0.00384
3686.29923	0.00422
3685.01346	0.00435
3683.72769	0.00426
3682.44192	0.00394
3681.15615	0.00347
3679.87038	0.00294
3678.58461	0.00249
3677.29884	0.00230
3676.01308	0.00244
3674.72731	0.00287
3673.44154	0.00342
3672.15577	0.00390
3670.87000	0.00422
3669.58423	0.00438
3668.29846	0.00436
3667.01269	0.00412
3665.72693	0.00372
3664.44116	0.00335
3663.15539	0.00316
3661.86962	0.00315
3660.58385	0.00321
3659.29808	0.00338
3658.01231	0.00373
3656.72654	0.00421
3655.44077	0.00460
3654.15501	0.00475
3652.86924	0.00467
3651.58347	0.00443
3650.29770	0.00415
3649.01193	0.00397
3647.72616	0.00401
3646.44039	0.00433
3645.15462	0.00482
3643.86886	0.00533
3642.58309	0.00572
3641.29732	0.00590
3640.01155	0.00588
3638.72578	0.00577
3637.44001	0.00573
3636.15424	0.00579
3634.86847	0.00585
3633.58270	0.00578
3632.29694	0.00565
3631.01117	0.00565
3629.72540	0.00590
3628.43963	0.00625
3627.15386	0.00641
3625.86809	0.00624
3624.58232	0.00587
3623.29655	0.00556
3622.01079	0.00548
3620.72502	0.00563
3619.43925	0.00593
3618.15348	0.00624
3616.86771	0.00641
3615.58194	0.00630
3614.29617	0.00589
3613.01040	0.00530
3611.72463	0.00489
3610.43887	0.00497
3609.15310	0.00557
3607.86733	0.00630
3606.58156	0.00675
3605.29579	0.00684
3604.01002	0.00674
3602.72425	0.00668
3601.43848	0.00676
3600.15272	0.00698
3598.86695	0.00727
3597.58118	0.00757
3596.29541	0.00790
3595.00964	0.00829
3593.72387	0.00874
3592.43810	0.00919
3591.15233	0.00953
3589.86656	0.00957
3588.58080	0.00929
3587.29503	0.00896
3586.00926	0.00882
3584.72349	0.00891
3583.43772	0.00913
3582.15195	0.00943
3580.86618	0.00976
3579.58041	0.01002
3578.29464	0.01018
3577.00888	0.01036
3575.72311	0.01070
3574.43734	0.01112
3573.15157	0.01132
3571.86580	0.01112
3570.58003	0.01068
3569.29426	0.01033
3568.00849	0.01030
3566.72273	0.01060
3565.43696	0.01102
3564.15119	0.01136
3562.86542	0.01150
3561.57965	0.01145
3560.29388	0.01132
3559.00811	0.01126
3557.72234	0.01135
3556.43657	0.01161
3555.15081	0.01188
3553.86504	0.01188
3552.57927	0.01141
3551.29350	0.01068
3550.00773	0.01027
3548.72196	0.01061
3547.43619	0.01159
3546.15042	0.01268
3544.86466	0.01341
3543.57889	0.01362
3542.29312	0.01337
3541.00735	0.01282
3539.72158	0.01222
3538.43581	0.01185
3537.15004	0.01183
3535.86427	0.01206
3534.57850	0.01234
3533.29274	0.01255
3532.00697	0.01271
3530.72120	0.01282
3529.43543	0.01285
3528.14966	0.01287
3526.86389	0.01301
3525.57812	0.01341
3524.29235	0.01405
3523.00659	0.01472
3521.72082	0.01516
3520.43505	0.01525
3519.14928	0.01506
3517.86351	0.01476
3516.57774	0.01447
3515.29197	0.01423
3514.00620	0.01408
3512.72043	0.01419
3511.43467	0.01466
3510.14890	0.01532
3508.86313	0.01577
3507.57736	0.01568
3506.29159	0.01513
3505.00582	0.01462
3503.72005	0.01455
3502.43428	0.01491
3501.14852	0.01535
3499.86275	0.01560
3498.57698	0.01564
3497.29121	0.01560
3496.00544	0.01560
3494.71967	0.01567
3493.43390	0.01581
3492.14813	0.01600
3490.86236	0.01619
3489.57660	0.01634
3488.29083	0.01642
3487.00506	0.01643
3485.71929	0.01645
3484.43352	0.01660
3483.14775	0.01694
3481.86198	0.01746
3480.57621	0.01805
3479.29045	0.01862
3478.00468	0.01907
3476.71891	0.01936
3475.43314	0.01952
3474.14737	0.01957
3472.86160	0.01944
3471.57583	0.01900
3470.29006	0.01835
3469.00429	0.01782
3467.71853	0.01763
3466.43276	0.01771
3465.14699	0.01780
3463.86122	0.01781
3462.57545	0.01786
3461.28968	0.01811
3460.00391	0.01856
3458.71814	0.01904
3457.43238	0.01934
3456.14661	0.01938
3454.86084	0.01919
3453.57507	0.01884
3452.28930	0.01843
3451.00353	0.01805
3449.71776	0.01789
3448.43199	0.01806
3447.14622	0.01844
3445.86046	0.01878
3444.57469	0.01892
3443.28892	0.01898
3442.00315	0.01915
3440.71738	0.01949
3439.43161	0.01987
3438.14584	0.02011
3436.86007	0.02011
3435.57431	0.01991
3434.28854	0.01974
3433.00277	0.01977
3431.71700	0.01996
3430.43123	0.02012
3429.14546	0.02017
3427.85969	0.02024
3426.57392	0.02046
3425.28815	0.02074
3424.00239	0.02085
3422.71662	0.02072
3421.43085	0.02049
3420.14508	0.02041
3418.85931	0.02058
3417.57354	0.02089
3416.28777	0.02111
3415.00200	0.02109
3413.71624	0.02093
3412.43047	0.02090
3411.14470	0.02114
3409.85893	0.02150
3408.57316	0.02172
3407.28739	0.02168
3406.00162	0.02156
3404.71585	0.02156
3403.43008	0.02174
3402.14432	0.02198
3400.85855	0.02209
3399.57278	0.02207
3398.28701	0.02203
3397.00124	0.02204
3395.71547	0.02214
3394.42970	0.02228
3393.14393	0.02235
3391.85817	0.02237
3390.57240	0.02244
3389.28663	0.02269
3388.00086	0.02312
3386.71509	0.02355
3385.42932	0.02378
3384.14355	0.02371
3382.85778	0.02344
3381.57201	0.02321
3380.28625	0.02326
3379.00048	0.02361
3377.71471	0.02400
3376.42894	0.02412
3375.14317	0.02390
3373.85740	0.02357
3372.57163	0.02332
3371.28586	0.02321
3370.00010	0.02326
3368.71433	0.02345
3367.42856	0.02374
3366.14279	0.02409
3364.85702	0.02448
3363.57125	0.02489
3362.28548	0.02515
3360.99971	0.02506
3359.71394	0.02472
3358.42818	0.02447
3357.14241	0.02462
3355.85664	0.02511
3354.57087	0.02570
3353.28510	0.02617
3351.99933	0.02641
3350.71356	0.02635
3349.42779	0.02605
3348.14202	0.02583
3346.85626	0.02603
3345.57049	0.02670
3344.28472	0.02745
3342.99895	0.02780
3341.71318	0.02759
3340.42741	0.02706
3339.14164	0.02662
3337.85587	0.02654
3336.57011	0.02683
3335.28434	0.02734
3333.99857	0.02787
3332.71280	0.02829
3331.42703	0.02852
3330.14126	0.02861
3328.85549	0.02862
3327.56972	0.02853
3326.28395	0.02837
3324.99819	0.02820
3323.71242	0.02814
3322.42665	0.02820
3321.14088	0.02827
3319.85511	0.02820
3318.56934	0.02803
3317.28357	0.02790
3315.99780	0.02795
3314.71204	0.02819
3313.42627	0.02858
3312.14050	0.02906
3310.85473	0.02953
3309.56896	0.02983
3308.28319	0.02985
3306.99742	0.02971
3305.71165	0.02960
3304.42588	0.02966
3303.14012	0.02993
3301.85435	0.03034
3300.56858	0.03076
3299.28281	0.03101
3297.99704	0.03098
3296.71127	0.03072
3295.42550	0.03043
3294.13973	0.03023
3292.85397	0.03014
3291.56820	0.03011
3290.28243	0.03012
3288.99666	0.03021
3287.71089	0.03041
3286.42512	0.03070
3285.13935	0.03098
3283.85358	0.03115
3282.56781	0.03118
3281.28205	0.03121
3279.99628	0.03133
3278.71051	0.03152
3277.42474	0.03162
3276.13897	0.03151
3274.85320	0.03129
3273.56743	0.03109
3272.28166	0.03098
3270.99590	0.03084
3269.71013	0.03064
3268.42436	0.03043
3267.13859	0.03033
3265.85282	0.03030
3264.56705	0.03020
3263.28128	0.02996
3261.99551	0.02964
3260.70974	0.02940
3259.42398	0.02931
3258.13821	0.02932
3256.85244	0.02933
3255.56667	0.02929
3254.28090	0.02926
3252.99513	0.02932
3251.70936	0.02948
3250.42359	0.02966
3249.13783	0.02969
3247.85206	0.02948
3246.56629	0.02911
3245.28052	0.02880
3243.99475	0.02872
3242.70898	0.02877
3241.42321	0.02874
3240.13744	0.02851
3238.85167	0.02819
3237.56591	0.02799
3236.28014	0.02801
3234.99437	0.02816
3233.70860	0.02827
3232.42283	0.02822
3231.13706	0.02803
3229.85129	0.02785
3228.56552	0.02782
3227.27976	0.02796
3225.99399	0.02821
3224.70822	0.02846
3223.42245	0.02861
3222.13668	0.02874
3220.85091	0.02895
3219.56514	0.02917
3218.27937	0.02920
3216.99360	0.02895
3215.70784	0.02855
3214.42207	0.02829
3213.13630	0.02823
3211.85053	0.02826
3210.56476	0.02824
3209.27899	0.02812
3207.99322	0.02790
3206.70745	0.02762
3205.42169	0.02735
3204.13592	0.02720
3202.85015	0.02720
3201.56438	0.02728
3200.27861	0.02733
3198.99284	0.02733
3197.70707	0.02730
3196.42130	0.02719
3195.13553	0.02697
3193.84977	0.02673
3192.56400	0.02667
3191.27823	0.02686
3189.99246	0.02714
3188.70669	0.02725
3187.42092	0.02707
3186.13515	0.02669
3184.84938	0.02624
3183.56362	0.02587
3182.27785	0.02570
3180.99208	0.02583
3179.70631	0.02618
3178.42054	0.02651
3177.13477	0.02663
3175.84900	0.02651
3174.56323	0.02632
3173.27746	0.02624
3171.99170	0.02629
3170.70593	0.02631
3169.42016	0.02608
3168.13439	0.02555
3166.84862	0.02498
3165.56285	0.02466
3164.27708	0.02465
3162.99131	0.02482
3161.70555	0.02498
3160.41978	0.02509
3159.13401	0.02516
3157.84824	0.02515
3156.56247	0.02502
3155.27670	0.02481
3153.99093	0.02460
3152.70516	0.02446
3151.41939	0.02440
3150.13363	0.02443
3148.84786	0.02459
3147.56209	0.02487
3146.27632	0.02519
3144.99055	0.02538
3143.70478	0.02533
3142.41901	0.02510
3141.13324	0.02488
3139.84748	0.02470
3138.56171	0.02449
3137.27594	0.02419
3135.99017	0.02389
3134.70440	0.02368
3133.41863	0.02357
3132.13286	0.02353
3130.84709	0.02352
3129.56132	0.02354
3128.27556	0.02363
3126.98979	0.02378
3125.70402	0.02389
3124.41825	0.02388
3123.13248	0.02371
3121.84671	0.02343
3120.56094	0.02318
3119.27517	0.02304
3117.98940	0.02307
3116.70364	0.02322
3115.41787	0.02333
3114.13210	0.02325
3112.84633	0.02295
3111.56056	0.02261
3110.27479	0.02252
3108.98902	0.02284
3107.70325	0.02340
3106.41749	0.02389
3105.13172	0.02406
3103.84595	0.02391
3102.56018	0.02364
3101.27441	0.02353
3099.98864	0.02371
3098.70287	0.02411
3097.41710	0.02452
3096.13133	0.02477
3094.84557	0.02484
3093.55980	0.02481
3092.27403	0.02481
3090.98826	0.02492
3089.70249	0.02510
3088.41672	0.02520
3087.13095	0.02507
3085.84518	0.02468
3084.55942	0.02423
3083.27365	0.02396
3081.98788	0.02395
3080.70211	0.02408
3079.41634	0.02417
3078.13057	0.02417
3076.84480	0.02411
3075.55903	0.02404
3074.27326	0.02398
3072.98750	0.02398
3071.70173	0.02407
3070.41596	0.02421
3069.13019	0.02429
3067.84442	0.02420
3066.55865	0.02401
3065.27288	0.02388
3063.98711	0.02393
3062.70135	0.02411
3061.41558	0.02432
3060.12981	0.02450
3058.84404	0.02464
3057.55827	0.02468
3056.27250	0.02458
3054.98673	0.02441
3053.70096	0.02425
3052.41519	0.02413
3051.12943	0.02399
3049.84366	0.02372
3048.55789	0.02338
3047.27212	0.02312
3045.98635	0.02302
3044.70058	0.02305
3043.41481	0.02312
3042.12904	0.02323
3040.84328	0.02343
3039.55751	0.02374
3038.27174	0.02404
3036.98597	0.02420
3035.70020	0.02412
3034.41443	0.02383
3033.12866	0.02341
3031.84289	0.02301
3030.55712	0.02270
3029.27136	0.02248
3027.98559	0.02234
3026.69982	0.02227
3025.41405	0.02226
3024.12828	0.02230
3022.84251	0.02236
3021.55674	0.02243
3020.27097	0.02251
3018.98521	0.02254
3017.69944	0.02250
3016.41367	0.02241
3015.12790	0.02233
3013.84213	0.02230
3012.55636	0.02230
3011.27059	0.02229
3009.98482	0.02227
3008.69905	0.02226
3007.41329	0.02225
3006.12752	0.02223
3004.84175	0.02222
3003.55598	0.02219
3002.27021	0.02210
3000.98444	0.02189
2999.69867	0.02162
2998.41290	0.02142
2997.12714	0.02135
2995.84137	0.02142
2994.55560	0.02158
2993.26983	0.02171
2991.98406	0.02172
2990.69829	0.02160
2989.41252	0.02145
2988.12675	0.02140
2986.84098	0.02148
2985.55522	0.02164
2984.26945	0.02180
2982.98368	0.02193
2981.69791	0.02208
2980.41214	0.02227
2979.12637	0.02240
2977.84060	0.02243
2976.55483	0.02241
2975.26907	0.02250
2973.98330	0.02272
2972.69753	0.02299
2971.41176	0.02323
2970.12599	0.02345
2968.84022	0.02369
2967.55445	0.02395
2966.26868	0.02415
2964.98291	0.02428
2963.69715	0.02437
2962.41138	0.02444
2961.12561	0.02446
2959.83984	0.02441
2958.55407	0.02433
2957.26830	0.02431
2955.98253	0.02434
2954.69676	0.02432
2953.41100	0.02419
2952.12523	0.02406
2950.83946	0.02405
2949.55369	0.02417
2948.26792	0.02429
2946.98215	0.02429
2945.69638	0.02415
2944.41061	0.02393
2943.12484	0.02369
2941.83908	0.02352
2940.55331	0.02347
2939.26754	0.02355
2937.98177	0.02379
2936.69600	0.02414
2935.41023	0.02446
2934.12446	0.02454
2932.83869	0.02433
2931.55293	0.02404
2930.26716	0.02394
2928.98139	0.02413
2927.69562	0.02443
2926.40985	0.02465
2925.12408	0.02472
2923.83831	0.02469
2922.55254	0.02468
2921.26677	0.02475
2919.98101	0.02487
2918.69524	0.02492
2917.40947	0.02481
2916.12370	0.02455
2914.83793	0.02427
2913.55216	0.02405
2912.26639	0.02386
2910.98062	0.02361
2909.69486	0.02329
2908.40909	0.02297
2907.12332	0.02270
2905.83755	0.02252
2904.55178	0.02242
2903.26601	0.02244
2901.98024	0.02253
2900.69447	0.02256
2899.40870	0.02246
2898.12294	0.02226
2896.83717	0.02207
2895.55140	0.02198
2894.26563	0.02195
2892.97986	0.02192
2891.69409	0.02183
2890.40832	0.02171
2889.12255	0.02166
2887.83678	0.02180
2886.55102	0.02213
2885.26525	0.02244
2883.97948	0.02254
2882.69371	0.02238
2881.40794	0.02211
2880.12217	0.02187
2878.83640	0.02173
2877.55063	0.02163
2876.26487	0.02154
2874.97910	0.02150
2873.69333	0.02160
2872.40756	0.02186
2871.12179	0.02219
2869.83602	0.02239
2868.55025	0.02233
2867.26448	0.02204
2865.97871	0.02170
2864.69295	0.02155
2863.40718	0.02159
2862.12141	0.02164
2860.83564	0.02150
2859.54987	0.02120
2858.26410	0.02091
2856.97833	0.02076
2855.69256	0.02076
2854.40680	0.02080
2853.12103	0.02079
2851.83526	0.02070
2850.54949	0.02058
2849.26372	0.02054
2847.97795	0.02064
2846.69218	0.02081
2845.40641	0.02085
2844.12064	0.02063
2842.83488	0.02027
2841.54911	0.02003
2840.26334	0.02004
2838.97757	0.02023
2837.69180	0.02035
2836.40603	0.02032
2835.12026	0.02024
2833.83449	0.02023
2832.54873	0.02030
2831.26296	0.02038
2829.97719	0.02042
2828.69142	0.02042
2827.40565	0.02033
2826.11988	0.02007
2824.83411	0.01965
2823.54834	0.01920
2822.26257	0.01888
2820.97681	0.01872
2819.69104	0.01872
2818.40527	0.01882
2817.11950	0.01896
2815.83373	0.01901
2814.54796	0.01888
2813.26219	0.01867
2811.97642	0.01857
2810.69066	0.01869
2809.40489	0.01892
2808.11912	0.01910
2806.83335	0.01914
2805.54758	0.01906
2804.26181	0.01892
2802.97604	0.01874
2801.69027	0.01860
2800.40450	0.01856
2799.11874	0.01859
2797.83297	0.01857
2796.54720	0.01840
2795.26143	0.01814
2793.97566	0.01797
2792.68989	0.01801
2791.40412	0.01820
2790.11835	0.01837
2788.83259	0.01842
2787.54682	0.01834
2786.26105	0.01821
2784.97528	0.01811
2783.68951	0.01811
2782.40374	0.01822
2781.11797	0.01840
2779.83220	0.01860
2778.54643	0.01874
2777.26067	0.01879
2775.97490	0.01876
2774.68913	0.01868
2773.40336	0.01859
2772.11759	0.01853
2770.83182	0.01847
2769.54605	0.01839
2768.26028	0.01825
2766.97452	0.01805
2765.68875	0.01789
2764.40298	0.01784
2763.11721	0.01784
2761.83144	0.01775
2760.54567	0.01755
2759.25990	0.01734
2757.97413	0.01726
2756.68836	0.01728
2755.40260	0.01728
2754.11683	0.01722
2752.83106	0.01720
2751.54529	0.01734
2750.25952	0.01760
2748.97375	0.01778
2747.68798	0.01773
2746.40221	0.01751
2745.11645	0.01726
2743.83068	0.01705
2742.54491	0.01686
2741.25914	0.01665
2739.97337	0.01645
2738.68760	0.01632
2737.40183	0.01631
2736.11606	0.01642
2734.83029	0.01658
2733.54453	0.01671
2732.25876	0.01676
2730.97299	0.01677
2729.68722	0.01679
2728.40145	0.01678
2727.11568	0.01664
2725.82991	0.01635
2724.54414	0.01606
2723.25838	0.01592
2721.97261	0.01598
2720.68684	0.01617
2719.40107	0.01637
2718.11530	0.01653
2716.82953	0.01666
2715.54376	0.01679
2714.25799	0.01687
2712.97222	0.01685
2711.68646	0.01665
2710.40069	0.01631
2709.11492	0.01592
2707.82915	0.01561
2706.54338	0.01548
2705.25761	0.01546
2703.97184	0.01546
2702.68607	0.01544
2701.40031	0.01546
2700.11454	0.01555
2698.82877	0.01568
2697.54300	0.01576
2696.25723	0.01577
2694.97146	0.01571
2693.68569	0.01564
2692.39992	0.01560
2691.11415	0.01566
2689.82839	0.01582
2688.54262	0.01600
2687.25685	0.01607
2685.97108	0.01597
2684.68531	0.01575
2683.39954	0.01555
2682.11377	0.01546
2680.82800	0.01545
2679.54224	0.01544
2678.25647	0.01541
2676.97070	0.01533
2675.68493	0.01519
2674.39916	0.01501
2673.11339	0.01481
2671.82762	0.01469
2670.54185	0.01473
2669.25608	0.01495
2667.97032	0.01523
2666.68455	0.01537
2665.39878	0.01527
2664.11301	0.01502
2662.82724	0.01480
2661.54147	0.01470
2660.25570	0.01470
2658.96993	0.01472
2657.68417	0.01474
2656.39840	0.01482
2655.11263	0.01490
2653.82686	0.01490
2652.54109	0.01473
2651.25532	0.01445
2649.96955	0.01419
2648.68378	0.01398
2647.39801	0.01381
2646.11225	0.01370
2644.82648	0.01370
2643.54071	0.01378
2642.25494	0.01386
2640.96917	0.01388
2639.68340	0.01391
2638.39763	0.01400
2637.11186	0.01411
2635.82609	0.01410
2634.54033	0.01387
2633.25456	0.01345
2631.96879	0.01301
2630.68302	0.01272
2629.39725	0.01265
2628.11148	0.01274
2626.82571	0.01291
2625.53994	0.01311
2624.25418	0.01333
2622.96841	0.01356
2621.68264	0.01377
2620.39687	0.01388
2619.11110	0.01383
2617.82533	0.01367
2616.53956	0.01351
2615.25379	0.01337
2613.96802	0.01313
2612.68226	0.01267
2611.39649	0.01209
2610.11072	0.01169
2608.82495	0.01163
2607.53918	0.01180
2606.25341	0.01197
2604.96764	0.01203
2603.68187	0.01202
2602.39611	0.01202
2601.11034	0.01202
2599.82457	0.01206
2598.53880	0.01222
2597.25303	0.01253
2595.96726	0.01280
2594.68149	0.01285
2593.39572	0.01262
2592.10995	0.01229
2590.82419	0.01203
2589.53842	0.01192
2588.25265	0.01193
2586.96688	0.01202
2585.68111	0.01214
2584.39534	0.01221
2583.10957	0.01222
2581.82380	0.01221
2580.53804	0.01217
2579.25227	0.01208
2577.96650	0.01201
2576.68073	0.01211
2575.39496	0.01241
2574.10919	0.01270
2572.82342	0.01269
2571.53765	0.01232
2570.25188	0.01186
2568.96612	0.01156
2567.68035	0.01140
2566.39458	0.01124
2565.10881	0.01114
2563.82304	0.01131
2562.53727	0.01177
2561.25150	0.01225
2559.96573	0.01248
2558.67997	0.01243
2557.39420	0.01228
2556.10843	0.01215
2554.82266	0.01204
2553.53689	0.01189
2552.25112	0.01168
2550.96535	0.01150
2549.67958	0.01141
2548.39381	0.01140
2547.10805	0.01132
2545.82228	0.01114
2544.53651	0.01100
2543.25074	0.01106
2541.96497	0.01127
2540.67920	0.01144
2539.39343	0.01150
2538.10766	0.01156
2536.82190	0.01170
2535.53613	0.01183
2534.25036	0.01178
2532.96459	0.01151
2531.67882	0.01117
2530.39305	0.01093
2529.10728	0.01082
2527.82151	0.01072
2526.53574	0.01055
2525.24998	0.01042
2523.96421	0.01041
2522.67844	0.01047
2521.39267	0.01053
2520.10690	0.01064
2518.82113	0.01092
2517.53536	0.01130
2516.24959	0.01163
2514.96383	0.01177
2513.67806	0.01163
2512.39229	0.01120
2511.10652	0.01065
2509.82075	0.01027
2508.53498	0.01021
2507.24921	0.01039
2505.96344	0.01060
2504.67767	0.01071
2503.39191	0.01082
2502.10614	0.01106
2500.82037	0.01141
2499.53460	0.01163
2498.24883	0.01148
2496.96306	0.01099
2495.67729	0.01053
2494.39152	0.01040
2493.10576	0.01062
2491.81999	0.01092
2490.53422	0.01102
2489.24845	0.01079
2487.96268	0.01020
2486.67691	0.00942
2485.39114	0.00882
2484.10537	0.00871
2482.81960	0.00902
2481.53384	0.00946
2480.24807	0.00976
2478.96230	0.00998
2477.67653	0.01028
2476.39076	0.01075
2475.10499	0.01135
2473.81922	0.01189
2472.53345	0.01210
2471.24769	0.01180
2469.96192	0.01123
2468.67615	0.01084
2467.39038	0.01093
2466.10461	0.01129
2464.81884	0.01151
2463.53307	0.01138
2462.24730	0.01105
2460.96153	0.01072
2459.67577	0.01051
2458.39000	0.01044
2457.10423	0.01053
2455.81846	0.01076
2454.53269	0.01096
2453.24692	0.01099
2451.96115	0.01082
2450.67538	0.01067
2449.38962	0.01078
2448.10385	0.01115
2446.81808	0.01158
2445.53231	0.01180
2444.24654	0.01172
2442.96077	0.01147
2441.67500	0.01122
2440.38923	0.01109
2439.10346	0.01102
2437.81770	0.01097
2436.53193	0.01097
2435.24616	0.01103
2433.96039	0.01112
2432.67462	0.01121
2431.38885	0.01131
2430.10308	0.01144
2428.81731	0.01154
2427.53155	0.01154
2426.24578	0.01142
2424.96001	0.01118
2423.67424	0.01096
2422.38847	0.01086
2421.10270	0.01091
2419.81693	0.01094
2418.53116	0.01085
2417.24539	0.01067
2415.95963	0.01054
2414.67386	0.01053
2413.38809	0.01059
2412.10232	0.01064
2410.81655	0.01065
2409.53078	0.01057
2408.24501	0.01038
2406.95924	0.01011
2405.67347	0.00992
2404.38771	0.00998
2403.10194	0.01026
2401.81617	0.01055
2400.53040	0.01062
2399.24463	0.01022
2397.95886	0.01000
2396.67309	0.00986
2395.38732	0.00975
2394.10156	0.00965
2392.81579	0.00961
2391.53002	0.00972
2390.24425	0.01003
2388.95848	0.01045
2387.67271	0.01079
2386.38694	0.01090
2385.10117	0.01080
2383.81540	0.01061
2382.52964	0.01041
2381.24387	0.01026
2379.95810	0.01023
2378.67233	0.01034
2377.38656	0.01058
2376.10079	0.01086
2374.81502	0.01106
2373.52925	0.01120
2372.24349	0.01134
2370.95772	0.01154
2369.67195	0.01166
2368.38618	0.01167
2367.10041	0.01161
2365.81464	0.01166
2364.52887	0.01167
2363.24310	0.01170
2361.95733	0.01188
2360.67157	0.01239
2359.38580	0.01282
2358.10003	0.01297
2356.81426	0.01281
2355.52849	0.01242
2354.24272	0.01197
2352.95695	0.01162
2351.67118	0.01158
2350.38542	0.01169
2349.09965	0.01153
2347.81388	0.01112
2346.52811	0.01112
2345.24234	0.01155
2343.95657	0.01177
2342.67080	0.01164
2341.38503	0.01201
2340.09926	0.01285
2338.81350	0.01272
2337.52773	0.01164
2336.24196	0.01153
2334.95619	0.01216
2333.67042	0.01164
2332.38465	0.01043
2331.09888	0.01065
2329.81311	0.01089
2328.52735	0.00971
2327.24158	0.00958
2325.95581	0.01028
2324.67004	0.01007
2323.38427	0.01036
2322.09850	0.01132
2320.81273	0.01125
2319.52696	0.01147
2318.24119	0.01186
2316.95543	0.01146
2315.66966	0.01129
2314.38389	0.01128
2313.09812	0.01101
2311.81235	0.01103
2310.52658	0.01086
2309.24081	0.01054
2307.95504	0.01032
2306.66928	0.00995
2305.38351	0.00974
2304.09774	0.00963
2302.81197	0.00953
2301.52620	0.00946
2300.24043	0.00919
2298.95466	0.00885
2297.66889	0.00859
2296.38312	0.00857
2295.09736	0.00870
2293.81159	0.00871
2292.52582	0.00854
2291.24005	0.00833
2289.95428	0.00830
2288.66851	0.00846
2287.38274	0.00865
2286.09697	0.00875
2284.81121	0.00876
2283.52544	0.00877
2282.23967	0.00883
2280.95390	0.00896
2279.66813	0.00908
2278.38236	0.00909
2277.09659	0.00896
2275.81082	0.00877
2274.52505	0.00860
2273.23929	0.00843
2271.95352	0.00824
2270.66775	0.00802
2269.38198	0.00776
2268.09621	0.00746
2266.81044	0.00722
2265.52467	0.00720
2264.23890	0.00743
2262.95314	0.00779
2261.66737	0.00807
2260.38160	0.00816
2259.09583	0.00807
2257.81006	0.00794
2256.52429	0.00785
2255.23852	0.00785
2253.95275	0.00798
2252.66698	0.00816
2251.38122	0.00828
2250.09545	0.00824
2248.80968	0.00782
2247.52391	0.00685
2246.23814	0.00611
2244.95237	0.00588
2243.66660	0.00608
2242.38083	0.00645
2241.09507	0.00678
2239.80930	0.00696
2238.52353	0.00704
2237.23776	0.00722
2235.95199	0.00762
2234.66622	0.00805
2233.38045	0.00814
2232.09468	0.00780
2230.80891	0.00738
2229.52315	0.00727
2228.23738	0.00748
2226.95161	0.00764
2225.66584	0.00745
2224.38007	0.00695
2223.09430	0.00638
2221.80853	0.00589
2220.52276	0.00548
2219.23700	0.00521
2217.95123	0.00520
2216.66546	0.00549
2215.37969	0.00587
2214.09392	0.00611
2212.80815	0.00617
2211.52238	0.00625
2210.23661	0.00655
2208.95084	0.00700
2207.66508	0.00718
2206.37931	0.00668
2205.09354	0.00548
2203.80777	0.00418
2202.52200	0.00349
2201.23623	0.00358
2199.95046	0.00391
2198.66469	0.00394
2197.37893	0.00369
2196.09316	0.00346
2194.80739	0.00328
2193.52162	0.00292
2192.23585	0.00242
2190.95008	0.00219
2189.66431	0.00258
2188.37854	0.00352
2187.09277	0.00452
2185.80701	0.00513
2184.52124	0.00532
2183.23547	0.00547
2181.94970	0.00590
2180.66393	0.00639
2179.37816	0.00647
2178.09239	0.00601
2176.80662	0.00531
2175.52085	0.00477
2174.23509	0.00457
2172.94932	0.00451
2171.66355	0.00417
2170.37778	0.00325
2169.09201	0.00193
2167.80624	0.00081
2166.52047	0.00043
2165.23470	0.00086
2163.94894	0.00179
2162.66317	0.00273
2161.37740	0.00319
2160.09163	0.00299
2158.80586	0.00251
2157.52009	0.00234
2156.23432	0.00261
2154.94855	0.00298
2153.66278	0.00325
2152.37702	0.00346
2151.09125	0.00369
2149.80548	0.00391
2148.51971	0.00406
2147.23394	0.00418
2145.94817	0.00432
2144.66240	0.00445
2143.37663	0.00446
2142.09087	0.00438
2140.80510	0.00439
2139.51933	0.00463
2138.23356	0.00498
2136.94779	0.00509
2135.66202	0.00484
2134.37625	0.00450
2133.09048	0.00444
2131.80471	0.00468
2130.51895	0.00497
2129.23318	0.00514
2127.94741	0.00522
2126.66164	0.00542
2125.37587	0.00581
2124.09010	0.00624
2122.80433	0.00635
2121.51856	0.00596
2120.23280	0.00537
2118.94703	0.00509
2117.66126	0.00534
2116.37549	0.00581
2115.08972	0.00604
2113.80395	0.00590
2112.51818	0.00557
2111.23241	0.00523
2109.94664	0.00493
2108.66088	0.00475
2107.37511	0.00481
2106.08934	0.00510
2104.80357	0.00542
2103.51780	0.00561
2102.23203	0.00571
2100.94626	0.00598
2099.66049	0.00946
2098.37473	0.01115
2097.08896	0.01100
2095.80319	0.01009
2094.51742	0.00878
2093.23165	0.00735
2091.94588	0.00614
2090.66011	0.00531
2089.37434	0.00486
2088.08857	0.00466
2086.80281	0.00467
2085.51704	0.00489
2084.23127	0.00527
2082.94550	0.00570
2081.65973	0.00606
2080.37396	0.00635
2079.08819	0.00672
2077.80242	0.00735
2076.51666	0.00814
2075.23089	0.00874
2073.94512	0.00888
2072.65935	0.00863
2071.37358	0.00836
2070.08781	0.00836
2068.80204	0.00856
2067.51627	0.00863
2066.23050	0.00825
2064.94474	0.00751
2063.65897	0.00673
2062.37320	0.00613
2061.08743	0.00556
2059.80166	0.00474
2058.51589	0.00364
2057.23012	0.00261
2055.94435	0.00195
2054.65859	0.00168
2053.37282	0.00181
2052.08705	0.00255
2050.80128	0.00401
2049.51551	0.00571
2048.22974	0.00695
2046.94397	0.00749
2045.65820	0.00764
2044.37243	0.00779
2043.08667	0.00808
2041.80090	0.00847
2040.51513	0.00893
2039.22936	0.00930
2037.94359	0.00938
2036.65782	0.00913
2035.37205	0.00882
2034.08628	0.00882
2032.80052	0.00923
2031.51475	0.00968
2030.22898	0.00980
2028.94321	0.00950
2027.65744	0.00890
2026.37167	0.00798
2025.08590	0.00675
2023.80013	0.00563
2022.51436	0.00524
2021.22860	0.00572
2019.94283	0.00658
2018.65706	0.00719
2017.37129	0.00730
2016.08552	0.00707
2014.79975	0.00676
2013.51398	0.00661
2012.22821	0.00686
2010.94245	0.00761
2009.65668	0.00872
2008.37091	0.00986
2007.08514	0.01064
2005.79937	0.01070
2004.51360	0.00989
2003.22783	0.00836
2001.94206	0.00650
2000.65629	0.00482
1999.37053	0.00377
1998.08476	0.00348
1996.79899	0.00372
1995.51322	0.00402
1994.22745	0.00411
1992.94168	0.00399
1991.65591	0.00378
1990.37014	0.00349
1989.08438	0.00309
1987.79861	0.00277
1986.51284	0.00285
1985.22707	0.00351
1983.94130	0.00476
1982.65553	0.00661
1981.36976	0.00900
1980.08399	0.01161
1978.79822	0.01385
1977.51246	0.01505
1976.22669	0.01500
1974.94092	0.01415
1973.65515	0.01332
1972.36938	0.01291
1971.08361	0.01262
1969.79784	0.01184
1968.51207	0.01042
1967.22631	0.00897
1965.94054	0.00831
1964.65477	0.00875
1963.36900	0.00985
1962.08323	0.01088
1960.79746	0.01138
1959.51169	0.01122
1958.22592	0.01037
1956.94015	0.00893
1955.65439	0.00733
1954.36862	0.00631
1953.08285	0.00627
1951.79708	0.00691
1950.51131	0.00756
1949.22554	0.00785
1947.93977	0.00790
1946.65400	0.00792
1945.36823	0.00795
1944.08247	0.00796
1942.79670	0.00804
1941.51093	0.00832
1940.22516	0.00879
1938.93939	0.00936
1937.65362	0.00993
1936.36785	0.01042
1935.08208	0.01065
1933.79632	0.01047
1932.51055	0.00989
1931.22478	0.00912
1929.93901	0.00843
1928.65324	0.00804
1927.36747	0.00801
1926.08170	0.00821
1924.79593	0.00840
1923.51016	0.00842
1922.22440	0.00826
1920.93863	0.00809
1919.65286	0.00807
1918.36709	0.00828
1917.08132	0.00865
1915.79555	0.00905
1914.50978	0.00930
1913.22401	0.00936
1911.93825	0.00926
1910.65248	0.00908
1909.36671	0.00889
1908.08094	0.00874
1906.79517	0.00868
1905.50940	0.00877
1904.22363	0.00904
1902.93786	0.00949
1901.65209	0.01005
1900.36633	0.01048
1899.08056	0.01056
1897.79479	0.01028
1896.50902	0.00987
1895.22325	0.00958
1893.93748	0.00945
1892.65171	0.00933
1891.36594	0.00910
1890.08018	0.00874
1888.79441	0.00837
1887.50864	0.00808
1886.22287	0.00797
1884.93710	0.00807
1883.65133	0.00833
1882.36556	0.00862
1881.07979	0.00879
1879.79402	0.00880
1878.50826	0.00873
1877.22249	0.00871
1875.93672	0.00875
1874.65095	0.00880
1873.36518	0.00886
1872.07941	0.00889
1870.79364	0.00881
1869.50787	0.00858
1868.22211	0.00832
1866.93634	0.00824
1865.65057	0.00841
1864.36480	0.00870
1863.07903	0.00889
1861.79326	0.00889
1860.50749	0.00871
1859.22172	0.00843
1857.93595	0.00813
1856.65019	0.00793
1855.36442	0.00787
1854.07865	0.00792
1852.79288	0.00802
1851.50711	0.00809
1850.22134	0.00807
1848.93557	0.00795
1847.64980	0.00780
1846.36404	0.00769
1845.07827	0.00771
1843.79250	0.00778
1842.50673	0.00780
1841.22096	0.00771
1839.93519	0.00759
1838.64942	0.00756
1837.36365	0.00765
1836.07788	0.00777
1834.79212	0.00777
1833.50635	0.00760
1832.22058	0.00739
1830.93481	0.00737
1829.64904	0.00764
1828.36327	0.00810
1827.07750	0.00855
1825.79173	0.00890
1824.50597	0.00920
1823.22020	0.00956
1821.93443	0.00998
1820.64866	0.01034
1819.36289	0.01044
1818.07712	0.01012
1816.79135	0.00943
1815.50558	0.00854
1814.21981	0.00770
1812.93405	0.00707
1811.64828	0.00669
1810.36251	0.00654
1809.07674	0.00657
1807.79097	0.00670
1806.50520	0.00685
1805.21943	0.00699
1803.93366	0.00713
1802.64790	0.00728
1801.36213	0.00743
1800.07636	0.00756
1798.79059	0.00767
1797.50482	0.00773
1796.21905	0.00774
1794.93328	0.00770
1793.64751	0.00768
1792.36174	0.00774
1791.07598	0.00788
1789.79021	0.00803
1788.50444	0.00815
1787.21867	0.00823
1785.93290	0.00828
1784.64713	0.00831
1783.36136	0.00831
1782.07559	0.00826
1780.78983	0.00819
1779.50406	0.00813
1778.21829	0.00810
1776.93252	0.00808
1775.64675	0.00800
1774.36098	0.00787
1773.07521	0.00772
1771.78944	0.00760
1770.50367	0.00753
1769.21791	0.00748
1767.93214	0.00742
1766.64637	0.00736
1765.36060	0.00734
1764.07483	0.00739
1762.78906	0.00747
1761.50329	0.00749
1760.21752	0.00743
1758.93176	0.00737
1757.64599	0.00736
1756.36022	0.00740
1755.07445	0.00742
1753.78868	0.00738
1752.50291	0.00731
1751.21714	0.00729
1749.93137	0.00734
1748.64560	0.00742
1747.35984	0.00749
1746.07407	0.00758
1744.78830	0.00766
1743.50253	0.00774
1742.21676	0.00779
1740.93099	0.00784
1739.64522	0.00790
1738.35945	0.00795
1737.07369	0.00795
1735.78792	0.00794
1734.50215	0.00796
1733.21638	0.00803
1731.93061	0.00809
1730.64484	0.00808
1729.35907	0.00798
1728.07330	0.00787
1726.78753	0.00784
1725.50177	0.00791
1724.21600	0.00804
1722.93023	0.00816
1721.64446	0.00823
1720.35869	0.00826
1719.07292	0.00834
1717.78715	0.00850
1716.50138	0.00872
1715.21561	0.00891
1713.92985	0.00906
1712.64408	0.00918
1711.35831	0.00936
1710.07254	0.00966
1708.78677	0.01005
1707.50100	0.01049
1706.21523	0.01091
1704.92946	0.01130
1703.64370	0.01167
1702.35793	0.01209
1701.07216	0.01258
1699.78639	0.01310
1698.50062	0.01360
1697.21485	0.01410
1695.92908	0.01465
1694.64331	0.01526
1693.35754	0.01587
1692.07178	0.01644
1690.78601	0.01694
1689.50024	0.01740
1688.21447	0.01787
1686.92870	0.01838
1685.64293	0.01896
1684.35716	0.01958
1683.07139	0.02019
1681.78563	0.02076
1680.49986	0.02137
1679.21409	0.02204
1677.92832	0.02278
1676.64255	0.02354
1675.35678	0.02426
1674.07101	0.02494
1672.78524	0.02556
1671.49947	0.02616
1670.21371	0.02676
1668.92794	0.02738
1667.64217	0.02797
1666.35640	0.02853
1665.07063	0.02906
1663.78486	0.02962
1662.49909	0.03021
1661.21332	0.03076
1659.92756	0.03125
1658.64179	0.03163
1657.35602	0.03192
1656.07025	0.03218
1654.78448	0.03247
1653.49871	0.03282
1652.21294	0.03319
1650.92717	0.03349
1649.64140	0.03371
1648.35564	0.03393
1647.06987	0.03423
1645.78410	0.03456
1644.49833	0.03480
1643.21256	0.03490
1641.92679	0.03489
1640.64102	0.03486
1639.35525	0.03489
1638.06949	0.03498
1636.78372	0.03512
1635.49795	0.03526
1634.21218	0.03535
1632.92641	0.03535
1631.64064	0.03527
1630.35487	0.03512
1629.06910	0.03490
1627.78333	0.03461
1626.49757	0.03426
1625.21180	0.03388
1623.92603	0.03348
1622.64026	0.03304
1621.35449	0.03252
1620.06872	0.03194
1618.78295	0.03137
1617.49718	0.03086
1616.21142	0.03040
1614.92565	0.02990
1613.63988	0.02934
1612.35411	0.02872
1611.06834	0.02807
1609.78257	0.02742
1608.49680	0.02680
1607.21103	0.02624
1605.92526	0.02578
1604.63950	0.02540
1603.35373	0.02505
1602.06796	0.02467
1600.78219	0.02427
1599.49642	0.02391
1598.21065	0.02357
1596.92488	0.02325
1595.63911	0.02295
1594.35335	0.02268
1593.06758	0.02250
1591.78181	0.02238
1590.49604	0.02231
1589.21027	0.02224
1587.92450	0.02218
1586.63873	0.02213
1585.35296	0.02207
1584.06719	0.02200
1582.78143	0.02192
1581.49566	0.02184
1580.20989	0.02177
1578.92412	0.02174
1577.63835	0.02179
1576.35258	0.02195
1575.06681	0.02217
1573.78104	0.02241
1572.49528	0.02264
1571.20951	0.02290
1569.92374	0.02319
1568.63797	0.02349
1567.35220	0.02375
1566.06643	0.02397
1564.78066	0.02414
1563.49489	0.02431
1562.20912	0.02449
1560.92336	0.02476
1559.63759	0.02516
1558.35182	0.02563
1557.06605	0.02611
1555.78028	0.02650
1554.49451	0.02683
1553.20874	0.02711
1551.92297	0.02741
1550.63721	0.02769
1549.35144	0.02796
1548.06567	0.02819
1546.77990	0.02840
1545.49413	0.02859
1544.20836	0.02874
1542.92259	0.02885
1541.63682	0.02896
1540.35105	0.02909
1539.06529	0.02922
1537.77952	0.02934
1536.49375	0.02944
1535.20798	0.02953
1533.92221	0.02960
1532.63644	0.02965
1531.35067	0.02965
1530.06490	0.02961
1528.77914	0.02955
1527.49337	0.02950
1526.20760	0.02946
1524.92183	0.02944
1523.63606	0.02943
1522.35029	0.02944
1521.06452	0.02942
1519.77875	0.02936
1518.49298	0.02924
1517.20722	0.02908
1515.92145	0.02890
1514.63568	0.02871
1513.34991	0.02851
1512.06414	0.02831
1510.77837	0.02810
1509.49260	0.02784
1508.20683	0.02753
1506.92107	0.02719
1505.63530	0.02684
1504.34953	0.02649
1503.06376	0.02610
1501.77799	0.02566
1500.49222	0.02522
1499.20645	0.02480
1497.92068	0.02440
1496.63491	0.02401
1495.34915	0.02362
1494.06338	0.02322
1492.77761	0.02280
1491.49184	0.02239
1490.20607	0.02200
1488.92030	0.02164
1487.63453	0.02128
1486.34876	0.02095
1485.06299	0.02065
1483.77723	0.02039
1482.49146	0.02018
1481.20569	0.02001
1479.91992	0.01991
1478.63415	0.01986
1477.34838	0.01985
1476.06261	0.01988
1474.77684	0.01995
1473.49108	0.02009
1472.20531	0.02027
1470.91954	0.02044
1469.63377	0.02061
1468.34800	0.02079
1467.06223	0.02103
1465.77646	0.02131
1464.49069	0.02163
1463.20492	0.02198
1461.91916	0.02233
1460.63339	0.02269
1459.34762	0.02305
1458.06185	0.02342
1456.77608	0.02378
1455.49031	0.02408
1454.20454	0.02431
1452.91877	0.02447
1451.63301	0.02461
1450.34724	0.02474
1449.06147	0.02480
1447.77570	0.02474
1446.48993	0.02455
1445.20416	0.02430
1443.91839	0.02406
1442.63262	0.02388
1441.34685	0.02373
1440.06109	0.02358
1438.77532	0.02339
1437.48955	0.02317
1436.20378	0.02294
1434.91801	0.02273
1433.63224	0.02260
1432.34647	0.02254
1431.06070	0.02252
1429.77494	0.02249
1428.48917	0.02244
1427.20340	0.02236
1425.91763	0.02225
1424.63186	0.02214
1423.34609	0.02204
1422.06032	0.02197
1420.77455	0.02192
1419.48878	0.02186
1418.20302	0.02176
1416.91725	0.02166
1415.63148	0.02159
1414.34571	0.02160
1413.05994	0.02165
1411.77417	0.02169
1410.48840	0.02164
1409.20263	0.02152
1407.91687	0.02138
1406.63110	0.02126
1405.34533	0.02122
1404.05956	0.02122
1402.77379	0.02123
1401.48802	0.02120
1400.20225	0.02110
1398.91648	0.02094
1397.63071	0.02075
1396.34495	0.02059
1395.05918	0.02047
1393.77341	0.02038
1392.48764	0.02030
1391.20187	0.02024
1389.91610	0.02020
1388.63033	0.02019
1387.34456	0.02018
1386.05880	0.02016
1384.77303	0.02014
1383.48726	0.02014
1382.20149	0.02016
1380.91572	0.02020
1379.62995	0.02022
1378.34418	0.02017
1377.05841	0.02004
1375.77264	0.01985
1374.48688	0.01963
1373.20111	0.01939
1371.91534	0.01911
1370.62957	0.01882
1369.34380	0.01854
1368.05803	0.01832
1366.77226	0.01815
1365.48649	0.01802
1364.20073	0.01790
1362.91496	0.01778
1361.62919	0.01765
1360.34342	0.01753
1359.05765	0.01741
1357.77188	0.01729
1356.48611	0.01718
1355.20034	0.01707
1353.91457	0.01697
1352.62881	0.01690
1351.34304	0.01685
1350.05727	0.01684
1348.77150	0.01685
1347.48573	0.01686
1346.19996	0.01688
1344.91419	0.01691
1343.62842	0.01699
1342.34266	0.01710
1341.05689	0.01721
1339.77112	0.01728
1338.48535	0.01730
1337.19958	0.01730
1335.91381	0.01732
1334.62804	0.01737
1333.34227	0.01744
1332.05650	0.01745
1330.77074	0.01741
1329.48497	0.01732
1328.19920	0.01721
1326.91343	0.01710
1325.62766	0.01697
1324.34189	0.01684
1323.05612	0.01671
1321.77035	0.01662
1320.48459	0.01657
1319.19882	0.01657
1317.91305	0.01660
1316.62728	0.01663
1315.34151	0.01664
1314.05574	0.01665
1312.76997	0.01666
1311.48420	0.01664
1310.19843	0.01662
1308.91267	0.01660
1307.62690	0.01661
1306.34113	0.01665
1305.05536	0.01668
1303.76959	0.01667
1302.48382	0.01661
1301.19805	0.01651
1299.91228	0.01639
1298.62652	0.01628
1297.34075	0.01622
1296.05498	0.01623
1294.76921	0.01630
1293.48344	0.01637
1292.19767	0.01642
1290.91190	0.01644
1289.62613	0.01648
1288.34036	0.01655
1287.05460	0.01664
1285.76883	0.01672
1284.48306	0.01678
1283.19729	0.01682
1281.91152	0.01683
1280.62575	0.01683
1279.33998	0.01682
1278.05421	0.01683
1276.76845	0.01687
1275.48268	0.01692
1274.19691	0.01697
1272.91114	0.01705
1271.62537	0.01713
1270.33960	0.01720
1269.05383	0.01724
1267.76806	0.01729
1266.48229	0.01739
1265.19653	0.01756
1263.91076	0.01777
1262.62499	0.01795
1261.33922	0.01808
1260.05345	0.01816
1258.76768	0.01821
1257.48191	0.01824
1256.19614	0.01828
1254.91037	0.01837
1253.62461	0.01849
1252.33884	0.01862
1251.05307	0.01875
1249.76730	0.01885
1248.48153	0.01896
1247.19576	0.01910
1245.90999	0.01927
1244.62422	0.01946
1243.33846	0.01964
1242.05269	0.01979
1240.76692	0.01988
1239.48115	0.01996
1238.19538	0.02005
1236.90961	0.02019
1235.62384	0.02032
1234.33807	0.02040
1233.05230	0.02042
1231.76654	0.02044
1230.48077	0.02046
1229.19500	0.02048
1227.90923	0.02046
1226.62346	0.02039
1225.33769	0.02026
1224.05192	0.02005
1222.76615	0.01979
1221.48039	0.01952
1220.19462	0.01927
1218.90885	0.01905
1217.62308	0.01886
1216.33731	0.01871
1215.05154	0.01862
1213.76577	0.01858
1212.48000	0.01858
1211.19423	0.01859
1209.90847	0.01861
1208.62270	0.01865
1207.33693	0.01868
1206.05116	0.01871
1204.76539	0.01876
1203.47962	0.01885
1202.19385	0.01894
1200.90808	0.01878
1199.62232	0.01822
1198.33655	0.01805
1197.05078	0.01788
1195.76501	0.01774
1194.47924	0.01765
1193.19347	0.01758
1191.90770	0.01749
1190.62193	0.01735
1189.33616	0.01719
1188.05040	0.01705
1186.76463	0.01697
1185.47886	0.01696
1184.19309	0.01699
1182.90732	0.01702
1181.62155	0.01704
1180.33578	0.01706
1179.05001	0.01711
1177.76425	0.01719
1176.47848	0.01726
1175.19271	0.01732
1173.90694	0.01734
1172.62117	0.01735
1171.33540	0.01743
1170.04963	0.01763
1168.76386	0.01790
1167.47809	0.01817
1166.19233	0.01837
1164.90656	0.01851
1163.62079	0.01857
1162.33502	0.01860
1161.04925	0.01865
1159.76348	0.01874
1158.47771	0.01890
1157.19194	0.01910
1155.90618	0.01931
1154.62041	0.01948
1153.33464	0.01959
1152.04887	0.01963
1150.76310	0.01964
1149.47733	0.01964
1148.19156	0.01968
1146.90579	0.01974
1145.62002	0.01979
1144.33426	0.01983
1143.04849	0.01986
1141.76272	0.01990
1140.47695	0.01996
1139.19118	0.02006
1137.90541	0.02024
1136.61964	0.02047
1135.33387	0.02070
1134.04811	0.02090
1132.76234	0.02111
1131.47657	0.02140
1130.19080	0.02181
1128.90503	0.02232
1127.61926	0.02293
1126.33349	0.02363
1125.04772	0.02440
1123.76195	0.02519
1122.47619	0.02595
1121.19042	0.02670
1119.90465	0.02746
1118.61888	0.02822
1117.33311	0.02900
1116.04734	0.02984
1114.76157	0.03075
1113.47580	0.03165
1112.19004	0.03246
1110.90427	0.03316
1109.61850	0.03382
1108.33273	0.03452
1107.04696	0.03526
1105.76119	0.03601
1104.47542	0.03677
1103.18965	0.03751
1101.90388	0.03820
1100.61812	0.03880
1099.33235	0.03935
1098.04658	0.03987
1096.76081	0.04032
1095.47504	0.04066
1094.18927	0.04087
1092.90350	0.04098
1091.61773	0.04100
1090.33197	0.04093
1089.04620	0.04078
1087.76043	0.04062
1086.47466	0.04052
1085.18889	0.04059
1083.90312	0.04091
1082.61735	0.04148
1081.33158	0.04222
1080.04581	0.04298
1078.76005	0.04365
1077.47428	0.04423
1076.18851	0.04479
1074.90274	0.04535
1073.61697	0.04593
1072.33120	0.04651
1071.04543	0.04708
1069.75966	0.04761
1068.47390	0.04808
1067.18813	0.04855
1065.90236	0.04908
1064.61659	0.04966
1063.33082	0.05026
1062.04505	0.05085
1060.75928	0.05145
1059.47351	0.05205
1058.18774	0.05261
1056.90198	0.05317
1055.61621	0.05377
1054.33044	0.05443
1053.04467	0.05511
1051.75890	0.05574
1050.47313	0.05631
1049.18736	0.05686
1047.90159	0.05744
1046.61583	0.05808
1045.33006	0.05878
1044.04429	0.05956
1042.75852	0.06039
1041.47275	0.06122
1040.18698	0.06200
1038.90121	0.06274
1037.61544	0.06347
1036.32967	0.06422
1035.04391	0.06504
1033.75814	0.06590
1032.47237	0.06671
1031.18660	0.06739
1029.90083	0.06786
1028.61506	0.06807
1027.32929	0.06800
1026.04352	0.06764
1024.75775	0.06707
1023.47199	0.06639
1022.18622	0.06569
1020.90045	0.06495
1019.61468	0.06411
1018.32891	0.06312
1017.04314	0.06199
1015.75737	0.06074
1014.47160	0.05945
1013.18584	0.05815
1011.90007	0.05688
1010.61430	0.05566
1009.32853	0.05452
1008.04276	0.05347
1006.75699	0.05249
1005.47122	0.05154
1004.18545	0.05058
1002.89968	0.04965
1001.61392	0.04874
1000.32815	0.04786
999.04238	0.04701
997.75661	0.04618
996.47084	0.04539
995.18507	0.04463
993.89930	0.04390
992.61353	0.04320
991.32777	0.04253
990.04200	0.04189
988.75623	0.04129
987.47046	0.04074
986.18469	0.04021
984.89892	0.03966
983.61315	0.03908
982.32738	0.03850
981.04161	0.03795
979.75585	0.03746
978.47008	0.03701
977.18431	0.03661
975.89854	0.03625
974.61277	0.03594
973.32700	0.03567
972.04123	0.03549
970.75546	0.03545
969.46970	0.03557
968.18393	0.03578
966.89816	0.03597
965.61239	0.03599
964.32662	0.03579
963.04085	0.03545
961.75508	0.03510
960.46931	0.03482
959.18354	0.03461
957.89778	0.03438
956.61201	0.03402
955.32624	0.03355
954.04047	0.03303
952.75470	0.03257
951.46893	0.03222
950.18316	0.03192
948.89739	0.03161
947.61163	0.03126
946.32586	0.03090
945.04009	0.03055
943.75432	0.03020
942.46855	0.02987
941.18278	0.02961
939.89701	0.02943
938.61124	0.02928
937.32547	0.02910
936.03971	0.02885
934.75394	0.02854
933.46817	0.02821
932.18240	0.02788
930.89663	0.02760
929.61086	0.02735
928.32509	0.02709
927.03932	0.02679
925.75356	0.02650
924.46779	0.02629
923.18202	0.02614
921.89625	0.02597
920.61048	0.02572
919.32471	0.02541
918.03894	0.02512
916.75317	0.02486
915.46740	0.02458
914.18164	0.02426
912.89587	0.02398
911.61010	0.02379
910.32433	0.02366
909.03856	0.02350
907.75279	0.02330
906.46702	0.02315
905.18125	0.02309
903.89549	0.02307
902.60972	0.02302
901.32395	0.02296
900.03818	0.02292
898.75241	0.02291
897.46664	0.02283
896.18087	0.02265
894.89510	0.02244
893.60933	0.02232
892.32357	0.02230
891.03780	0.02231
889.75203	0.02226
888.46626	0.02210
887.18049	0.02190
885.89472	0.02174
884.60895	0.02168
883.32318	0.02176
882.03742	0.02191
880.75165	0.02208
879.46588	0.02221
878.18011	0.02226
876.89434	0.02223
875.60857	0.02216
874.32280	0.02210
873.03703	0.02208
871.75126	0.02211
870.46550	0.02211
869.17973	0.02205
867.89396	0.02192
866.60819	0.02178
865.32242	0.02169
864.03665	0.02165
862.75088	0.02159
861.46511	0.02145
860.17935	0.02123
858.89358	0.02099
857.60781	0.02083
856.32204	0.02078
855.03627	0.02078
853.75050	0.02076
852.46473	0.02070
851.17896	0.02060
849.89319	0.02046
848.60743	0.02027
847.32166	0.02001
846.03589	0.01971
844.75012	0.01947
843.46435	0.01933
842.17858	0.01923
840.89281	0.01913
839.60704	0.01900
838.32128	0.01887
837.03551	0.01875
835.74974	0.01862
834.46397	0.01847
833.17820	0.01832
831.89243	0.01821
830.60666	0.01816
829.32089	0.01817
828.03512	0.01819
826.74936	0.01815
825.46359	0.01804
824.17782	0.01790
822.89205	0.01778
821.60628	0.01770
820.32051	0.01761
819.03474	0.01752
817.74897	0.01744
816.46321	0.01740
815.17744	0.01740
813.89167	0.01741
812.60590	0.01740
811.32013	0.01736
810.03436	0.01731
808.74859	0.01728
807.46282	0.01728
806.17705	0.01730
804.89129	0.01732
803.60552	0.01734
802.31975	0.01732
801.03398	0.01729
799.74821	0.01724
798.46244	0.01717
797.17667	0.01703
795.89090	0.01681
794.60513	0.01662
793.31937	0.01657
792.03360	0.01669
790.74783	0.01685
789.46206	0.01690
788.17629	0.01681
786.89052	0.01663
785.60475	0.01645
784.31898	0.01633
783.03322	0.01632
781.74745	0.01639
780.46168	0.01645
779.17591	0.01642
777.89014	0.01635
776.60437	0.01630
775.31860	0.01628
774.03283	0.01628
772.74706	0.01628
771.46130	0.01628
770.17553	0.01629
768.88976	0.01630
767.60399	0.01632
766.31822	0.01637
765.03245	0.01647
763.74668	0.01660
762.46091	0.01667
761.17515	0.01662
759.88938	0.01649
758.60361	0.01635
757.31784	0.01621
756.03207	0.01604
754.74630	0.01587
753.46053	0.01575
752.17476	0.01576
750.88899	0.01590
749.60323	0.01609
748.31746	0.01627
747.03169	0.01637
745.74592	0.01640
744.46015	0.01633
743.17438	0.01625
741.88861	0.01625
740.60284	0.01634
739.31708	0.01644
738.03131	0.01643
736.74554	0.01630
735.45977	0.01615
734.17400	0.01605
732.88823	0.01603
731.60246	0.01610
730.31669	0.01628
729.03092	0.01651
727.74516	0.01666
726.45939	0.01666
725.17362	0.01658
723.88785	0.01638
722.60208	0.01651
721.31631	0.01676
720.03054	0.01697
718.74477	0.01715
717.45901	0.01727
716.17324	0.01727
714.88747	0.01713
713.60170	0.01690
712.31593	0.01670
711.03016	0.01660
709.74439	0.01659
708.45862	0.01661
707.17285	0.01663
705.88709	0.01662
704.60132	0.01661
703.31555	0.01659
702.02978	0.01658
700.74401	0.01661
699.45824	0.01666
698.17247	0.01673
696.88670	0.01678
695.60094	0.01682
694.31517	0.01684
693.02940	0.01679
691.74363	0.01668
690.45786	0.01654
689.17209	0.01646
687.88632	0.01643
686.60055	0.01641
685.31478	0.01633
684.02902	0.01623
682.74325	0.01615
681.45748	0.01613
680.17171	0.01615
678.88594	0.01618
677.60017	0.01621
676.31440	0.01623
675.02863	0.01622
673.74287	0.01615
672.45710	0.01604
671.17133	0.01597
669.88556	0.01599
668.59979	0.01597
667.31402	0.01601
666.02825	0.01622
664.74248	0.01621
663.45671	0.01616
662.17095	0.01612
660.88518	0.01608
659.59941	0.01606
658.31364	0.01606
657.02787	0.01611
655.74210	0.01617
654.45633	0.01618
653.17056	0.01613
651.88480	0.01607
650.59903	0.01605
649.31326	0.01606
648.02749	0.01606
646.74172	0.01601
645.45595	0.01591
644.17018	0.01576
642.88441	0.01555
641.59864	0.01532
640.31288	0.01514
639.02711	0.01503
637.74134	0.01500
636.45557	0.01502
635.16980	0.01506
633.88403	0.01496
632.59826	0.01461
631.31249	0.01458
630.02673	0.01687
628.74096	0.02034
627.45519	0.01760
626.16942	0.02160
624.88365	0.03006
623.59788	0.03791
622.31211	0.04307
621.02634	0.04454
619.74057	0.04206
618.45481	0.03657
617.16904	0.02997
615.88327	0.02432
614.59750	0.02106
613.31173	0.02084
612.02596	0.02358
610.74019	0.02853
609.45442	0.03424
608.16866	0.03913
606.88289	0.04228
605.59712	0.04362
604.31135	0.04352
603.02558	0.04244
601.73981	0.04091
600.45404	0.03927
599.16827	0.03768
597.88250	0.03612
596.59674	0.03455
595.31097	0.03300
594.02520	0.03157
592.73943	0.03038
591.45366	0.02947
590.16789	0.02884
588.88212	0.02846
587.59635	0.02834
586.31059	0.02846
585.02482	0.02883
583.73905	0.02945
582.45328	0.03024
581.16751	0.03109
579.88174	0.03190
578.59597	0.03262
577.31020	0.03326
576.02443	0.03387
574.73867	0.03451
573.45290	0.03524
572.16713	0.03613
570.88136	0.03720
569.59559	0.03843
568.30982	0.03971
567.02405	0.04084
565.73828	0.04158
564.45251	0.04180
563.16675	0.04152
561.88098	0.04087
560.59521	0.03994
559.30944	0.03885
558.02367	0.03776
556.73790	0.03677
555.45213	0.03595
554.16636	0.03525
552.88060	0.03464
551.59483	0.03412
550.30906	0.03364
549.02329	0.03312
547.73752	0.03256
546.45175	0.03205
545.16598	0.03169
543.88021	0.03146
542.59444	0.03123
541.30868	0.03088
540.02291	0.03043
538.73714	0.02995
537.45137	0.02955
536.16560	0.02926
534.87983	0.02911
533.59406	0.02905
532.30829	0.02898
531.02253	0.02884
529.73676	0.02861
528.45099	0.02835
527.16522	0.02812
525.87945	0.02796
524.59368	0.02783
523.30791	0.02768
522.02214	0.02748
520.73637	0.02728
519.45061	0.02709
518.16484	0.02688
516.87907	0.02660
515.59330	0.02628
514.30753	0.02600
513.02176	0.02577
511.73599	0.02553
510.45022	0.02526
509.16446	0.02500
507.87869	0.02474
506.59292	0.02446
505.30715	0.02413
504.02138	0.02379
502.73561	0.02347
501.44984	0.02316
500.16407	0.02283
498.87830	0.02249
497.59254	0.02216
496.30677	0.02188
495.02100	0.02167
493.73523	0.02154
492.44946	0.02145
491.16369	0.02139
489.87792	0.02129
488.59215	0.02114
487.30639	0.02092
486.02062	0.02066
484.73485	0.02042
483.44908	0.02024
482.16331	0.02011
480.87754	0.02003
479.59177	0.01995
478.30600	0.01983
477.02023	0.01966
475.73447	0.01947
474.44870	0.01934
473.16293	0.01930
471.87716	0.01936
470.59139	0.01943
469.30562	0.01945
468.01985	0.01936
466.73408	0.01917
465.44832	0.01891
464.16255	0.01866
462.87678	0.01846
461.59101	0.01832
460.30524	0.01821
459.01947	0.01810
457.73370	0.01798
456.44793	0.01785
455.16216	0.01769
453.87640	0.01749
452.59063	0.01727
451.30486	0.01705
450.01909	0.01683
448.73332	0.01663
447.44755	0.01649
446.16178	0.01641
444.87601	0.01638
443.59025	0.01634
442.30448	0.01626
441.01871	0.01615
439.73294	0.01604
438.44717	0.01596
437.16140	0.01592
435.87563	0.01591
434.58986	0.01589
433.30409	0.01584
432.01833	0.01575
430.73256	0.01561
429.44679	0.01546
428.16102	0.01532
426.87525	0.01519
425.58948	0.01508
424.30371	0.01500
423.01794	0.01492
421.73218	0.01485
420.44641	0.01479
419.16064	0.01475
417.87487	0.01473
416.58910	0.01468
415.30333	0.01457
414.01756	0.01442
412.73179	0.01427
411.44602	0.01415
410.16026	0.01401
408.87449	0.01385
407.58872	0.01370
406.30295	0.01361
405.01718	0.01362
403.73141	0.01366
402.44564	0.01365
401.15987	0.01355
399.87411	0.01341
