3996.16951	0.00904
3994.24086	0.00906
3992.31221	0.00919
3990.38355	0.00937
3988.45490	0.00947
3986.52625	0.00957
3984.59759	0.00962
3982.66894	0.00952
3980.74029	0.00938
3978.81163	0.00938
3976.88298	0.00944
3974.95433	0.00934
3973.02567	0.00919
3971.09702	0.00919
3969.16837	0.00921
3967.23972	0.00914
3965.31106	0.00909
3963.38241	0.00916
3961.45376	0.00927
3959.52510	0.00929
3957.59645	0.00922
3955.66780	0.00923
3953.73914	0.00932
3951.81049	0.00938
3949.88184	0.00929
3947.95318	0.00915
3946.02453	0.00913
3944.09588	0.00925
3942.16722	0.00927
3940.23857	0.00908
3938.30992	0.00886
3936.38126	0.00875
3934.45261	0.00880
3932.52396	0.00898
3930.59530	0.00917
3928.66665	0.00924
3926.73800	0.00917
3924.80934	0.00896
3922.88069	0.00873
3920.95204	0.00863
3919.02338	0.00865
3917.09473	0.00877
3915.16608	0.00892
3913.23742	0.00900
3911.30877	0.00902
3909.38012	0.00903
3907.45146	0.00906
3905.52281	0.00913
3903.59416	0.00918
3901.66550	0.00919
3899.73685	0.00916
3897.80820	0.00912
3895.87955	0.00911
3893.95089	0.00910
3892.02224	0.00897
3890.09359	0.00878
3888.16493	0.00874
3886.23628	0.00880
3884.30763	0.00875
3882.37897	0.00860
3880.45032	0.00844
3878.52167	0.00834
3876.59301	0.00839
3874.66436	0.00858
3872.73571	0.00872
3870.80705	0.00872
3868.87840	0.00870
3866.94975	0.00879
3865.02109	0.00891
3863.09244	0.00896
3861.16379	0.00891
3859.23513	0.00887
3857.30648	0.00885
3855.37783	0.00878
3853.44917	0.00867
3851.52052	0.00863
3849.59187	0.00869
3847.66321	0.00878
3845.73456	0.00888
3843.80591	0.00897
3841.87725	0.00902
3839.94860	0.00903
3838.01995	0.00907
3836.09129	0.00904
3834.16264	0.00887
3832.23399	0.00872
3830.30534	0.00868
3828.37668	0.00866
3826.44803	0.00863
3824.51938	0.00865
3822.59072	0.00872
3820.66207	0.00873
3818.73342	0.00868
3816.80476	0.00864
3814.87611	0.00869
3812.94746	0.00881
3811.01880	0.00894
3809.09015	0.00896
3807.16150	0.00881
3805.23284	0.00863
3803.30419	0.00853
3801.37554	0.00846
3799.44688	0.00838
3797.51823	0.00840
3795.58958	0.00861
3793.66092	0.00889
3791.73227	0.00901
3789.80362	0.00888
3787.87496	0.00871
3785.94631	0.00865
3784.01766	0.00865
3782.08900	0.00868
3780.16035	0.00869
3778.23170	0.00866
3776.30304	0.00863
3774.37439	0.00857
3772.44574	0.00848
3770.51708	0.00845
3768.58843	0.00847
3766.65978	0.00843
3764.73112	0.00846
3762.80247	0.00855
3760.87382	0.00856
3758.94517	0.00846
3757.01651	0.00835
3755.08786	0.00827
3753.15921	0.00822
3751.23055	0.00832
3749.30190	0.00851
3747.37325	0.00857
3745.44459	0.00848
3743.51594	0.00839
3741.58729	0.00838
3739.65863	0.00842
3737.72998	0.00849
3735.80133	0.00850
3733.87267	0.00840
3731.94402	0.00827
3730.01537	0.00818
3728.08671	0.00812
3726.15806	0.00806
3724.22941	0.00804
3722.30075	0.00810
3720.37210	0.00819
3718.44345	0.00827
3716.51479	0.00840
3714.58614	0.00854
3712.65749	0.00851
3710.72883	0.00833
3708.80018	0.00818
3706.87153	0.00812
3704.94287	0.00817
3703.01422	0.00829
3701.08557	0.00834
3699.15691	0.00830
3697.22826	0.00829
3695.29961	0.00835
3693.37095	0.00839
3691.44230	0.00826
3689.51365	0.00805
3687.58500	0.00801
3685.65634	0.00807
3683.72769	0.00801
3681.79904	0.00796
3679.87038	0.00811
3677.94173	0.00833
3676.01308	0.00845
3674.08442	0.00844
3672.15577	0.00833
3670.22712	0.00822
3668.29846	0.00823
3666.36981	0.00836
3664.44116	0.00844
3662.51250	0.00839
3660.58385	0.00836
3658.65520	0.00854
3656.72654	0.00878
3654.79789	0.00889
3652.86924	0.00891
3650.94058	0.00893
3649.01193	0.00896
3647.08328	0.00898
3645.15462	0.00898
3643.22597	0.00895
3641.29732	0.00894
3639.36866	0.00902
3637.44001	0.00917
3635.51136	0.00922
3633.58270	0.00916
3631.65405	0.00921
3629.72540	0.00940
3627.79674	0.00956
3625.86809	0.00953
3623.93944	0.00940
3622.01079	0.00934
3620.08213	0.00941
3618.15348	0.00959
3616.22483	0.00983
3614.29617	0.01002
3612.36752	0.01009
3610.43887	0.01006
3608.51021	0.00998
3606.58156	0.00990
3604.65291	0.00995
3602.72425	0.01018
3600.79560	0.01041
3598.86695	0.01054
3596.93829	0.01067
3595.00964	0.01088
3593.08099	0.01110
3591.15233	0.01119
3589.22368	0.01117
3587.29503	0.01114
3585.36637	0.01123
3583.43772	0.01145
3581.50907	0.01174
3579.58041	0.01192
3577.65176	0.01196
3575.72311	0.01198
3573.79445	0.01209
3571.86580	0.01224
3569.93715	0.01238
3568.00849	0.01253
3566.07984	0.01262
3564.15119	0.01263
3562.22253	0.01267
3560.29388	0.01282
3558.36523	0.01300
3556.43657	0.01309
3554.50792	0.01311
3552.57927	0.01314
3550.65062	0.01321
3548.72196	0.01335
3546.79331	0.01366
3544.86466	0.01398
3542.93600	0.01406
3541.00735	0.01401
3539.07870	0.01407
3537.15004	0.01433
3535.22139	0.01465
3533.29274	0.01487
3531.36408	0.01496
3529.43543	0.01496
3527.50678	0.01493
3525.57812	0.01500
3523.64947	0.01517
3521.72082	0.01538
3519.79216	0.01553
3517.86351	0.01557
3515.93486	0.01556
3514.00620	0.01562
3512.07755	0.01576
3510.14890	0.01589
3508.22024	0.01594
3506.29159	0.01598
3504.36294	0.01616
3502.43428	0.01635
3500.50563	0.01638
3498.57698	0.01634
3496.64832	0.01632
3494.71967	0.01635
3492.79102	0.01646
3490.86236	0.01665
3488.93371	0.01679
3487.00506	0.01682
3485.07641	0.01681
3483.14775	0.01687
3481.21910	0.01703
3479.29045	0.01722
3477.36179	0.01733
3475.43314	0.01739
3473.50449	0.01746
3471.57583	0.01754
3469.64718	0.01758
3467.71853	0.01757
3465.78987	0.01761
3463.86122	0.01781
3461.93257	0.01801
3460.00391	0.01803
3458.07526	0.01800
3456.14661	0.01812
3454.21795	0.01836
3452.28930	0.01851
3450.36065	0.01852
3448.43199	0.01849
3446.50334	0.01860
3444.57469	0.01880
3442.64603	0.01896
3440.71738	0.01902
3438.78873	0.01905
3436.86007	0.01910
3434.93142	0.01919
3433.00277	0.01930
3431.07411	0.01942
3429.14546	0.01953
3427.21681	0.01963
3425.28815	0.01970
3423.35950	0.01971
3421.43085	0.01977
3419.50219	0.01987
3417.57354	0.01992
3415.64489	0.01994
3413.71624	0.02008
3411.78758	0.02038
3409.85893	0.02059
3407.93028	0.02058
3406.00162	0.02046
3404.07297	0.02046
3402.14432	0.02057
3400.21566	0.02067
3398.28701	0.02074
3396.35836	0.02080
3394.42970	0.02090
3392.50105	0.02107
3390.57240	0.02119
3388.64374	0.02119
3386.71509	0.02110
3384.78644	0.02108
3382.85778	0.02117
3380.92913	0.02130
3379.00048	0.02141
3377.07182	0.02147
3375.14317	0.02151
3373.21452	0.02155
3371.28586	0.02152
3369.35721	0.02151
3367.42856	0.02159
3365.49990	0.02171
3363.57125	0.02180
3361.64260	0.02189
3359.71394	0.02200
3357.78529	0.02208
3355.85664	0.02211
3353.92798	0.02213
3351.99933	0.02213
3350.07068	0.02205
3348.14202	0.02198
3346.21337	0.02202
3344.28472	0.02212
3342.35607	0.02220
3340.42741	0.02229
3338.49876	0.02244
3336.57011	0.02255
3334.64145	0.02258
3332.71280	0.02258
3330.78415	0.02258
3328.85549	0.02255
3326.92684	0.02254
3324.99819	0.02261
3323.06953	0.02274
3321.14088	0.02281
3319.21223	0.02283
3317.28357	0.02290
3315.35492	0.02300
3313.42627	0.02301
3311.49761	0.02299
3309.56896	0.02307
3307.64031	0.02321
3305.71165	0.02333
3303.78300	0.02341
3301.85435	0.02346
3299.92569	0.02350
3297.99704	0.02353
3296.06839	0.02358
3294.13973	0.02369
3292.21108	0.02381
3290.28243	0.02389
3288.35377	0.02387
3286.42512	0.02376
3284.49647	0.02374
3282.56781	0.02389
3280.63916	0.02400
3278.71051	0.02398
3276.78186	0.02393
3274.85320	0.02391
3272.92455	0.02384
3270.99590	0.02367
3269.06724	0.02352
3267.13859	0.02349
3265.20994	0.02356
3263.28128	0.02363
3261.35263	0.02366
3259.42398	0.02362
3257.49532	0.02355
3255.56667	0.02352
3253.63802	0.02355
3251.70936	0.02364
3249.78071	0.02376
3247.85206	0.02386
3245.92340	0.02388
3243.99475	0.02388
3242.06610	0.02386
3240.13744	0.02379
3238.20879	0.02371
3236.28014	0.02368
3234.35148	0.02365
3232.42283	0.02359
3230.49418	0.02358
3228.56552	0.02371
3226.63687	0.02381
3224.70822	0.02372
3222.77956	0.02349
3220.85091	0.02328
3218.92226	0.02315
3216.99360	0.02310
3215.06495	0.02310
3213.13630	0.02312
3211.20764	0.02320
3209.27899	0.02331
3207.35034	0.02336
3205.42169	0.02335
3203.49303	0.02328
3201.56438	0.02320
3199.63573	0.02317
3197.70707	0.02313
3195.77842	0.02306
3193.84977	0.02298
3191.92111	0.02294
3189.99246	0.02301
3188.06381	0.02309
3186.13515	0.02300
3184.20650	0.02287
3182.27785	0.02278
3180.34919	0.02267
3178.42054	0.02257
3176.49189	0.02252
3174.56323	0.02247
3172.63458	0.02245
3170.70593	0.02250
3168.77727	0.02250
3166.84862	0.02244
3164.91997	0.02238
3162.99131	0.02231
3161.06266	0.02215
3159.13401	0.02200
3157.20535	0.02198
3155.27670	0.02207
3153.34805	0.02211
3151.41939	0.02203
3149.49074	0.02193
3147.56209	0.02183
3145.63343	0.02171
3143.70478	0.02170
3141.77613	0.02183
3139.84748	0.02197
3137.91882	0.02202
3135.99017	0.02195
3134.06152	0.02180
3132.13286	0.02168
3130.20421	0.02165
3128.27556	0.02166
3126.34690	0.02158
3124.41825	0.02142
3122.48960	0.02134
3120.56094	0.02134
3118.63229	0.02127
3116.70364	0.02119
3114.77498	0.02122
3112.84633	0.02131
3110.91768	0.02136
3108.98902	0.02129
3107.06037	0.02115
3105.13172	0.02103
3103.20306	0.02098
3101.27441	0.02095
3099.34576	0.02090
3097.41710	0.02086
3095.48845	0.02093
3093.55980	0.02112
3091.63114	0.02124
3089.70249	0.02119
3087.77384	0.02116
3085.84518	0.02125
3083.91653	0.02132
3081.98788	0.02134
3080.05922	0.02129
3078.13057	0.02118
3076.20192	0.02108
3074.27326	0.02109
3072.34461	0.02114
3070.41596	0.02111
3068.48731	0.02107
3066.55865	0.02107
3064.63000	0.02111
3062.70135	0.02114
3060.77269	0.02111
3058.84404	0.02108
3056.91539	0.02109
3054.98673	0.02103
3053.05808	0.02087
3051.12943	0.02077
3049.20077	0.02080
3047.27212	0.02087
3045.34347	0.02086
3043.41481	0.02080
3041.48616	0.02071
3039.55751	0.02063
3037.62885	0.02059
3035.70020	0.02054
3033.77155	0.02045
3031.84289	0.02038
3029.91424	0.02043
3027.98559	0.02048
3026.05693	0.02043
3024.12828	0.02033
3022.19963	0.02024
3020.27097	0.02019
3018.34232	0.02009
3016.41367	0.02000
3014.48501	0.01998
3012.55636	0.02000
3010.62771	0.02004
3008.69905	0.02008
3006.77040	0.02007
3004.84175	0.02002
3002.91309	0.01996
3000.98444	0.01989
2999.05579	0.01980
2997.12714	0.01970
2995.19848	0.01964
2993.26983	0.01962
2991.34118	0.01968
2989.41252	0.01983
2987.48387	0.01985
2985.55522	0.01968
2983.62656	0.01956
2981.69791	0.01967
2979.76926	0.01983
2977.84060	0.01990
2975.91195	0.02000
2973.98330	0.02010
2972.05464	0.02015
2970.12599	0.02019
2968.19734	0.02023
2966.26868	0.02019
2964.34003	0.02009
2962.41138	0.01995
2960.48272	0.01981
2958.55407	0.01977
2956.62542	0.01991
2954.69676	0.02012
2952.76811	0.02022
2950.83946	0.02015
2948.91080	0.02006
2946.98215	0.02014
2945.05350	0.02032
2943.12484	0.02032
2941.19619	0.02016
2939.26754	0.02007
2937.33888	0.02009
2935.41023	0.02016
2933.48158	0.02027
2931.55293	0.02038
2929.62427	0.02045
2927.69562	0.02043
2925.76697	0.02034
2923.83831	0.02030
2921.90966	0.02031
2919.98101	0.02026
2918.05235	0.02015
2916.12370	0.02004
2914.19505	0.01995
2912.26639	0.01981
2910.33774	0.01962
2908.40909	0.01952
2906.48043	0.01949
2904.55178	0.01936
2902.62313	0.01919
2900.69447	0.01914
2898.76582	0.01912
2896.83717	0.01904
2894.90851	0.01891
2892.97986	0.01879
2891.05121	0.01873
2889.12255	0.01877
2887.19390	0.01880
2885.26525	0.01873
2883.33659	0.01868
2881.40794	0.01870
2879.47929	0.01868
2877.55063	0.01857
2875.62198	0.01852
2873.69333	0.01860
2871.76467	0.01868
2869.83602	0.01868
2867.90737	0.01859
2865.97871	0.01844
2864.05006	0.01836
2862.12141	0.01840
2860.19276	0.01841
2858.26410	0.01833
2856.33545	0.01820
2854.40680	0.01812
2852.47814	0.01807
2850.54949	0.01797
2848.62084	0.01790
2846.69218	0.01797
2844.76353	0.01799
2842.83488	0.01787
2840.90622	0.01779
2838.97757	0.01778
2837.04892	0.01768
2835.12026	0.01744
2833.19161	0.01725
2831.26296	0.01717
2829.33430	0.01717
2827.40565	0.01720
2825.47700	0.01716
2823.54834	0.01704
2821.61969	0.01693
2819.69104	0.01690
2817.76238	0.01696
2815.83373	0.01705
2813.90508	0.01707
2811.97642	0.01705
2810.04777	0.01704
2808.11912	0.01695
2806.19046	0.01679
2804.26181	0.01671
2802.33316	0.01670
2800.40450	0.01664
2798.47585	0.01651
2796.54720	0.01642
2794.61855	0.01638
2792.68989	0.01635
2790.76124	0.01635
2788.83259	0.01641
2786.90393	0.01643
2784.97528	0.01636
2783.04663	0.01625
2781.11797	0.01619
2779.18932	0.01621
2777.26067	0.01624
2775.33201	0.01621
2773.40336	0.01613
2771.47471	0.01604
2769.54605	0.01600
2767.61740	0.01599
2765.68875	0.01603
2763.76009	0.01609
2761.83144	0.01605
2759.90279	0.01593
2757.97413	0.01592
2756.04548	0.01600
2754.11683	0.01600
2752.18817	0.01590
2750.25952	0.01579
2748.33087	0.01573
2746.40221	0.01570
2744.47356	0.01568
2742.54491	0.01569
2740.61625	0.01569
2738.68760	0.01565
2736.75895	0.01558
2734.83029	0.01553
2732.90164	0.01549
2730.97299	0.01548
2729.04433	0.01549
2727.11568	0.01544
2725.18703	0.01533
2723.25838	0.01529
2721.32972	0.01533
2719.40107	0.01530
2717.47242	0.01519
2715.54376	0.01514
2713.61511	0.01516
2711.68646	0.01518
2709.75780	0.01518
2707.82915	0.01516
2705.90050	0.01509
2703.97184	0.01498
2702.04319	0.01489
2700.11454	0.01490
2698.18588	0.01492
2696.25723	0.01491
2694.32858	0.01492
2692.39992	0.01496
2690.47127	0.01499
2688.54262	0.01493
2686.61396	0.01478
2684.68531	0.01469
2682.75666	0.01473
2680.82800	0.01475
2678.89935	0.01468
2676.97070	0.01456
2675.04204	0.01446
2673.11339	0.01447
2671.18474	0.01455
2669.25608	0.01461
2667.32743	0.01461
2665.39878	0.01454
2663.47012	0.01443
2661.54147	0.01440
2659.61282	0.01449
2657.68417	0.01454
2655.75551	0.01443
2653.82686	0.01429
2651.89821	0.01424
2649.96955	0.01419
2648.04090	0.01406
2646.11225	0.01394
2644.18359	0.01392
2642.25494	0.01402
2640.32629	0.01411
2638.39763	0.01403
2636.46898	0.01385
2634.54033	0.01377
2632.61167	0.01377
2630.68302	0.01372
2628.75437	0.01358
2626.82571	0.01346
2624.89706	0.01340
2622.96841	0.01333
2621.03975	0.01327
2619.11110	0.01325
2617.18245	0.01321
2615.25379	0.01315
2613.32514	0.01317
2611.39649	0.01320
2609.46783	0.01313
2607.53918	0.01293
2605.61053	0.01279
2603.68187	0.01288
2601.75322	0.01305
2599.82457	0.01307
2597.89591	0.01293
2595.96726	0.01277
2594.03861	0.01257
2592.10995	0.01236
2590.18130	0.01219
2588.25265	0.01203
2586.32400	0.01195
2584.39534	0.01211
2582.46669	0.01239
2580.53804	0.01249
2578.60938	0.01242
2576.68073	0.01238
2574.75208	0.01236
2572.82342	0.01228
2570.89477	0.01222
2568.96612	0.01221
2567.03746	0.01224
2565.10881	0.01223
2563.18016	0.01217
2561.25150	0.01211
2559.32285	0.01209
2557.39420	0.01213
2555.46554	0.01215
2553.53689	0.01204
2551.60824	0.01179
2549.67958	0.01156
2547.75093	0.01154
2545.82228	0.01169
2543.89362	0.01184
2541.96497	0.01184
2540.03632	0.01171
2538.10766	0.01154
2536.17901	0.01145
2534.25036	0.01150
2532.32170	0.01167
2530.39305	0.01180
2528.46440	0.01178
2526.53574	0.01172
2524.60709	0.01166
2522.67844	0.01153
2520.74978	0.01140
2518.82113	0.01141
2516.89248	0.01150
2514.96383	0.01156
2513.03517	0.01159
2511.10652	0.01154
2509.17787	0.01131
2507.24921	0.01113
2505.32056	0.01122
2503.39191	0.01137
2501.46325	0.01149
2499.53460	0.01167
2497.60595	0.01178
2495.67729	0.01170
2493.74864	0.01158
2491.81999	0.01155
2489.89133	0.01158
2487.96268	0.01156
2486.03403	0.01146
2484.10537	0.01131
2482.17672	0.01124
2480.24807	0.01135
2478.31941	0.01149
2476.39076	0.01146
2474.46211	0.01132
2472.53345	0.01124
2470.60480	0.01125
2468.67615	0.01130
2466.74749	0.01131
2464.81884	0.01136
2462.89019	0.01136
2460.96153	0.01128
2459.03288	0.01137
2457.10423	0.01161
2455.17557	0.01170
2453.24692	0.01169
2451.31827	0.01162
2449.38962	0.01137
2447.46096	0.01121
2445.53231	0.01128
2443.60366	0.01132
2441.67500	0.01129
2439.74635	0.01127
2437.81770	0.01126
2435.88904	0.01133
2433.96039	0.01151
2432.03174	0.01152
2430.10308	0.01135
2428.17443	0.01126
2426.24578	0.01127
2424.31712	0.01129
2422.38847	0.01136
2420.45982	0.01142
2418.53116	0.01133
2416.60251	0.01118
2414.67386	0.01113
2412.74520	0.01112
2410.81655	0.01108
2408.88790	0.01109
2406.95924	0.01121
2405.03059	0.01127
2403.10194	0.01120
2401.17328	0.01114
2399.24463	0.01113
2397.31598	0.01117
2395.38732	0.01124
2393.45867	0.01132
2391.53002	0.01135
2389.60136	0.01129
2387.67271	0.01116
2385.74406	0.01110
2383.81540	0.01114
2381.88675	0.01119
2379.95810	0.01121
2378.02945	0.01129
2376.10079	0.01143
2374.17214	0.01152
2372.24349	0.01151
2370.31483	0.01144
2368.38618	0.01139
2366.45753	0.01139
2364.52887	0.01139
2362.60022	0.01140
2360.67157	0.01146
2358.74291	0.01154
2356.81426	0.01164
2354.88561	0.01177
2352.95695	0.01189
2351.02830	0.01194
2349.09965	0.01194
2347.17099	0.01195
2345.24234	0.01191
2343.31369	0.01183
2341.38503	0.01175
2339.45638	0.01173
2337.52773	0.01174
2335.59907	0.01175
2333.67042	0.01178
2331.74177	0.01181
2329.81311	0.01179
2327.88446	0.01188
2325.95581	0.01217
2324.02715	0.01241
2322.09850	0.01233
2320.16985	0.01207
2318.24119	0.01181
2316.31254	0.01166
2314.38389	0.01159
2312.45524	0.01153
2310.52658	0.01148
2308.59793	0.01143
2306.66928	0.01128
2304.74062	0.01106
2302.81197	0.01092
2300.88332	0.01093
2298.95466	0.01097
2297.02601	0.01093
2295.09736	0.01085
2293.16870	0.01079
2291.24005	0.01077
2289.31140	0.01082
2287.38274	0.01083
2285.45409	0.01069
2283.52544	0.01049
2281.59678	0.01046
2279.66813	0.01052
2277.73948	0.01042
2275.81082	0.01011
2273.88217	0.00990
2271.95352	0.00990
2270.02486	0.00990
2268.09621	0.00978
2266.16756	0.00972
2264.23890	0.00981
2262.31025	0.00980
2260.38160	0.00959
2258.45294	0.00946
2256.52429	0.00957
2254.59564	0.00952
2252.66698	0.00908
2250.73833	0.00872
2248.80968	0.00877
2246.88102	0.00888
2244.95237	0.00901
2243.02372	0.00912
2241.09507	0.00910
2239.16641	0.00898
2237.23776	0.00880
2235.30911	0.00865
2233.38045	0.00861
2231.45180	0.00857
2229.52315	0.00848
2227.59449	0.00850
2225.66584	0.00856
2223.73719	0.00848
2221.80853	0.00833
2219.87988	0.00821
2217.95123	0.00815
2216.02257	0.00816
2214.09392	0.00815
2212.16527	0.00810
2210.23661	0.00818
2208.30796	0.00823
2206.37931	0.00796
2204.45065	0.00757
2202.52200	0.00739
2200.59335	0.00743
2198.66469	0.00748
2196.73604	0.00752
2194.80739	0.00756
2192.87873	0.00741
2190.95008	0.00708
2189.02143	0.00684
2187.09277	0.00693
2185.16412	0.00703
2183.23547	0.00684
2181.30681	0.00682
2179.37816	0.00724
2177.44951	0.00745
2175.52085	0.00710
2173.59220	0.00664
2171.66355	0.00656
2169.73490	0.00660
2167.80624	0.00641
2165.87759	0.00634
2163.94894	0.00620
2162.02028	0.00532
2160.09163	0.00439
2158.16298	0.00432
2156.23432	0.00473
2154.30567	0.00523
2152.37702	0.00572
2150.44836	0.00596
2148.51971	0.00600
2146.59106	0.00607
2144.66240	0.00637
2142.73375	0.00684
2140.80510	0.00701
2138.87644	0.00680
2136.94779	0.00666
2135.01914	0.00659
2133.09048	0.00648
2131.16183	0.00656
2129.23318	0.00693
2127.30452	0.00742
2125.37587	0.00767
2123.44722	0.00759
2121.51856	0.00750
2119.58991	0.00775
2117.66126	0.00818
2115.73260	0.00834
2113.80395	0.00813
2111.87530	0.00789
2109.94664	0.00772
2108.01799	0.00765
2106.08934	0.00770
2104.16069	0.00765
2102.23203	0.00739
2100.30338	0.00725
2098.37473	0.00742
2096.44607	0.00743
2094.51742	0.00718
2092.58877	0.00702
2090.66011	0.00713
2088.73146	0.00737
2086.80281	0.00762
2084.87415	0.00775
2082.94550	0.00769
2081.01685	0.00762
2079.08819	0.00771
2077.15954	0.00784
2075.23089	0.00788
2073.30223	0.00781
2071.37358	0.00750
2069.44493	0.00696
2067.51627	0.00658
2065.58762	0.00673
2063.65897	0.00695
2061.73031	0.00659
2059.80166	0.00585
2057.87301	0.00556
2055.94435	0.00588
2054.01570	0.00629
2052.08705	0.00650
2050.15839	0.00657
2048.22974	0.00643
2046.30109	0.00607
2044.37243	0.00584
2042.44378	0.00589
2040.51513	0.00579
2038.58647	0.00520
2036.65782	0.00446
2034.72917	0.00434
2032.80052	0.00482
2030.87186	0.00514
2028.94321	0.00516
2027.01456	0.00498
2025.08590	0.00469
2023.15725	0.00474
2021.22860	0.00532
2019.29994	0.00581
2017.37129	0.00558
2015.44264	0.00514
2013.51398	0.00524
2011.58533	0.00551
2009.65668	0.00536
2007.72802	0.00517
2005.79937	0.00540
2003.87072	0.00564
2001.94206	0.00555
2000.01341	0.00571
1998.08476	0.00636
1996.15610	0.00676
1994.22745	0.00630
1992.29880	0.00507
1990.37014	0.00391
1988.44149	0.00391
1986.51284	0.00485
1984.58418	0.00553
1982.65553	0.00557
1980.72688	0.00568
1978.79822	0.00632
1976.86957	0.00700
1974.94092	0.00728
1973.01226	0.00709
1971.08361	0.00645
1969.15496	0.00599
1967.22631	0.00608
1965.29765	0.00629
1963.36900	0.00617
1961.44035	0.00567
1959.51169	0.00529
1957.58304	0.00561
1955.65439	0.00635
1953.72573	0.00674
1951.79708	0.00659
1949.86843	0.00630
1947.93977	0.00626
1946.01112	0.00664
1944.08247	0.00715
1942.15381	0.00746
1940.22516	0.00762
1938.29651	0.00763
1936.36785	0.00742
1934.43920	0.00717
1932.51055	0.00710
1930.58189	0.00735
1928.65324	0.00782
1926.72459	0.00811
1924.79593	0.00796
1922.86728	0.00759
1920.93863	0.00745
1919.00997	0.00758
1917.08132	0.00765
1915.15267	0.00754
1913.22401	0.00747
1911.29536	0.00762
1909.36671	0.00791
1907.43805	0.00813
1905.50940	0.00819
1903.58075	0.00821
1901.65209	0.00823
1899.72344	0.00815
1897.79479	0.00796
1895.86614	0.00786
1893.93748	0.00800
1892.00883	0.00821
1890.08018	0.00828
1888.15152	0.00821
1886.22287	0.00820
1884.29422	0.00826
1882.36556	0.00825
1880.43691	0.00825
1878.50826	0.00834
1876.57960	0.00843
1874.65095	0.00853
1872.72230	0.00872
1870.79364	0.00880
1868.86499	0.00871
1866.93634	0.00860
1865.00768	0.00856
1863.07903	0.00851
1861.15038	0.00844
1859.22172	0.00845
1857.29307	0.00853
1855.36442	0.00857
1853.43576	0.00853
1851.50711	0.00849
1849.57846	0.00850
1847.64980	0.00852
1845.72115	0.00850
1843.79250	0.00838
1841.86384	0.00830
1839.93519	0.00840
1838.00654	0.00859
1836.07788	0.00868
1834.14923	0.00868
1832.22058	0.00863
1830.29192	0.00857
1828.36327	0.00852
1826.43462	0.00856
1824.50597	0.00869
1822.57731	0.00884
1820.64866	0.00892
1818.72001	0.00882
1816.79135	0.00856
1814.86270	0.00838
1812.93405	0.00841
1811.00539	0.00853
1809.07674	0.00857
1807.14809	0.00852
1805.21943	0.00848
1803.29078	0.00851
1801.36213	0.00857
1799.43347	0.00868
1797.50482	0.00884
1795.57617	0.00897
1793.64751	0.00895
1791.71886	0.00885
1789.79021	0.00885
1787.86155	0.00894
1785.93290	0.00899
1784.00425	0.00894
1782.07559	0.00887
1780.14694	0.00882
1778.21829	0.00879
1776.28963	0.00876
1774.36098	0.00875
1772.43233	0.00882
1770.50367	0.00883
1768.57502	0.00873
1766.64637	0.00866
1764.71771	0.00872
1762.78906	0.00878
1760.86041	0.00877
1758.93176	0.00880
1757.00310	0.00894
1755.07445	0.00904
1753.14580	0.00902
1751.21714	0.00898
1749.28849	0.00903
1747.35984	0.00910
1745.43118	0.00913
1743.50253	0.00912
1741.57388	0.00916
1739.64522	0.00925
1737.71657	0.00931
1735.78792	0.00934
1733.85926	0.00941
1731.93061	0.00950
1730.00196	0.00955
1728.07330	0.00957
1726.14465	0.00963
1724.21600	0.00974
1722.28734	0.00990
1720.35869	0.01004
1718.43004	0.01014
1716.50138	0.01025
1714.57273	0.01040
1712.64408	0.01065
1710.71542	0.01098
1708.78677	0.01134
1706.85812	0.01172
1704.92946	0.01215
1703.00081	0.01269
1701.07216	0.01337
1699.14350	0.01412
1697.21485	0.01495
1695.28620	0.01589
1693.35754	0.01687
1691.42889	0.01784
1689.50024	0.01884
1687.57159	0.01990
1685.64293	0.02098
1683.71428	0.02201
1681.78563	0.02296
1679.85697	0.02386
1677.92832	0.02478
1675.99967	0.02574
1674.07101	0.02666
1672.14236	0.02757
1670.21371	0.02850
1668.28505	0.02942
1666.35640	0.03023
1664.42775	0.03101
1662.49909	0.03181
1660.57044	0.03263
1658.64179	0.03341
1656.71313	0.03408
1654.78448	0.03461
1652.85583	0.03504
1650.92717	0.03539
1648.99852	0.03566
1647.06987	0.03588
1645.14121	0.03601
1643.21256	0.03610
1641.28391	0.03617
1639.35525	0.03615
1637.42660	0.03595
1635.49795	0.03561
1633.56929	0.03520
1631.64064	0.03469
1629.71199	0.03406
1627.78333	0.03339
1625.85468	0.03274
1623.92603	0.03206
1621.99738	0.03132
1620.06872	0.03058
1618.14007	0.02984
1616.21142	0.02906
1614.28276	0.02826
1612.35411	0.02750
1610.42546	0.02680
1608.49680	0.02616
1606.56815	0.02560
1604.63950	0.02513
1602.71084	0.02471
1600.78219	0.02433
1598.85354	0.02399
1596.92488	0.02370
1594.99623	0.02347
1593.06758	0.02334
1591.13892	0.02329
1589.21027	0.02329
1587.28162	0.02331
1585.35296	0.02334
1583.42431	0.02344
1581.49566	0.02358
1579.56700	0.02374
1577.63835	0.02389
1575.70970	0.02410
1573.78104	0.02441
1571.85239	0.02473
1569.92374	0.02501
1567.99508	0.02529
1566.06643	0.02561
1564.13778	0.02596
1562.20912	0.02632
1560.28047	0.02672
1558.35182	0.02708
1556.42316	0.02736
1554.49451	0.02761
1552.56586	0.02786
1550.63721	0.02804
1548.70855	0.02817
1546.77990	0.02831
1544.85125	0.02844
1542.92259	0.02849
1540.99394	0.02847
1539.06529	0.02840
1537.13663	0.02827
1535.20798	0.02810
1533.27933	0.02788
1531.35067	0.02762
1529.42202	0.02734
1527.49337	0.02706
1525.56471	0.02677
1523.63606	0.02649
1521.70741	0.02618
1519.77875	0.02582
1517.85010	0.02541
1515.92145	0.02500
1513.99279	0.02451
1512.06414	0.02393
1510.13549	0.02342
1508.20683	0.02304
1506.27818	0.02267
1504.34953	0.02226
1502.42087	0.02187
1500.49222	0.02154
1498.56357	0.02123
1496.63491	0.02096
1494.70626	0.02074
1492.77761	0.02058
1490.84895	0.02049
1488.92030	0.02041
1486.99165	0.02034
1485.06299	0.02037
1483.13434	0.02051
1481.20569	0.02076
1479.27704	0.02105
1477.34838	0.02136
1475.41973	0.02170
1473.49108	0.02209
1471.56242	0.02246
1469.63377	0.02279
1467.70512	0.02309
1465.77646	0.02339
1463.84781	0.02373
1461.91916	0.02409
1459.99050	0.02445
1458.06185	0.02478
1456.13320	0.02499
1454.20454	0.02504
1452.27589	0.02499
1450.34724	0.02483
1448.41858	0.02456
1446.48993	0.02423
1444.56128	0.02393
1442.63262	0.02365
1440.70397	0.02342
1438.77532	0.02329
1436.84666	0.02329
1434.91801	0.02332
1432.98936	0.02336
1431.06070	0.02348
1429.13205	0.02366
1427.20340	0.02385
1425.27474	0.02403
1423.34609	0.02422
1421.41744	0.02439
1419.48878	0.02450
1417.56013	0.02456
1415.63148	0.02457
1413.70283	0.02451
1411.77417	0.02442
1409.84552	0.02427
1407.91687	0.02403
1405.98821	0.02366
1404.05956	0.02324
1402.13091	0.02284
1400.20225	0.02242
1398.27360	0.02191
1396.34495	0.02136
1394.41629	0.02088
1392.48764	0.02045
1390.55899	0.02003
1388.63033	0.01960
1386.70168	0.01915
1384.77303	0.01872
1382.84437	0.01829
1380.91572	0.01791
1378.98707	0.01759
1377.05841	0.01729
1375.12976	0.01697
1373.20111	0.01666
1371.27245	0.01637
1369.34380	0.01608
1367.41515	0.01582
1365.48649	0.01561
1363.55784	0.01542
1361.62919	0.01520
1359.70053	0.01503
1357.77188	0.01499
1355.84323	0.01506
1353.91457	0.01511
1351.98592	0.01508
1350.05727	0.01503
1348.12861	0.01504
1346.19996	0.01512
1344.27131	0.01519
1342.34266	0.01517
1340.41400	0.01512
1338.48535	0.01514
1336.55670	0.01520
1334.62804	0.01523
1332.69939	0.01520
1330.77074	0.01515
1328.84208	0.01512
1326.91343	0.01507
1324.98478	0.01499
1323.05612	0.01491
1321.12747	0.01488
1319.19882	0.01483
1317.27016	0.01479
1315.34151	0.01478
1313.41286	0.01479
1311.48420	0.01473
1309.55555	0.01465
1307.62690	0.01462
1305.69824	0.01460
1303.76959	0.01454
1301.84094	0.01440
1299.91228	0.01424
1297.98363	0.01409
1296.05498	0.01405
1294.12632	0.01418
1292.19767	0.01434
1290.26902	0.01442
1288.34036	0.01447
1286.41171	0.01452
1284.48306	0.01455
1282.55440	0.01457
1280.62575	0.01457
1278.69710	0.01458
1276.76845	0.01458
1274.83979	0.01457
1272.91114	0.01456
1270.98249	0.01459
1269.05383	0.01464
1267.12518	0.01467
1265.19653	0.01471
1263.26787	0.01480
1261.33922	0.01493
1259.41057	0.01502
1257.48191	0.01507
1255.55326	0.01510
1253.62461	0.01515
1251.69595	0.01522
1249.76730	0.01538
1247.83865	0.01553
1245.90999	0.01559
1243.98134	0.01559
1242.05269	0.01556
1240.12403	0.01549
1238.19538	0.01540
1236.26673	0.01532
1234.33807	0.01521
1232.40942	0.01504
1230.48077	0.01487
1228.55211	0.01470
1226.62346	0.01451
1224.69481	0.01428
1222.76615	0.01408
1220.83750	0.01393
1218.90885	0.01381
1216.98019	0.01373
1215.05154	0.01371
1213.12289	0.01371
1211.19423	0.01370
1209.26558	0.01372
1207.33693	0.01377
1205.40828	0.01383
1203.47962	0.01394
1201.55097	0.01411
1199.62232	0.01409
1197.69366	0.01412
1195.76501	0.01415
1193.83636	0.01422
1191.90770	0.01431
1189.97905	0.01440
1188.05040	0.01446
1186.12174	0.01453
1184.19309	0.01470
1182.26444	0.01503
1180.33578	0.01538
1178.40713	0.01568
1176.47848	0.01600
1174.54982	0.01636
1172.62117	0.01678
1170.69252	0.01727
1168.76386	0.01780
1166.83521	0.01835
1164.90656	0.01899
1162.97790	0.01972
1161.04925	0.02043
1159.12060	0.02102
1157.19194	0.02163
1155.26329	0.02238
1153.33464	0.02317
1151.40598	0.02391
1149.47733	0.02469
1147.54868	0.02548
1145.62002	0.02620
1143.69137	0.02695
1141.76272	0.02777
1139.83406	0.02853
1137.90541	0.02932
1135.97676	0.03031
1134.04811	0.03148
1132.11945	0.03285
1130.19080	0.03452
1128.26215	0.03651
1126.33349	0.03871
1124.40484	0.04109
1122.47619	0.04367
1120.54753	0.04647
1118.61888	0.04944
1116.69023	0.05248
1114.76157	0.05553
1112.83292	0.05857
1110.90427	0.06167
1108.97561	0.06484
1107.04696	0.06804
1105.11831	0.07122
1103.18965	0.07433
1101.26100	0.07733
1099.33235	0.08012
1097.40369	0.08256
1095.47504	0.08467
1093.54639	0.08648
1091.61773	0.08794
1089.68908	0.08904
1087.76043	0.08999
1085.83177	0.09101
1083.90312	0.09230
1081.97447	0.09410
1080.04581	0.09647
1078.11716	0.09920
1076.18851	0.10216
1074.25985	0.10527
1072.33120	0.10836
1070.40255	0.11133
1068.47390	0.11419
1066.54524	0.11705
1064.61659	0.12002
1062.68794	0.12320
1060.75928	0.12652
1058.83063	0.12975
1056.90198	0.13288
1054.97332	0.13608
1053.04467	0.13956
1051.11602	0.14322
1049.18736	0.14678
1047.25871	0.15024
1045.33006	0.15380
1043.40140	0.15760
1041.47275	0.16147
1039.54410	0.16513
1037.61544	0.16847
1035.68679	0.17165
1033.75814	0.17466
1031.82948	0.17729
1029.90083	0.17913
1027.97218	0.17996
1026.04352	0.17998
1024.11487	0.17968
1022.18622	0.17928
1020.25756	0.17857
1018.32891	0.17739
1016.40026	0.17577
1014.47160	0.17377
1012.54295	0.17145
1010.61430	0.16899
1008.68564	0.16644
1006.75699	0.16373
1004.82834	0.16083
1002.89968	0.15789
1000.97103	0.15497
999.04238	0.15198
997.11373	0.14879
995.18507	0.14538
993.25642	0.14184
991.32777	0.13832
989.39911	0.13484
987.47046	0.13126
985.54181	0.12764
983.61315	0.12406
981.68450	0.12043
979.75585	0.11671
977.82719	0.11310
975.89854	0.10969
973.96989	0.10656
972.04123	0.10388
970.11258	0.10197
968.18393	0.10112
966.25527	0.10120
964.32662	0.10142
962.39797	0.10099
960.46931	0.09986
958.54066	0.09837
956.61201	0.09653
954.68335	0.09442
952.75470	0.09230
950.82605	0.09020
948.89739	0.08799
946.96874	0.08580
945.04009	0.08372
943.11143	0.08164
941.18278	0.07957
939.25413	0.07761
937.32547	0.07571
935.39682	0.07385
933.46817	0.07225
931.53952	0.07096
929.61086	0.06971
927.68221	0.06844
925.75356	0.06725
923.82490	0.06621
921.89625	0.06529
919.96760	0.06451
918.03894	0.06373
916.11029	0.06280
914.18164	0.06188
912.25298	0.06114
910.32433	0.06053
908.39568	0.06009
906.46702	0.05991
904.53837	0.05981
902.60972	0.05960
900.68106	0.05933
898.75241	0.05915
896.82376	0.05912
894.89510	0.05911
892.96645	0.05890
891.03780	0.05850
889.10914	0.05831
887.18049	0.05847
885.25184	0.05866
883.32318	0.05876
881.39453	0.05886
879.46588	0.05903
877.53722	0.05941
875.60857	0.05997
873.67992	0.06042
871.75126	0.06058
869.82261	0.06049
867.89396	0.06024
865.96530	0.05981
864.03665	0.05923
862.10800	0.05857
860.17935	0.05786
858.25069	0.05711
856.32204	0.05639
854.39339	0.05573
852.46473	0.05510
850.53608	0.05451
848.60743	0.05389
846.67877	0.05319
844.75012	0.05251
842.82147	0.05188
840.89281	0.05125
838.96416	0.05063
837.03551	0.05009
835.10685	0.04968
833.17820	0.04932
831.24955	0.04881
829.32089	0.04825
827.39224	0.04785
825.46359	0.04760
823.53493	0.04742
821.60628	0.04721
819.67763	0.04700
817.74897	0.04678
815.82032	0.04641
813.89167	0.04611
811.96301	0.04611
810.03436	0.04603
808.10571	0.04568
806.17705	0.04537
804.24840	0.04524
802.31975	0.04521
800.39109	0.04526
798.46244	0.04536
796.53379	0.04521
794.60513	0.04477
792.67648	0.04450
790.74783	0.04461
788.81918	0.04478
786.89052	0.04485
784.96187	0.04493
783.03322	0.04499
781.10456	0.04501
779.17591	0.04519
777.24726	0.04543
775.31860	0.04551
773.38995	0.04532
771.46130	0.04496
769.53264	0.04477
767.60399	0.04479
765.67534	0.04487
763.74668	0.04502
761.81803	0.04532
759.88938	0.04579
757.96072	0.04625
756.03207	0.04646
754.10342	0.04630
752.17476	0.04597
750.24611	0.04586
748.31746	0.04593
746.38880	0.04591
744.46015	0.04585
742.53150	0.04587
740.60284	0.04579
738.67419	0.04566
736.74554	0.04591
734.81688	0.04635
732.88823	0.04668
730.95958	0.04720
729.03092	0.04769
727.10227	0.04755
725.17362	0.04700
723.24497	0.04659
721.31631	0.04668
719.38766	0.04668
717.45901	0.04668
715.53035	0.04698
713.60170	0.04722
711.67305	0.04713
709.74439	0.04707
707.81574	0.04716
705.88709	0.04725
703.95843	0.04740
702.02978	0.04760
700.10113	0.04769
698.17247	0.04773
696.24382	0.04775
694.31517	0.04768
692.38651	0.04746
690.45786	0.04719
688.52921	0.04700
686.60055	0.04701
684.67190	0.04722
682.74325	0.04741
680.81459	0.04736
678.88594	0.04708
676.95729	0.04686
675.02863	0.04693
673.09998	0.04712
671.17133	0.04721
669.24267	0.04734
667.31402	0.04739
665.38537	0.04709
663.45671	0.04672
661.52806	0.04654
659.59941	0.04641
657.67075	0.04637
655.74210	0.04658
653.81345	0.04695
651.88480	0.04752
649.95614	0.04805
648.02749	0.04752
646.09884	0.04620
644.17018	0.04570
642.24153	0.04618
640.31288	0.04679
638.38422	0.04745
636.45557	0.04816
634.52692	0.04855
632.59826	0.04882
630.66961	0.04847
628.74096	0.04585
626.81230	0.05123
624.88365	0.06010
622.95500	0.06771
621.02634	0.06908
619.09769	0.06694
617.16904	0.06638
615.24038	0.06734
613.31173	0.07333
611.38308	0.08785
609.45442	0.10369
607.52577	0.11481
605.59712	0.12394
603.66846	0.13076
601.73981	0.13292
599.81116	0.13049
597.88250	0.12477
595.95385	0.11796
594.02520	0.11248
592.09654	0.10917
590.16789	0.10743
588.23924	0.10686
586.31059	0.10800
584.38193	0.11146
582.45328	0.11680
580.52463	0.12314
578.59597	0.12992
576.66732	0.13629
574.73867	0.14151
572.81001	0.14636
570.88136	0.15233
568.95271	0.15937
567.02405	0.16616
565.09540	0.17188
563.16675	0.17597
561.23809	0.17780
559.30944	0.17702
557.38079	0.17333
555.45213	0.16759
553.52348	0.16163
551.59483	0.15640
549.66617	0.15180
547.73752	0.14786
545.80887	0.14439
543.88021	0.14086
541.95156	0.13703
540.02291	0.13318
538.09425	0.13005
536.16560	0.12787
534.23695	0.12578
532.30829	0.12326
530.37964	0.12089
528.45099	0.11896
526.52233	0.11666
524.59368	0.11369
522.66503	0.11073
520.73637	0.10787
518.80772	0.10477
516.87907	0.10183
514.95042	0.09954
513.02176	0.09790
511.09311	0.09670
509.16446	0.09557
507.23580	0.09409
505.30715	0.09197
503.37850	0.08895
501.44984	0.08578
499.52119	0.08392
497.59254	0.08356
495.66388	0.08348
493.73523	0.08262
491.80658	0.08104
489.87792	0.07955
487.94927	0.07867
486.02062	0.07819
484.09196	0.07786
482.16331	0.07770
480.23466	0.07755
478.30600	0.07710
476.37735	0.07647
474.44870	0.07620
472.52004	0.07651
470.59139	0.07699
468.66274	0.07725
466.73408	0.07721
464.80543	0.07668
462.87678	0.07550
460.94812	0.07404
459.01947	0.07274
457.09082	0.07174
455.16216	0.07109
453.23351	0.07065
451.30486	0.07000
449.37620	0.06909
447.44755	0.06844
445.51890	0.06816
443.59025	0.06771
441.66159	0.06710
439.73294	0.06684
437.80429	0.06690
435.87563	0.06687
433.94698	0.06667
432.01833	0.06641
430.08967	0.06610
428.16102	0.06570
426.23237	0.06515
424.30371	0.06448
422.37506	0.06395
420.44641	0.06374
418.51775	0.06358
416.58910	0.06318
414.66045	0.06274
412.73179	0.06259
410.80314	0.06259
408.87449	0.06248
406.94583	0.06244
405.01718	0.06247
403.08853	0.06222
401.15987	0.06162
399.23122	0.06108
