3997.45528	0.01858
3996.16951	0.01854
3994.88374	0.01838
3993.59798	0.01808
3992.31221	0.01772
3991.02644	0.01744
3989.74067	0.01736
3988.45490	0.01748
3987.16913	0.01770
3985.88336	0.01794
3984.59759	0.01816
3983.31183	0.01832
3982.02606	0.01836
3980.74029	0.01836
3979.45452	0.01846
3978.16875	0.01872
3976.88298	0.01898
3975.59721	0.01904
3974.31144	0.01875
3973.02567	0.01810
3971.73991	0.01734
3970.45414	0.01690
3969.16837	0.01700
3967.88260	0.01741
3966.59683	0.01763
3965.31106	0.01741
3964.02529	0.01696
3962.73952	0.01665
3961.45376	0.01664
3960.16799	0.01674
3958.88222	0.01666
3957.59645	0.01634
3956.31068	0.01601
3955.02491	0.01595
3953.73914	0.01630
3952.45337	0.01693
3951.16760	0.01762
3949.88184	0.01803
3948.59607	0.01795
3947.31030	0.01739
3946.02453	0.01659
3944.73876	0.01587
3943.45299	0.01546
3942.16722	0.01551
3940.88145	0.01604
3939.59569	0.01687
3938.30992	0.01772
3937.02415	0.01837
3935.73838	0.01864
3934.45261	0.01843
3933.16684	0.01778
3931.88107	0.01702
3930.59530	0.01657
3929.30953	0.01658
3928.02377	0.01678
3926.73800	0.01686
3925.45223	0.01687
3924.16646	0.01702
3922.88069	0.01732
3921.59492	0.01754
3920.30915	0.01757
3919.02338	0.01757
3917.73762	0.01777
3916.45185	0.01824
3915.16608	0.01871
3913.88031	0.01883
3912.59454	0.01845
3911.30877	0.01775
3910.02300	0.01708
3908.73723	0.01670
3907.45146	0.01666
3906.16570	0.01676
3904.87993	0.01669
3903.59416	0.01636
3902.30839	0.01595
3901.02262	0.01582
3899.73685	0.01615
3898.45108	0.01692
3897.16531	0.01784
3895.87955	0.01854
3894.59378	0.01876
3893.30801	0.01856
3892.02224	0.01826
3890.73647	0.01821
3889.45070	0.01831
3888.16493	0.01811
3886.87916	0.01739
3885.59339	0.01645
3884.30763	0.01577
3883.02186	0.01561
3881.73609	0.01587
3880.45032	0.01636
3879.16455	0.01686
3877.87878	0.01723
3876.59301	0.01749
3875.30724	0.01768
3874.02148	0.01771
3872.73571	0.01744
3871.44994	0.01695
3870.16417	0.01665
3868.87840	0.01678
3867.59263	0.01716
3866.30686	0.01754
3865.02109	0.01788
3863.73532	0.01812
3862.44956	0.01801
3861.16379	0.01747
3859.87802	0.01676
3858.59225	0.01633
3857.30648	0.01641
3856.02071	0.01684
3854.73494	0.01738
3853.44917	0.01789
3852.16341	0.01828
3850.87764	0.01842
3849.59187	0.01840
3848.30610	0.01839
3847.02033	0.01837
3845.73456	0.01820
3844.44879	0.01781
3843.16302	0.01742
3841.87725	0.01722
3840.59149	0.01707
3839.30572	0.01670
3838.01995	0.01612
3836.73418	0.01555
3835.44841	0.01522
3834.16264	0.01520
3832.87687	0.01547
3831.59110	0.01592
3830.30534	0.01632
3829.01957	0.01647
3827.73380	0.01638
3826.44803	0.01619
3825.16226	0.01601
3823.87649	0.01576
3822.59072	0.01547
3821.30495	0.01541
3820.01918	0.01572
3818.73342	0.01601
3817.44765	0.01582
3816.16188	0.01527
3814.87611	0.01487
3813.59034	0.01491
3812.30457	0.01533
3811.01880	0.01591
3809.73303	0.01641
3808.44726	0.01684
3807.16150	0.01741
3805.87573	0.01822
3804.58996	0.01892
3803.30419	0.01908
3802.01842	0.01872
3800.73265	0.01817
3799.44688	0.01758
3798.16111	0.01695
3796.87535	0.01645
3795.58958	0.01622
3794.30381	0.01613
3793.01804	0.01588
3791.73227	0.01544
3790.44650	0.01503
3789.16073	0.01489
3787.87496	0.01506
3786.58919	0.01537
3785.30343	0.01564
3784.01766	0.01584
3782.73189	0.01604
3781.44612	0.01635
3780.16035	0.01682
3778.87458	0.01740
3777.58881	0.01787
3776.30304	0.01810
3775.01728	0.01815
3773.73151	0.01809
3772.44574	0.01774
3771.15997	0.01698
3769.87420	0.01600
3768.58843	0.01522
3767.30266	0.01488
3766.01689	0.01483
3764.73112	0.01481
3763.44536	0.01466
3762.15959	0.01447
3760.87382	0.01446
3759.58805	0.01478
3758.30228	0.01539
3757.01651	0.01606
3755.73074	0.01646
3754.44497	0.01635
3753.15921	0.01584
3751.87344	0.01530
3750.58767	0.01491
3749.30190	0.01469
3748.01613	0.01451
3746.73036	0.01428
3745.44459	0.01412
3744.15882	0.01427
3742.87305	0.01450
3741.58729	0.01430
3740.30152	0.01366
3739.01575	0.01306
3737.72998	0.01286
3736.44421	0.01302
3735.15844	0.01326
3733.87267	0.01328
3732.58690	0.01305
3731.30114	0.01287
3730.01537	0.01296
3728.72960	0.01327
3727.44383	0.01361
3726.15806	0.01390
3724.87229	0.01406
3723.58652	0.01404
3722.30075	0.01388
3721.01498	0.01363
3719.72922	0.01329
3718.44345	0.01289
3717.15768	0.01258
3715.87191	0.01245
3714.58614	0.01244
3713.30037	0.01242
3712.01460	0.01243
3710.72883	0.01254
3709.44307	0.01273
3708.15730	0.01285
3706.87153	0.01280
3705.58576	0.01257
3704.29999	0.01226
3703.01422	0.01201
3701.72845	0.01201
3700.44268	0.01235
3699.15691	0.01283
3697.87115	0.01324
3696.58538	0.01345
3695.29961	0.01341
3694.01384	0.01324
3692.72807	0.01324
3691.44230	0.01350
3690.15653	0.01384
3688.87076	0.01417
3687.58500	0.01449
3686.29923	0.01462
3685.01346	0.01436
3683.72769	0.01377
3682.44192	0.01329
3681.15615	0.01340
3679.87038	0.01424
3678.58461	0.01538
3677.29884	0.01620
3676.01308	0.01645
3674.72731	0.01625
3673.44154	0.01574
3672.15577	0.01503
3670.87000	0.01447
3669.58423	0.01443
3668.29846	0.01485
3667.01269	0.01533
3665.72693	0.01548
3664.44116	0.01521
3663.15539	0.01474
3661.86962	0.01453
3660.58385	0.01488
3659.29808	0.01563
3658.01231	0.01632
3656.72654	0.01670
3655.44077	0.01687
3654.15501	0.01700
3652.86924	0.01713
3651.58347	0.01725
3650.29770	0.01738
3649.01193	0.01752
3647.72616	0.01763
3646.44039	0.01772
3645.15462	0.01785
3643.86886	0.01796
3642.58309	0.01795
3641.29732	0.01783
3640.01155	0.01774
3638.72578	0.01781
3637.44001	0.01801
3636.15424	0.01827
3634.86847	0.01855
3633.58270	0.01884
3632.29694	0.01910
3631.01117	0.01928
3629.72540	0.01952
3628.43963	0.01998
3627.15386	0.02063
3625.86809	0.02124
3624.58232	0.02167
3623.29655	0.02191
3622.01079	0.02192
3620.72502	0.02175
3619.43925	0.02160
3618.15348	0.02160
3616.86771	0.02171
3615.58194	0.02183
3614.29617	0.02202
3613.01040	0.02243
3611.72463	0.02302
3610.43887	0.02355
3609.15310	0.02383
3607.86733	0.02386
3606.58156	0.02370
3605.29579	0.02344
3604.01002	0.02331
3602.72425	0.02352
3601.43848	0.02414
3600.15272	0.02498
3598.86695	0.02572
3597.58118	0.02626
3596.29541	0.02670
3595.00964	0.02708
3593.72387	0.02725
3592.43810	0.02714
3591.15233	0.02686
3589.86656	0.02658
3588.58080	0.02658
3587.29503	0.02705
3586.00926	0.02788
3584.72349	0.02870
3583.43772	0.02925
3582.15195	0.02944
3580.86618	0.02932
3579.58041	0.02907
3578.29464	0.02891
3577.00888	0.02901
3575.72311	0.02936
3574.43734	0.02972
3573.15157	0.02990
3571.86580	0.02998
3570.58003	0.03013
3569.29426	0.03041
3568.00849	0.03081
3566.72273	0.03126
3565.43696	0.03174
3564.15119	0.03217
3562.86542	0.03246
3561.57965	0.03260
3560.29388	0.03262
3559.00811	0.03264
3557.72234	0.03283
3556.43657	0.03324
3555.15081	0.03369
3553.86504	0.03391
3552.57927	0.03377
3551.29350	0.03344
3550.00773	0.03328
3548.72196	0.03346
3547.43619	0.03389
3546.15042	0.03443
3544.86466	0.03503
3543.57889	0.03572
3542.29312	0.03644
3541.00735	0.03706
3539.72158	0.03748
3538.43581	0.03763
3537.15004	0.03761
3535.86427	0.03761
3534.57850	0.03778
3533.29274	0.03800
3532.00697	0.03803
3530.72120	0.03787
3529.43543	0.03776
3528.14966	0.03793
3526.86389	0.03834
3525.57812	0.03890
3524.29235	0.03951
3523.00659	0.04014
3521.72082	0.04071
3520.43505	0.04122
3519.14928	0.04175
3517.86351	0.04224
3516.57774	0.04243
3515.29197	0.04212
3514.00620	0.04147
3512.72043	0.04085
3511.43467	0.04054
3510.14890	0.04053
3508.86313	0.04069
3507.57736	0.04103
3506.29159	0.04166
3505.00582	0.04256
3503.72005	0.04350
3502.43428	0.04418
3501.14852	0.04447
3499.86275	0.04449
3498.57698	0.04447
3497.29121	0.04449
3496.00544	0.04452
3494.71967	0.04449
3493.43390	0.04439
3492.14813	0.04425
3490.86236	0.04417
3489.57660	0.04424
3488.29083	0.04456
3487.00506	0.04510
3485.71929	0.04563
3484.43352	0.04595
3483.14775	0.04605
3481.86198	0.04616
3480.57621	0.04642
3479.29045	0.04677
3478.00468	0.04704
3476.71891	0.04712
3475.43314	0.04703
3474.14737	0.04680
3472.86160	0.04653
3471.57583	0.04631
3470.29006	0.04623
3469.00429	0.04630
3467.71853	0.04654
3466.43276	0.04695
3465.14699	0.04757
3463.86122	0.04831
3462.57545	0.04905
3461.28968	0.04963
3460.00391	0.04997
3458.71814	0.05006
3457.43238	0.04998
3456.14661	0.04992
3454.86084	0.05003
3453.57507	0.05027
3452.28930	0.05040
3451.00353	0.05029
3449.71776	0.05004
3448.43199	0.05000
3447.14622	0.05042
3445.86046	0.05119
3444.57469	0.05193
3443.28892	0.05232
3442.00315	0.05241
3440.71738	0.05241
3439.43161	0.05241
3438.14584	0.05232
3436.86007	0.05211
3435.57431	0.05194
3434.28854	0.05190
3433.00277	0.05194
3431.71700	0.05203
3430.43123	0.05229
3429.14546	0.05292
3427.85969	0.05395
3426.57392	0.05511
3425.28815	0.05599
3424.00239	0.05635
3422.71662	0.05621
3421.43085	0.05582
3420.14508	0.05548
3418.85931	0.05535
3417.57354	0.05538
3416.28777	0.05546
3415.00200	0.05554
3413.71624	0.05570
3412.43047	0.05598
3411.14470	0.05628
3409.85893	0.05642
3408.57316	0.05634
3407.28739	0.05623
3406.00162	0.05629
3404.71585	0.05651
3403.43008	0.05673
3402.14432	0.05690
3400.85855	0.05726
3399.57278	0.05805
3398.28701	0.05899
3397.00124	0.05979
3395.71547	0.06010
3394.42970	0.05985
3393.14393	0.05932
3391.85817	0.05885
3390.57240	0.05858
3389.28663	0.05851
3388.00086	0.05854
3386.71509	0.05863
3385.42932	0.05876
3384.14355	0.05894
3382.85778	0.05925
3381.57201	0.05968
3380.28625	0.06020
3379.00048	0.06072
3377.71471	0.06119
3376.42894	0.06155
3375.14317	0.06176
3373.85740	0.06188
3372.57163	0.06201
3371.28586	0.06215
3370.00010	0.06217
3368.71433	0.06202
3367.42856	0.06183
3366.14279	0.06179
3364.85702	0.06195
3363.57125	0.06221
3362.28548	0.06239
3360.99971	0.06247
3359.71394	0.06259
3358.42818	0.06289
3357.14241	0.06335
3355.85664	0.06381
3354.57087	0.06414
3353.28510	0.06440
3351.99933	0.06474
3350.71356	0.06517
3349.42779	0.06554
3348.14202	0.06570
3346.85626	0.06567
3345.57049	0.06563
3344.28472	0.06579
3342.99895	0.06625
3341.71318	0.06693
3340.42741	0.06763
3339.14164	0.06811
3337.85587	0.06830
3336.57011	0.06836
3335.28434	0.06848
3333.99857	0.06872
3332.71280	0.06898
3331.42703	0.06916
3330.14126	0.06930
3328.85549	0.06943
3327.56972	0.06956
3326.28395	0.06973
3324.99819	0.07004
3323.71242	0.07050
3322.42665	0.07100
3321.14088	0.07137
3319.85511	0.07153
3318.56934	0.07157
3317.28357	0.07166
3315.99780	0.07187
3314.71204	0.07210
3313.42627	0.07215
3312.14050	0.07191
3310.85473	0.07150
3309.56896	0.07114
3308.28319	0.07107
3306.99742	0.07134
3305.71165	0.07178
3304.42588	0.07216
3303.14012	0.07237
3301.85435	0.07252
3300.56858	0.07283
3299.28281	0.07338
3297.99704	0.07397
3296.71127	0.07432
3295.42550	0.07427
3294.13973	0.07389
3292.85397	0.07340
3291.56820	0.07301
3290.28243	0.07284
3288.99666	0.07285
3287.71089	0.07292
3286.42512	0.07304
3285.13935	0.07326
3283.85358	0.07360
3282.56781	0.07391
3281.28205	0.07404
3279.99628	0.07395
3278.71051	0.07380
3277.42474	0.07375
3276.13897	0.07388
3274.85320	0.07419
3273.56743	0.07456
3272.28166	0.07482
3270.99590	0.07484
3269.71013	0.07460
3268.42436	0.07424
3267.13859	0.07397
3265.85282	0.07397
3264.56705	0.07424
3263.28128	0.07465
3261.99551	0.07501
3260.70974	0.07519
3259.42398	0.07508
3258.13821	0.07472
3256.85244	0.07426
3255.56667	0.07395
3254.28090	0.07391
3252.99513	0.07409
3251.70936	0.07427
3250.42359	0.07421
3249.13783	0.07384
3247.85206	0.07326
3246.56629	0.07271
3245.28052	0.07240
3243.99475	0.07234
3242.70898	0.07238
3241.42321	0.07237
3240.13744	0.07224
3238.85167	0.07203
3237.56591	0.07186
3236.28014	0.07185
3234.99437	0.07194
3233.70860	0.07199
3232.42283	0.07191
3231.13706	0.07165
3229.85129	0.07122
3228.56552	0.07067
3227.27976	0.07013
3225.99399	0.06978
3224.70822	0.06966
3223.42245	0.06966
3222.13668	0.06968
3220.85091	0.06973
3219.56514	0.06983
3218.27937	0.06988
3216.99360	0.06974
3215.70784	0.06941
3214.42207	0.06901
3213.13630	0.06865
3211.85053	0.06845
3210.56476	0.06841
3209.27899	0.06850
3207.99322	0.06862
3206.70745	0.06878
3205.42169	0.06912
3204.13592	0.06967
3202.85015	0.07028
3201.56438	0.07069
3200.27861	0.07073
3198.99284	0.07046
3197.70707	0.07008
3196.42130	0.06979
3195.13553	0.06967
3193.84977	0.06964
3192.56400	0.06954
3191.27823	0.06926
3189.99246	0.06886
3188.70669	0.06852
3187.42092	0.06844
3186.13515	0.06859
3184.84938	0.06869
3183.56362	0.06846
3182.27785	0.06789
3180.99208	0.06730
3179.70631	0.06703
3178.42054	0.06714
3177.13477	0.06743
3175.84900	0.06760
3174.56323	0.06751
3173.27746	0.06715
3171.99170	0.06669
3170.70593	0.06630
3169.42016	0.06607
3168.13439	0.06596
3166.84862	0.06594
3165.56285	0.06599
3164.27708	0.06604
3162.99131	0.06592
3161.70555	0.06549
3160.41978	0.06484
3159.13401	0.06422
3157.84824	0.06384
3156.56247	0.06374
3155.27670	0.06378
3153.99093	0.06386
3152.70516	0.06390
3151.41939	0.06376
3150.13363	0.06336
3148.84786	0.06279
3147.56209	0.06230
3146.27632	0.06203
3144.99055	0.06188
3143.70478	0.06169
3142.41901	0.06144
3141.13324	0.06126
3139.84748	0.06124
3138.56171	0.06137
3137.27594	0.06155
3135.99017	0.06171
3134.70440	0.06183
3133.41863	0.06192
3132.13286	0.06201
3130.84709	0.06209
3129.56132	0.06209
3128.27556	0.06196
3126.98979	0.06175
3125.70402	0.06160
3124.41825	0.06154
3123.13248	0.06146
3121.84671	0.06124
3120.56094	0.06092
3119.27517	0.06067
3117.98940	0.06056
3116.70364	0.06056
3115.41787	0.06066
3114.13210	0.06080
3112.84633	0.06087
3111.56056	0.06073
3110.27479	0.06046
3108.98902	0.06028
3107.70325	0.06034
3106.41749	0.06058
3105.13172	0.06079
3103.84595	0.06081
3102.56018	0.06065
3101.27441	0.06047
3099.98864	0.06042
3098.70287	0.06054
3097.41710	0.06076
3096.13133	0.06094
3094.84557	0.06099
3093.55980	0.06092
3092.27403	0.06086
3090.98826	0.06093
3089.70249	0.06115
3088.41672	0.06146
3087.13095	0.06167
3085.84518	0.06159
3084.55942	0.06117
3083.27365	0.06066
3081.98788	0.06043
3080.70211	0.06069
3079.41634	0.06126
3078.13057	0.06174
3076.84480	0.06183
3075.55903	0.06153
3074.27326	0.06108
3072.98750	0.06078
3071.70173	0.06075
3070.41596	0.06088
3069.13019	0.06102
3067.84442	0.06103
3066.55865	0.06091
3065.27288	0.06075
3063.98711	0.06069
3062.70135	0.06083
3061.41558	0.06116
3060.12981	0.06153
3058.84404	0.06177
3057.55827	0.06177
3056.27250	0.06155
3054.98673	0.06121
3053.70096	0.06089
3052.41519	0.06065
3051.12943	0.06044
3049.84366	0.06016
3048.55789	0.05984
3047.27212	0.05961
3045.98635	0.05952
3044.70058	0.05948
3043.41481	0.05925
3042.12904	0.05877
3040.84328	0.05821
3039.55751	0.05776
3038.27174	0.05747
3036.98597	0.05727
3035.70020	0.05712
3034.41443	0.05704
3033.12866	0.05706
3031.84289	0.05711
3030.55712	0.05704
3029.27136	0.05670
3027.98559	0.05607
3026.69982	0.05530
3025.41405	0.05469
3024.12828	0.05446
3022.84251	0.05460
3021.55674	0.05489
3020.27097	0.05512
3018.98521	0.05519
3017.69944	0.05511
3016.41367	0.05491
3015.12790	0.05459
3013.84213	0.05422
3012.55636	0.05391
3011.27059	0.05375
3009.98482	0.05373
3008.69905	0.05375
3007.41329	0.05373
3006.12752	0.05371
3004.84175	0.05368
3003.55598	0.05363
3002.27021	0.05352
3000.98444	0.05334
2999.69867	0.05313
2998.41290	0.05307
2997.12714	0.05305
2995.84137	0.05298
2994.55560	0.05276
2993.26983	0.05241
2991.98406	0.05206
2990.69829	0.05182
2989.41252	0.05172
2988.12675	0.05165
2986.84098	0.05156
2985.55522	0.05144
2984.26945	0.05140
2982.98368	0.05154
2981.69791	0.05186
2980.41214	0.05226
2979.12637	0.05258
2977.84060	0.05277
2976.55483	0.05278
2975.26907	0.05267
2973.98330	0.05257
2972.69753	0.05270
2971.41176	0.05309
2970.12599	0.05353
2968.84022	0.05373
2967.55445	0.05362
2966.26868	0.05344
2964.98291	0.05347
2963.69715	0.05377
2962.41138	0.05420
2961.12561	0.05461
2959.83984	0.05499
2958.55407	0.05538
2957.26830	0.05580
2955.98253	0.05613
2954.69676	0.05619
2953.41100	0.05590
2952.12523	0.05541
2950.83946	0.05497
2949.55369	0.05477
2948.26792	0.05484
2946.98215	0.05509
2945.69638	0.05534
2944.41061	0.05543
2943.12484	0.05528
2941.83908	0.05496
2940.55331	0.05462
2939.26754	0.05449
2937.98177	0.05471
2936.69600	0.05526
2935.41023	0.05586
2934.12446	0.05629
2932.83869	0.05651
2931.55293	0.05667
2930.26716	0.05685
2928.98139	0.05697
2927.69562	0.05692
2926.40985	0.05671
2925.12408	0.05642
2923.83831	0.05617
2922.55254	0.05602
2921.26677	0.05598
2919.98101	0.05604
2918.69524	0.05617
2917.40947	0.05631
2916.12370	0.05635
2914.83793	0.05622
2913.55216	0.05590
2912.26639	0.05547
2910.98062	0.05507
2909.69486	0.05479
2908.40909	0.05471
2907.12332	0.05487
2905.83755	0.05515
2904.55178	0.05532
2903.26601	0.05521
2901.98024	0.05490
2900.69447	0.05458
2899.40870	0.05434
2898.12294	0.05415
2896.83717	0.05400
2895.55140	0.05395
2894.26563	0.05404
2892.97986	0.05420
2891.69409	0.05428
2890.40832	0.05421
2889.12255	0.05407
2887.83678	0.05398
2886.55102	0.05397
2885.26525	0.05397
2883.97948	0.05384
2882.69371	0.05357
2881.40794	0.05327
2880.12217	0.05308
2878.83640	0.05300
2877.55063	0.05289
2876.26487	0.05261
2874.97910	0.05226
2873.69333	0.05210
2872.40756	0.05230
2871.12179	0.05268
2869.83602	0.05293
2868.55025	0.05288
2867.26448	0.05266
2865.97871	0.05249
2864.69295	0.05240
2863.40718	0.05225
2862.12141	0.05200
2860.83564	0.05179
2859.54987	0.05180
2858.26410	0.05205
2856.97833	0.05238
2855.69256	0.05263
2854.40680	0.05275
2853.12103	0.05278
2851.83526	0.05275
2850.54949	0.05260
2849.26372	0.05224
2847.97795	0.05164
2846.69218	0.05091
2845.40641	0.05032
2844.12064	0.05004
2842.83488	0.05003
2841.54911	0.05010
2840.26334	0.05010
2838.97757	0.05005
2837.69180	0.04998
2836.40603	0.04992
2835.12026	0.04986
2833.83449	0.04978
2832.54873	0.04967
2831.26296	0.04951
2829.97719	0.04935
2828.69142	0.04926
2827.40565	0.04927
2826.11988	0.04933
2824.83411	0.04931
2823.54834	0.04915
2822.26257	0.04886
2820.97681	0.04846
2819.69104	0.04803
2818.40527	0.04773
2817.11950	0.04772
2815.83373	0.04797
2814.54796	0.04829
2813.26219	0.04851
2811.97642	0.04861
2810.69066	0.04865
2809.40489	0.04865
2808.11912	0.04861
2806.83335	0.04861
2805.54758	0.04873
2804.26181	0.04899
2802.97604	0.04925
2801.69027	0.04936
2800.40450	0.04926
2799.11874	0.04901
2797.83297	0.04871
2796.54720	0.04841
2795.26143	0.04817
2793.97566	0.04802
2792.68989	0.04789
2791.40412	0.04773
2790.11835	0.04752
2788.83259	0.04731
2787.54682	0.04721
2786.26105	0.04732
2784.97528	0.04764
2783.68951	0.04805
2782.40374	0.04838
2781.11797	0.04850
2779.83220	0.04842
2778.54643	0.04819
2777.26067	0.04786
2775.97490	0.04747
2774.68913	0.04703
2773.40336	0.04657
2772.11759	0.04615
2770.83182	0.04587
2769.54605	0.04579
2768.26028	0.04586
2766.97452	0.04595
2765.68875	0.04593
2764.40298	0.04578
2763.11721	0.04560
2761.83144	0.04550
2760.54567	0.04552
2759.25990	0.04561
2757.97413	0.04570
2756.68836	0.04568
2755.40260	0.04552
2754.11683	0.04526
2752.83106	0.04503
2751.54529	0.04490
2750.25952	0.04492
2748.97375	0.04509
2747.68798	0.04534
2746.40221	0.04552
2745.11645	0.04549
2743.83068	0.04526
2742.54491	0.04500
2741.25914	0.04484
2739.97337	0.04474
2738.68760	0.04460
2737.40183	0.04442
2736.11606	0.04430
2734.83029	0.04433
2733.54453	0.04447
2732.25876	0.04457
2730.97299	0.04452
2729.68722	0.04434
2728.40145	0.04412
2727.11568	0.04396
2725.82991	0.04392
2724.54414	0.04399
2723.25838	0.04410
2721.97261	0.04412
2720.68684	0.04397
2719.40107	0.04372
2718.11530	0.04345
2716.82953	0.04322
2715.54376	0.04302
2714.25799	0.04282
2712.97222	0.04269
2711.68646	0.04268
2710.40069	0.04275
2709.11492	0.04277
2707.82915	0.04272
2706.54338	0.04264
2705.25761	0.04259
2703.97184	0.04250
2702.68607	0.04227
2701.40031	0.04196
2700.11454	0.04172
2698.82877	0.04169
2697.54300	0.04181
2696.25723	0.04191
2694.97146	0.04186
2693.68569	0.04165
2692.39992	0.04138
2691.11415	0.04116
2689.82839	0.04102
2688.54262	0.04093
2687.25685	0.04087
2685.97108	0.04082
2684.68531	0.04080
2683.39954	0.04081
2682.11377	0.04083
2680.82800	0.04074
2679.54224	0.04050
2678.25647	0.04016
2676.97070	0.03991
2675.68493	0.03985
2674.39916	0.03997
2673.11339	0.04015
2671.82762	0.04028
2670.54185	0.04033
2669.25608	0.04034
2667.97032	0.04041
2666.68455	0.04057
2665.39878	0.04076
2664.11301	0.04088
2662.82724	0.04089
2661.54147	0.04075
2660.25570	0.04050
2658.96993	0.04024
2657.68417	0.04007
2656.39840	0.03999
2655.11263	0.03989
2653.82686	0.03974
2652.54109	0.03962
2651.25532	0.03960
2649.96955	0.03962
2648.68378	0.03953
2647.39801	0.03927
2646.11225	0.03894
2644.82648	0.03867
2643.54071	0.03852
2642.25494	0.03845
2640.96917	0.03839
2639.68340	0.03829
2638.39763	0.03804
2637.11186	0.03760
2635.82609	0.03706
2634.54033	0.03658
2633.25456	0.03629
2631.96879	0.03625
2630.68302	0.03638
2629.39725	0.03656
2628.11148	0.03662
2626.82571	0.03645
2625.53994	0.03609
2624.25418	0.03568
2622.96841	0.03539
2621.68264	0.03533
2620.39687	0.03544
2619.11110	0.03553
2617.82533	0.03546
2616.53956	0.03518
2615.25379	0.03482
2613.96802	0.03451
2612.68226	0.03432
2611.39649	0.03420
2610.11072	0.03407
2608.82495	0.03394
2607.53918	0.03388
2606.25341	0.03387
2604.96764	0.03383
2603.68187	0.03374
2602.39611	0.03365
2601.11034	0.03358
2599.82457	0.03349
2598.53880	0.03346
2597.25303	0.03358
2595.96726	0.03384
2594.68149	0.03399
2593.39572	0.03376
2592.10995	0.03308
2590.82419	0.03225
2589.53842	0.03168
2588.25265	0.03156
2586.96688	0.03179
2585.68111	0.03211
2584.39534	0.03228
2583.10957	0.03221
2581.82380	0.03196
2580.53804	0.03165
2579.25227	0.03147
2577.96650	0.03160
2576.68073	0.03204
2575.39496	0.03260
2574.10919	0.03293
2572.82342	0.03280
2571.53765	0.03232
2570.25188	0.03184
2568.96612	0.03164
2567.68035	0.03171
2566.39458	0.03171
2565.10881	0.03137
2563.82304	0.03080
2562.53727	0.03042
2561.25150	0.03050
2559.96573	0.03086
2558.67997	0.03110
2557.39420	0.03101
2556.10843	0.03071
2554.82266	0.03040
2553.53689	0.03019
2552.25112	0.03009
2550.96535	0.03018
2549.67958	0.03050
2548.39381	0.03091
2547.10805	0.03118
2545.82228	0.03124
2544.53651	0.03118
2543.25074	0.03105
2541.96497	0.03076
2540.67920	0.03031
2539.39343	0.02996
2538.10766	0.02999
2536.82190	0.03039
2535.53613	0.03086
2534.25036	0.03108
2532.96459	0.03096
2531.67882	0.03062
2530.39305	0.03033
2529.10728	0.03031
2527.82151	0.03051
2526.53574	0.03066
2525.24998	0.03049
2523.96421	0.03004
2522.67844	0.02960
2521.39267	0.02951
2520.10690	0.02985
2518.82113	0.03042
2517.53536	0.03092
2516.24959	0.03108
2514.96383	0.03085
2513.67806	0.03046
2512.39229	0.03022
2511.10652	0.03016
2509.82075	0.03002
2508.53498	0.02960
2507.24921	0.02906
2505.96344	0.02874
2504.67767	0.02881
2503.39191	0.02905
2502.10614	0.02920
2500.82037	0.02919
2499.53460	0.02913
2498.24883	0.02908
2496.96306	0.02897
2495.67729	0.02879
2494.39152	0.02863
2493.10576	0.02860
2491.81999	0.02876
2490.53422	0.02905
2489.24845	0.02932
2487.96268	0.02937
2486.67691	0.02917
2485.39114	0.02892
2484.10537	0.02880
2482.81960	0.02873
2481.53384	0.02848
2480.24807	0.02810
2478.96230	0.02795
2477.67653	0.02834
2476.39076	0.02908
2475.10499	0.02967
2473.81922	0.02971
2472.53345	0.02926
2471.24769	0.02866
2469.96192	0.02820
2468.67615	0.02802
2467.39038	0.02814
2466.10461	0.02840
2464.81884	0.02860
2463.53307	0.02859
2462.24730	0.02846
2460.96153	0.02846
2459.67577	0.02868
2458.39000	0.02896
2457.10423	0.02905
2455.81846	0.02887
2454.53269	0.02857
2453.24692	0.02840
2451.96115	0.02845
2450.67538	0.02865
2449.38962	0.02887
2448.10385	0.02904
2446.81808	0.02913
2445.53231	0.02914
2444.24654	0.02904
2442.96077	0.02885
2441.67500	0.02865
2440.38923	0.02862
2439.10346	0.02883
2437.81770	0.02916
2436.53193	0.02942
2435.24616	0.02950
2433.96039	0.02949
2432.67462	0.02954
2431.38885	0.02970
2430.10308	0.02995
2428.81731	0.03017
2427.53155	0.03024
2426.24578	0.03004
2424.96001	0.02965
2423.67424	0.02926
2422.38847	0.02901
2421.10270	0.02884
2419.81693	0.02867
2418.53116	0.02855
2417.24539	0.02855
2415.95963	0.02860
2414.67386	0.02857
2413.38809	0.02845
2412.10232	0.02837
2410.81655	0.02842
2409.53078	0.02856
2408.24501	0.02866
2406.95924	0.02867
2405.67347	0.02864
2404.38771	0.02868
2403.10194	0.02879
2401.81617	0.02882
2400.53040	0.02871
2399.24463	0.02829
2397.95886	0.02821
2396.67309	0.02836
2395.38732	0.02850
2394.10156	0.02864
2392.81579	0.02880
2391.53002	0.02897
2390.24425	0.02912
2388.95848	0.02926
2387.67271	0.02942
2386.38694	0.02964
2385.10117	0.02985
2383.81540	0.03002
2382.52964	0.03016
2381.24387	0.03028
2379.95810	0.03036
2378.67233	0.03043
2377.38656	0.03060
2376.10079	0.03100
2374.81502	0.03150
2373.52925	0.03196
2372.24349	0.03229
2370.95772	0.03261
2369.67195	0.03295
2368.38618	0.03335
2367.10041	0.03378
2365.81464	0.03423
2364.52887	0.03450
2363.24310	0.03459
2361.95733	0.03462
2360.67157	0.03481
2359.38580	0.03487
2358.10003	0.03468
2356.81426	0.03432
2355.52849	0.03388
2354.24272	0.03339
2352.95695	0.03288
2351.67118	0.03258
2350.38542	0.03242
2349.09965	0.03221
2347.81388	0.03209
2346.52811	0.03264
2345.24234	0.03354
2343.95657	0.03390
2342.67080	0.03369
2341.38503	0.03405
2340.09926	0.03499
2338.81350	0.03479
2337.52773	0.03341
2336.24196	0.03310
2334.95619	0.03361
2333.67042	0.03272
2332.38465	0.03106
2331.09888	0.03100
2329.81311	0.03111
2328.52735	0.02997
2327.24158	0.03024
2325.95581	0.03153
2324.67004	0.03180
2323.38427	0.03244
2322.09850	0.03363
2320.81273	0.03357
2319.52696	0.03355
2318.24119	0.03367
2316.95543	0.03303
2315.66966	0.03265
2314.38389	0.03232
2313.09812	0.03151
2311.81235	0.03093
2310.52658	0.03032
2309.24081	0.02981
2307.95504	0.02953
2306.66928	0.02913
2305.38351	0.02880
2304.09774	0.02844
2302.81197	0.02796
2301.52620	0.02746
2300.24043	0.02690
2298.95466	0.02640
2297.66889	0.02596
2296.38312	0.02569
2295.09736	0.02571
2293.81159	0.02597
2292.52582	0.02632
2291.24005	0.02656
2289.95428	0.02675
2288.66851	0.02692
2287.38274	0.02700
2286.09697	0.02684
2284.81121	0.02646
2283.52544	0.02606
2282.23967	0.02593
2280.95390	0.02615
2279.66813	0.02659
2278.38236	0.02698
2277.09659	0.02712
2275.81082	0.02698
2274.52505	0.02663
2273.23929	0.02616
2271.95352	0.02565
2270.66775	0.02519
2269.38198	0.02479
2268.09621	0.02431
2266.81044	0.02370
2265.52467	0.02310
2264.23890	0.02267
2262.95314	0.02245
2261.66737	0.02229
2260.38160	0.02206
2259.09583	0.02188
2257.81006	0.02197
2256.52429	0.02223
2255.23852	0.02228
2253.95275	0.02186
2252.66698	0.02101
2251.38122	0.02012
2250.09545	0.01991
2248.80968	0.02076
2247.52391	0.02115
2246.23814	0.02180
2244.95237	0.02237
2243.66660	0.02252
2242.38083	0.02218
2241.09507	0.02152
2239.80930	0.02087
2238.52353	0.02055
2237.23776	0.02059
2235.95199	0.02062
2234.66622	0.02022
2233.38045	0.01950
2232.09468	0.01912
2230.80891	0.01949
2229.52315	0.02026
2228.23738	0.02065
2226.95161	0.02034
2225.66584	0.01967
2224.38007	0.01917
2223.09430	0.01905
2221.80853	0.01916
2220.52276	0.01918
2219.23700	0.01885
2217.95123	0.01824
2216.66546	0.01772
2215.37969	0.01763
2214.09392	0.01791
2212.80815	0.01814
2211.52238	0.01813
2210.23661	0.01802
2208.95084	0.01810
2207.66508	0.01844
2206.37931	0.01877
2205.09354	0.01871
2203.80777	0.01815
2202.52200	0.01749
2201.23623	0.01725
2199.95046	0.01749
2198.66469	0.01783
2197.37893	0.01794
2196.09316	0.01776
2194.80739	0.01738
2193.52162	0.01676
2192.23585	0.01595
2190.95008	0.01522
2189.66431	0.01496
2188.37854	0.01533
2187.09277	0.01612
2185.80701	0.01677
2184.52124	0.01687
2183.23547	0.01643
2181.94970	0.01579
2180.66393	0.01526
2179.37816	0.01501
2178.09239	0.01502
2176.80662	0.01521
2175.52085	0.01536
2174.23509	0.01519
2172.94932	0.01459
2171.66355	0.01371
2170.37778	0.01288
2169.09201	0.01255
2167.80624	0.01297
2166.52047	0.01393
2165.23470	0.01474
2163.94894	0.01475
2162.66317	0.01391
2161.37740	0.01270
2160.09163	0.01172
2158.80586	0.01133
2157.52009	0.01155
2156.23432	0.01207
2154.94855	0.01238
2153.66278	0.01218
2152.37702	0.01170
2151.09125	0.01140
2149.80548	0.01156
2148.51971	0.01207
2147.23394	0.01275
2145.94817	0.01352
2144.66240	0.01422
2143.37663	0.01452
2142.09087	0.01431
2140.80510	0.01393
2139.51933	0.01386
2138.23356	0.01419
2136.94779	0.01464
2135.66202	0.01490
2134.37625	0.01490
2133.09048	0.01475
2131.80471	0.01461
2130.51895	0.01469
2129.23318	0.01511
2127.94741	0.01582
2126.66164	0.01654
2125.37587	0.01697
2124.09010	0.01701
2122.80433	0.01691
2121.51856	0.01704
2120.23280	0.01750
2118.94703	0.01800
2117.66126	0.01816
2116.37549	0.01791
2115.08972	0.01747
2113.80395	0.01708
2112.51818	0.01683
2111.23241	0.01670
2109.94664	0.01667
2108.66088	0.01680
2107.37511	0.01705
2106.08934	0.01731
2104.80357	0.01744
2103.51780	0.01731
2102.23203	0.01678
2100.94626	0.01608
2099.66049	0.01883
2098.37473	0.02006
2097.08896	0.01977
2095.80319	0.01916
2094.51742	0.01848
2093.23165	0.01775
2091.94588	0.01702
2090.66011	0.01634
2089.37434	0.01583
2088.08857	0.01562
2086.80281	0.01570
2085.51704	0.01597
2084.23127	0.01629
2082.94550	0.01653
2081.65973	0.01669
2080.37396	0.01691
2079.08819	0.01740
2077.80242	0.01821
2076.51666	0.01912
2075.23089	0.01982
2073.94512	0.02017
2072.65935	0.02027
2071.37358	0.02027
2070.08781	0.02025
2068.80204	0.02011
2067.51627	0.01970
2066.23050	0.01905
2064.94474	0.01834
2063.65897	0.01780
2062.37320	0.01750
2061.08743	0.01728
2059.80166	0.01693
2058.51589	0.01631
2057.23012	0.01548
2055.94435	0.01456
2054.65859	0.01380
2053.37282	0.01363
2052.08705	0.01438
2050.80128	0.01587
2049.51551	0.01728
2048.22974	0.01780
2046.94397	0.01730
2045.65820	0.01636
2044.37243	0.01570
2043.08667	0.01565
2041.80090	0.01598
2040.51513	0.01641
2039.22936	0.01688
2037.94359	0.01754
2036.65782	0.01835
2035.37205	0.01898
2034.08628	0.01902
2032.80052	0.01831
2031.51475	0.01708
2030.22898	0.01587
2028.94321	0.01502
2027.65744	0.01443
2026.37167	0.01383
2025.08590	0.01320
2023.80013	0.01280
2022.51436	0.01281
2021.22860	0.01316
2019.94283	0.01366
2018.65706	0.01403
2017.37129	0.01409
2016.08552	0.01399
2014.79975	0.01421
2013.51398	0.01514
2012.22821	0.01676
2010.94245	0.01864
2009.65668	0.02019
2008.37091	0.02100
2007.08514	0.02099
2005.79937	0.02030
2004.51360	0.01914
2003.22783	0.01765
2001.94206	0.01591
2000.65629	0.01412
1999.37053	0.01267
1998.08476	0.01200
1996.79899	0.01219
1995.51322	0.01279
1994.22745	0.01305
1992.94168	0.01269
1991.65591	0.01202
1990.37014	0.01166
1989.08438	0.01196
1987.79861	0.01276
1986.51284	0.01356
1985.22707	0.01394
1983.94130	0.01403
1982.65553	0.01450
1981.36976	0.01602
1980.08399	0.01854
1978.79822	0.02124
1977.51246	0.02307
1976.22669	0.02345
1974.94092	0.02259
1973.65515	0.02117
1972.36938	0.01973
1971.08361	0.01847
1969.79784	0.01741
1968.51207	0.01670
1967.22631	0.01653
1965.94054	0.01682
1964.65477	0.01713
1963.36900	0.01702
1962.08323	0.01644
1960.79746	0.01581
1959.51169	0.01550
1958.22592	0.01550
1956.94015	0.01547
1955.65439	0.01521
1954.36862	0.01485
1953.08285	0.01472
1951.79708	0.01499
1950.51131	0.01555
1949.22554	0.01606
1947.93977	0.01628
1946.65400	0.01625
1945.36823	0.01625
1944.08247	0.01656
1942.79670	0.01718
1941.51093	0.01786
1940.22516	0.01828
1938.93939	0.01836
1937.65362	0.01823
1936.36785	0.01807
1935.08208	0.01798
1933.79632	0.01802
1932.51055	0.01820
1931.22478	0.01847
1929.93901	0.01867
1928.65324	0.01867
1927.36747	0.01843
1926.08170	0.01806
1924.79593	0.01773
1923.51016	0.01758
1922.22440	0.01765
1920.93863	0.01787
1919.65286	0.01813
1918.36709	0.01837
1917.08132	0.01849
1915.79555	0.01840
1914.50978	0.01809
1913.22401	0.01773
1911.93825	0.01755
1910.65248	0.01768
1909.36671	0.01807
1908.08094	0.01846
1906.79517	0.01865
1905.50940	0.01858
1904.22363	0.01838
1902.93786	0.01817
1901.65209	0.01802
1900.36633	0.01798
1899.08056	0.01803
1897.79479	0.01809
1896.50902	0.01808
1895.22325	0.01800
1893.93748	0.01794
1892.65171	0.01794
1891.36594	0.01800
1890.08018	0.01808
1888.79441	0.01818
1887.50864	0.01826
1886.22287	0.01827
1884.93710	0.01814
1883.65133	0.01794
1882.36556	0.01776
1881.07979	0.01767
1879.79402	0.01771
1878.50826	0.01792
1877.22249	0.01823
1875.93672	0.01849
1874.65095	0.01856
1873.36518	0.01842
1872.07941	0.01820
1870.79364	0.01804
1869.50787	0.01804
1868.22211	0.01817
1866.93634	0.01833
1865.65057	0.01841
1864.36480	0.01842
1863.07903	0.01845
1861.79326	0.01850
1860.50749	0.01855
1859.22172	0.01861
1857.93595	0.01869
1856.65019	0.01880
1855.36442	0.01887
1854.07865	0.01879
1852.79288	0.01857
1851.50711	0.01827
1850.22134	0.01805
1848.93557	0.01799
1847.64980	0.01807
1846.36404	0.01813
1845.07827	0.01803
1843.79250	0.01779
1842.50673	0.01752
1841.22096	0.01728
1839.93519	0.01710
1838.64942	0.01702
1837.36365	0.01708
1836.07788	0.01729
1834.79212	0.01759
1833.50635	0.01789
1832.22058	0.01813
1830.93481	0.01828
1829.64904	0.01840
1828.36327	0.01857
1827.07750	0.01883
1825.79173	0.01919
1824.50597	0.01964
1823.22020	0.02017
1821.93443	0.02070
1820.64866	0.02106
1819.36289	0.02103
1818.07712	0.02052
1816.79135	0.01966
1815.50558	0.01874
1814.21981	0.01800
1812.93405	0.01753
1811.64828	0.01730
1810.36251	0.01724
1809.07674	0.01727
1807.79097	0.01734
1806.50520	0.01742
1805.21943	0.01746
1803.93366	0.01747
1802.64790	0.01749
1801.36213	0.01760
1800.07636	0.01784
1798.79059	0.01816
1797.50482	0.01846
1796.21905	0.01867
1794.93328	0.01878
1793.64751	0.01881
1792.36174	0.01881
1791.07598	0.01885
1789.79021	0.01890
1788.50444	0.01892
1787.21867	0.01886
1785.93290	0.01873
1784.64713	0.01861
1783.36136	0.01858
1782.07559	0.01864
1780.78983	0.01876
1779.50406	0.01886
1778.21829	0.01887
1776.93252	0.01877
1775.64675	0.01858
1774.36098	0.01835
1773.07521	0.01816
1771.78944	0.01807
1770.50367	0.01805
1769.21791	0.01802
1767.93214	0.01795
1766.64637	0.01789
1765.36060	0.01787
1764.07483	0.01787
1762.78906	0.01789
1761.50329	0.01795
1760.21752	0.01801
1758.93176	0.01801
1757.64599	0.01796
1756.36022	0.01800
1755.07445	0.01815
1753.78868	0.01835
1752.50291	0.01849
1751.21714	0.01856
1749.93137	0.01861
1748.64560	0.01866
1747.35984	0.01873
1746.07407	0.01882
1744.78830	0.01894
1743.50253	0.01906
1742.21676	0.01917
1740.93099	0.01926
1739.64522	0.01936
1738.35945	0.01950
1737.07369	0.01963
1735.78792	0.01968
1734.50215	0.01972
1733.21638	0.01983
1731.93061	0.01999
1730.64484	0.02011
1729.35907	0.02020
1728.07330	0.02028
1726.78753	0.02034
1725.50177	0.02037
1724.21600	0.02040
1722.93023	0.02052
1721.64446	0.02075
1720.35869	0.02104
1719.07292	0.02132
1717.78715	0.02162
1716.50138	0.02194
1715.21561	0.02227
1713.92985	0.02254
1712.64408	0.02280
1711.35831	0.02310
1710.07254	0.02347
1708.78677	0.02395
1707.50100	0.02455
1706.21523	0.02527
1704.92946	0.02610
1703.64370	0.02698
1702.35793	0.02783
1701.07216	0.02872
1699.78639	0.02974
1698.50062	0.03080
1697.21485	0.03175
1695.92908	0.03263
1694.64331	0.03357
1693.35754	0.03455
1692.07178	0.03547
1690.78601	0.03641
1689.50024	0.03747
1688.21447	0.03860
1686.92870	0.03971
1685.64293	0.04080
1684.35716	0.04200
1683.07139	0.04333
1681.78563	0.04462
1680.49986	0.04579
1679.21409	0.04693
1677.92832	0.04815
1676.64255	0.04942
1675.35678	0.05071
1674.07101	0.05201
1672.78524	0.05331
1671.49947	0.05459
1670.21371	0.05587
1668.92794	0.05719
1667.64217	0.05850
1666.35640	0.05978
1665.07063	0.06101
1663.78486	0.06223
1662.49909	0.06346
1661.21332	0.06463
1659.92756	0.06567
1658.64179	0.06660
1657.35602	0.06750
1656.07025	0.06841
1654.78448	0.06928
1653.49871	0.07014
1652.21294	0.07102
1650.92717	0.07183
1649.64140	0.07243
1648.35564	0.07282
1647.06987	0.07319
1645.78410	0.07365
1644.49833	0.07414
1643.21256	0.07456
1641.92679	0.07486
1640.64102	0.07510
1639.35525	0.07533
1638.06949	0.07555
1636.78372	0.07575
1635.49795	0.07595
1634.21218	0.07615
1632.92641	0.07626
1631.64064	0.07621
1630.35487	0.07601
1629.06910	0.07570
1627.78333	0.07525
1626.49757	0.07465
1625.21180	0.07390
1623.92603	0.07308
1622.64026	0.07226
1621.35449	0.07144
1620.06872	0.07050
1618.78295	0.06937
1617.49718	0.06812
1616.21142	0.06688
1614.92565	0.06572
1613.63988	0.06454
1612.35411	0.06329
1611.06834	0.06202
1609.78257	0.06074
1608.49680	0.05944
1607.21103	0.05811
1605.92526	0.05680
1604.63950	0.05557
1603.35373	0.05447
1602.06796	0.05350
1600.78219	0.05261
1599.49642	0.05174
1598.21065	0.05091
1596.92488	0.05014
1595.63911	0.04944
1594.35335	0.04881
1593.06758	0.04823
1591.78181	0.04768
1590.49604	0.04721
1589.21027	0.04684
1587.92450	0.04657
1586.63873	0.04637
1585.35296	0.04618
1584.06719	0.04604
1582.78143	0.04599
1581.49566	0.04610
1580.20989	0.04634
1578.92412	0.04660
1577.63835	0.04680
1576.35258	0.04700
1575.06681	0.04728
1573.78104	0.04763
1572.49528	0.04797
1571.20951	0.04834
1569.92374	0.04884
1568.63797	0.04949
1567.35220	0.05018
1566.06643	0.05087
1564.78066	0.05158
1563.49489	0.05236
1562.20912	0.05313
1560.92336	0.05380
1559.63759	0.05442
1558.35182	0.05509
1557.06605	0.05582
1555.78028	0.05649
1554.49451	0.05710
1553.20874	0.05771
1551.92297	0.05831
1550.63721	0.05887
1549.35144	0.05938
1548.06567	0.05988
1546.77990	0.06036
1545.49413	0.06084
1544.20836	0.06129
1542.92259	0.06167
1541.63682	0.06194
1540.35105	0.06212
1539.06529	0.06232
1537.77952	0.06253
1536.49375	0.06267
1535.20798	0.06271
1533.92221	0.06276
1532.63644	0.06284
1531.35067	0.06291
1530.06490	0.06287
1528.77914	0.06277
1527.49337	0.06267
1526.20760	0.06262
1524.92183	0.06259
1523.63606	0.06253
1522.35029	0.06241
1521.06452	0.06227
1519.77875	0.06211
1518.49298	0.06188
1517.20722	0.06156
1515.92145	0.06121
1514.63568	0.06084
1513.34991	0.06039
1512.06414	0.05987
1510.77837	0.05931
1509.49260	0.05870
1508.20683	0.05800
1506.92107	0.05727
1505.63530	0.05656
1504.34953	0.05585
1503.06376	0.05503
1501.77799	0.05411
1500.49222	0.05318
1499.20645	0.05229
1497.92068	0.05139
1496.63491	0.05047
1495.34915	0.04958
1494.06338	0.04871
1492.77761	0.04786
1491.49184	0.04700
1490.20607	0.04615
1488.92030	0.04534
1487.63453	0.04457
1486.34876	0.04388
1485.06299	0.04328
1483.77723	0.04276
1482.49146	0.04230
1481.20569	0.04191
1479.91992	0.04163
1478.63415	0.04148
1477.34838	0.04148
1476.06261	0.04160
1474.77684	0.04181
1473.49108	0.04209
1472.20531	0.04247
1470.91954	0.04294
1469.63377	0.04340
1468.34800	0.04381
1467.06223	0.04417
1465.77646	0.04452
1464.49069	0.04493
1463.20492	0.04541
1461.91916	0.04594
1460.63339	0.04651
1459.34762	0.04710
1458.06185	0.04771
1456.77608	0.04833
1455.49031	0.04889
1454.20454	0.04930
1452.91877	0.04957
1451.63301	0.04977
1450.34724	0.04994
1449.06147	0.05002
1447.77570	0.04999
1446.48993	0.04986
1445.20416	0.04963
1443.91839	0.04932
1442.63262	0.04897
1441.34685	0.04862
1440.06109	0.04829
1438.77532	0.04796
1437.48955	0.04763
1436.20378	0.04732
1434.91801	0.04701
1433.63224	0.04665
1432.34647	0.04623
1431.06070	0.04581
1429.77494	0.04546
1428.48917	0.04524
1427.20340	0.04513
1425.91763	0.04509
1424.63186	0.04508
1423.34609	0.04508
1422.06032	0.04505
1420.77455	0.04498
1419.48878	0.04487
1418.20302	0.04474
1416.91725	0.04457
1415.63148	0.04436
1414.34571	0.04418
1413.05994	0.04405
1411.77417	0.04395
1410.48840	0.04385
1409.20263	0.04373
1407.91687	0.04361
1406.63110	0.04348
1405.34533	0.04338
1404.05956	0.04332
1402.77379	0.04325
1401.48802	0.04315
1400.20225	0.04301
1398.91648	0.04286
1397.63071	0.04270
1396.34495	0.04254
1395.05918	0.04239
1393.77341	0.04229
1392.48764	0.04222
1391.20187	0.04213
1389.91610	0.04198
1388.63033	0.04181
1387.34456	0.04167
1386.05880	0.04156
1384.77303	0.04143
1383.48726	0.04124
1382.20149	0.04099
1380.91572	0.04073
1379.62995	0.04050
1378.34418	0.04029
1377.05841	0.04010
1375.77264	0.03989
1374.48688	0.03962
1373.20111	0.03929
1371.91534	0.03895
1370.62957	0.03861
1369.34380	0.03828
1368.05803	0.03794
1366.77226	0.03758
1365.48649	0.03719
1364.20073	0.03682
1362.91496	0.03649
1361.62919	0.03622
1360.34342	0.03600
1359.05765	0.03584
1357.77188	0.03572
1356.48611	0.03565
1355.20034	0.03561
1353.91457	0.03558
1352.62881	0.03558
1351.34304	0.03560
1350.05727	0.03563
1348.77150	0.03566
1347.48573	0.03569
1346.19996	0.03577
1344.91419	0.03589
1343.62842	0.03605
1342.34266	0.03619
1341.05689	0.03630
1339.77112	0.03640
1338.48535	0.03655
1337.19958	0.03673
1335.91381	0.03690
1334.62804	0.03696
1333.34227	0.03687
1332.05650	0.03670
1330.77074	0.03651
1329.48497	0.03636
1328.19920	0.03624
1326.91343	0.03612
1325.62766	0.03599
1324.34189	0.03586
1323.05612	0.03578
1321.77035	0.03576
1320.48459	0.03581
1319.19882	0.03590
1317.91305	0.03597
1316.62728	0.03598
1315.34151	0.03595
1314.05574	0.03590
1312.76997	0.03587
1311.48420	0.03587
1310.19843	0.03587
1308.91267	0.03586
1307.62690	0.03585
1306.34113	0.03581
1305.05536	0.03574
1303.76959	0.03567
1302.48382	0.03561
1301.19805	0.03555
1299.91228	0.03550
1298.62652	0.03545
1297.34075	0.03542
1296.05498	0.03541
1294.76921	0.03543
1293.48344	0.03548
1292.19767	0.03557
1290.91190	0.03569
1289.62613	0.03583
1288.34036	0.03602
1287.05460	0.03624
1285.76883	0.03650
1284.48306	0.03674
1283.19729	0.03691
1281.91152	0.03702
1280.62575	0.03713
1279.33998	0.03727
1278.05421	0.03744
1276.76845	0.03760
1275.48268	0.03772
1274.19691	0.03785
1272.91114	0.03803
1271.62537	0.03826
1270.33960	0.03851
1269.05383	0.03878
1267.76806	0.03907
1266.48229	0.03942
1265.19653	0.03983
1263.91076	0.04027
1262.62499	0.04067
1261.33922	0.04097
1260.05345	0.04116
1258.76768	0.04128
1257.48191	0.04139
1256.19614	0.04155
1254.91037	0.04176
1253.62461	0.04201
1252.33884	0.04230
1251.05307	0.04260
1249.76730	0.04291
1248.48153	0.04325
1247.19576	0.04364
1245.90999	0.04411
1244.62422	0.04464
1243.33846	0.04517
1242.05269	0.04562
1240.76692	0.04598
1239.48115	0.04629
1238.19538	0.04659
1236.90961	0.04686
1235.62384	0.04707
1234.33807	0.04718
1233.05230	0.04718
1231.76654	0.04714
1230.48077	0.04706
1229.19500	0.04696
1227.90923	0.04684
1226.62346	0.04669
1225.33769	0.04652
1224.05192	0.04631
1222.76615	0.04609
1221.48039	0.04586
1220.19462	0.04565
1218.90885	0.04547
1217.62308	0.04529
1216.33731	0.04507
1215.05154	0.04483
1213.76577	0.04463
1212.48000	0.04455
1211.19423	0.04459
1209.90847	0.04471
1208.62270	0.04484
1207.33693	0.04492
1206.05116	0.04494
1204.76539	0.04491
1203.47962	0.04487
1202.19385	0.04481
1200.90808	0.04451
1199.62232	0.04391
1198.33655	0.04382
1197.05078	0.04374
1195.76501	0.04357
1194.47924	0.04329
1193.19347	0.04295
1191.90770	0.04262
1190.62193	0.04238
1189.33616	0.04223
1188.05040	0.04211
1186.76463	0.04196
1185.47886	0.04179
1184.19309	0.04163
1182.90732	0.04153
1181.62155	0.04150
1180.33578	0.04153
1179.05001	0.04159
1177.76425	0.04167
1176.47848	0.04178
1175.19271	0.04192
1173.90694	0.04213
1172.62117	0.04237
1171.33540	0.04259
1170.04963	0.04278
1168.76386	0.04297
1167.47809	0.04317
1166.19233	0.04341
1164.90656	0.04368
1163.62079	0.04399
1162.33502	0.04429
1161.04925	0.04458
1159.76348	0.04484
1158.47771	0.04504
1157.19194	0.04516
1155.90618	0.04521
1154.62041	0.04526
1153.33464	0.04536
1152.04887	0.04551
1150.76310	0.04566
1149.47733	0.04575
1148.19156	0.04579
1146.90579	0.04583
1145.62002	0.04589
1144.33426	0.04596
1143.04849	0.04603
1141.76272	0.04613
1140.47695	0.04628
1139.19118	0.04648
1137.90541	0.04670
1136.61964	0.04694
1135.33387	0.04724
1134.04811	0.04764
1132.76234	0.04814
1131.47657	0.04875
1130.19080	0.04947
1128.90503	0.05028
1127.61926	0.05117
1126.33349	0.05214
1125.04772	0.05317
1123.76195	0.05423
1122.47619	0.05530
1121.19042	0.05640
1119.90465	0.05754
1118.61888	0.05870
1117.33311	0.05985
1116.04734	0.06099
1114.76157	0.06210
1113.47580	0.06321
1112.19004	0.06434
1110.90427	0.06555
1109.61850	0.06681
1108.33273	0.06805
1107.04696	0.06918
1105.76119	0.07024
1104.47542	0.07128
1103.18965	0.07231
1101.90388	0.07328
1100.61812	0.07418
1099.33235	0.07499
1098.04658	0.07573
1096.76081	0.07638
1095.47504	0.07690
1094.18927	0.07728
1092.90350	0.07751
1091.61773	0.07757
1090.33197	0.07746
1089.04620	0.07726
1087.76043	0.07709
1086.47466	0.07706
1085.18889	0.07722
1083.90312	0.07756
1082.61735	0.07809
1081.33158	0.07879
1080.04581	0.07960
1078.76005	0.08044
1077.47428	0.08121
1076.18851	0.08193
1074.90274	0.08263
1073.61697	0.08329
1072.33120	0.08385
1071.04543	0.08430
1069.75966	0.08466
1068.47390	0.08501
1067.18813	0.08533
1065.90236	0.08563
1064.61659	0.08593
1063.33082	0.08624
1062.04505	0.08659
1060.75928	0.08701
1059.47351	0.08750
1058.18774	0.08808
1056.90198	0.08872
1055.61621	0.08942
1054.33044	0.09016
1053.04467	0.09095
1051.75890	0.09182
1050.47313	0.09278
1049.18736	0.09382
1047.90159	0.09494
1046.61583	0.09615
1045.33006	0.09747
1044.04429	0.09891
1042.75852	0.10041
1041.47275	0.10189
1040.18698	0.10328
1038.90121	0.10446
1037.61544	0.10514
1036.32967	0.10503
1035.04391	0.10438
1033.75814	0.10407
1032.47237	0.10502
1031.18660	0.10719
1029.90083	0.10964
1028.61506	0.11141
1027.32929	0.11218
1026.04352	0.11211
1024.75775	0.11148
1023.47199	0.11050
1022.18622	0.10936
1020.90045	0.10812
1019.61468	0.10677
1018.32891	0.10519
1017.04314	0.10338
1015.75737	0.10141
1014.47160	0.09940
1013.18584	0.09745
1011.90007	0.09558
1010.61430	0.09379
1009.32853	0.09210
1008.04276	0.09052
1006.75699	0.08904
1005.47122	0.08759
1004.18545	0.08612
1002.89968	0.08464
1001.61392	0.08324
1000.32815	0.08196
999.04238	0.08078
997.75661	0.07964
996.47084	0.07858
995.18507	0.07762
993.89930	0.07674
992.61353	0.07585
991.32777	0.07495
990.04200	0.07411
988.75623	0.07336
987.47046	0.07271
986.18469	0.07214
984.89892	0.07164
983.61315	0.07119
982.32738	0.07071
981.04161	0.07017
979.75585	0.06961
978.47008	0.06917
977.18431	0.06892
975.89854	0.06879
974.61277	0.06866
973.32700	0.06852
972.04123	0.06850
970.75546	0.06870
969.46970	0.06910
968.18393	0.06957
966.89816	0.06998
965.61239	0.07026
964.32662	0.07036
963.04085	0.07022
961.75508	0.06985
960.46931	0.06935
959.18354	0.06879
957.89778	0.06820
956.61201	0.06757
955.32624	0.06691
954.04047	0.06626
952.75470	0.06562
951.46893	0.06498
950.18316	0.06431
948.89739	0.06366
947.61163	0.06309
946.32586	0.06262
945.04009	0.06218
943.75432	0.06170
942.46855	0.06114
941.18278	0.06052
939.89701	0.05989
938.61124	0.05929
937.32547	0.05872
936.03971	0.05817
934.75394	0.05760
933.46817	0.05703
932.18240	0.05647
930.89663	0.05594
929.61086	0.05546
928.32509	0.05500
927.03932	0.05453
925.75356	0.05403
924.46779	0.05354
923.18202	0.05306
921.89625	0.05259
920.61048	0.05209
919.32471	0.05158
918.03894	0.05108
916.75317	0.05062
915.46740	0.05021
914.18164	0.04989
912.89587	0.04965
911.61010	0.04943
910.32433	0.04920
909.03856	0.04895
907.75279	0.04872
906.46702	0.04854
905.18125	0.04840
903.89549	0.04826
902.60972	0.04807
901.32395	0.04787
900.03818	0.04769
898.75241	0.04754
897.46664	0.04734
896.18087	0.04708
894.89510	0.04679
893.60933	0.04655
892.32357	0.04638
891.03780	0.04622
889.75203	0.04605
888.46626	0.04589
887.18049	0.04579
885.89472	0.04572
884.60895	0.04566
883.32318	0.04559
882.03742	0.04552
880.75165	0.04550
879.46588	0.04552
878.18011	0.04557
876.89434	0.04555
875.60857	0.04547
874.32280	0.04537
873.03703	0.04532
871.75126	0.04529
870.46550	0.04525
869.17973	0.04520
867.89396	0.04508
866.60819	0.04487
865.32242	0.04455
864.03665	0.04420
862.75088	0.04394
861.46511	0.04379
860.17935	0.04363
858.89358	0.04341
857.60781	0.04313
856.32204	0.04283
855.03627	0.04255
853.75050	0.04228
852.46473	0.04201
851.17896	0.04174
849.89319	0.04147
848.60743	0.04120
847.32166	0.04089
846.03589	0.04054
844.75012	0.04015
843.46435	0.03975
842.17858	0.03937
840.89281	0.03903
839.60704	0.03873
838.32128	0.03847
837.03551	0.03824
835.74974	0.03801
834.46397	0.03777
833.17820	0.03751
831.89243	0.03722
830.60666	0.03694
829.32089	0.03672
828.03512	0.03658
826.74936	0.03651
825.46359	0.03649
824.17782	0.03652
822.89205	0.03658
821.60628	0.03670
820.32051	0.03686
819.03474	0.03699
817.74897	0.03702
816.46321	0.03692
815.17744	0.03677
813.89167	0.03666
812.60590	0.03658
811.32013	0.03647
810.03436	0.03631
808.74859	0.03612
807.46282	0.03594
806.17705	0.03577
804.89129	0.03566
803.60552	0.03564
802.31975	0.03567
801.03398	0.03568
799.74821	0.03559
798.46244	0.03541
797.17667	0.03521
795.89090	0.03509
794.60513	0.03506
793.31937	0.03507
792.03360	0.03504
790.74783	0.03494
789.46206	0.03479
788.17629	0.03465
786.89052	0.03455
785.60475	0.03448
784.31898	0.03441
783.03322	0.03429
781.74745	0.03414
780.46168	0.03404
779.17591	0.03399
777.89014	0.03397
776.60437	0.03393
775.31860	0.03383
774.03283	0.03366
772.74706	0.03349
771.46130	0.03336
770.17553	0.03332
768.88976	0.03337
767.60399	0.03343
766.31822	0.03343
765.03245	0.03335
763.74668	0.03323
762.46091	0.03316
761.17515	0.03320
759.88938	0.03337
758.60361	0.03361
757.31784	0.03381
756.03207	0.03386
754.74630	0.03374
753.46053	0.03356
752.17476	0.03343
750.88899	0.03339
749.60323	0.03339
748.31746	0.03336
747.03169	0.03330
745.74592	0.03324
744.46015	0.03323
743.17438	0.03327
741.88861	0.03336
740.60284	0.03344
739.31708	0.03347
738.03131	0.03347
736.74554	0.03355
735.45977	0.03373
734.17400	0.03396
732.88823	0.03406
731.60246	0.03399
730.31669	0.03384
729.03092	0.03376
727.74516	0.03379
726.45939	0.03387
725.17362	0.03392
723.88785	0.03365
722.60208	0.03385
721.31631	0.03428
720.03054	0.03468
718.74477	0.03501
717.45901	0.03522
716.17324	0.03520
714.88747	0.03499
713.60170	0.03468
712.31593	0.03437
711.03016	0.03415
709.74439	0.03402
708.45862	0.03399
707.17285	0.03403
705.88709	0.03411
704.60132	0.03423
703.31555	0.03436
702.02978	0.03448
700.74401	0.03454
699.45824	0.03456
698.17247	0.03458
696.88670	0.03465
695.60094	0.03479
694.31517	0.03497
693.02940	0.03511
691.74363	0.03514
690.45786	0.03505
689.17209	0.03492
687.88632	0.03481
686.60055	0.03477
685.31478	0.03477
684.02902	0.03479
682.74325	0.03477
681.45748	0.03470
680.17171	0.03460
678.88594	0.03453
677.60017	0.03450
676.31440	0.03451
675.02863	0.03452
673.74287	0.03452
672.45710	0.03458
671.17133	0.03472
669.88556	0.03488
668.59979	0.03488
667.31402	0.03472
666.02825	0.03460
664.74248	0.03441
663.45671	0.03433
662.17095	0.03439
660.88518	0.03450
659.59941	0.03458
658.31364	0.03459
657.02787	0.03455
655.74210	0.03449
654.45633	0.03443
653.17056	0.03437
651.88480	0.03431
650.59903	0.03423
649.31326	0.03413
648.02749	0.03405
646.74172	0.03401
645.45595	0.03399
644.17018	0.03394
642.88441	0.03383
641.59864	0.03364
640.31288	0.03341
639.02711	0.03316
637.74134	0.03292
636.45557	0.03273
635.16980	0.03260
633.88403	0.03250
632.59826	0.03230
631.31249	0.03242
630.02673	0.03482
628.74096	0.03852
627.45519	0.03568
626.16942	0.03987
624.88365	0.04886
623.59788	0.05739
622.31211	0.06341
621.02634	0.06603
619.74057	0.06514
618.45481	0.06174
617.16904	0.05747
615.88327	0.05393
614.59750	0.05226
613.31173	0.05282
612.02596	0.05508
610.74019	0.05794
609.45442	0.06074
608.16866	0.06350
606.88289	0.06626
605.59712	0.06851
604.31135	0.06955
603.02558	0.06904
601.73981	0.06719
600.45404	0.06447
599.16827	0.06140
597.88250	0.05839
596.59674	0.05569
595.31097	0.05347
594.02520	0.05179
592.73943	0.05068
591.45366	0.05007
590.16789	0.04982
588.88212	0.04978
587.59635	0.04985
586.31059	0.05005
585.02482	0.05047
583.73905	0.05116
582.45328	0.05213
581.16751	0.05336
579.88174	0.05473
578.59597	0.05602
577.31020	0.05705
576.02443	0.05783
574.73867	0.05858
573.45290	0.05953
572.16713	0.06077
570.88136	0.06224
569.59559	0.06378
568.30982	0.06523
567.02405	0.06644
565.73828	0.06729
564.45251	0.06773
563.16675	0.06774
561.88098	0.06735
560.59521	0.06659
559.30944	0.06555
558.02367	0.06436
556.73790	0.06317
555.45213	0.06209
554.16636	0.06115
552.88060	0.06033
551.59483	0.05960
550.30906	0.05893
549.02329	0.05829
547.73752	0.05768
546.45175	0.05716
545.16598	0.05673
543.88021	0.05639
542.59444	0.05605
541.30868	0.05566
540.02291	0.05525
538.73714	0.05488
537.45137	0.05459
536.16560	0.05433
534.87983	0.05405
533.59406	0.05368
532.30829	0.05329
531.02253	0.05298
529.73676	0.05285
528.45099	0.05293
527.16522	0.05313
525.87945	0.05331
524.59368	0.05339
523.30791	0.05334
522.02214	0.05322
520.73637	0.05304
519.45061	0.05284
518.16484	0.05272
516.87907	0.05271
515.59330	0.05279
514.30753	0.05283
513.02176	0.05277
511.73599	0.05262
510.45022	0.05239
509.16446	0.05207
507.87869	0.05170
506.59292	0.05135
505.30715	0.05113
504.02138	0.05102
502.73561	0.05089
501.44984	0.05068
500.16407	0.05039
498.87830	0.05011
497.59254	0.04985
496.30677	0.04953
495.02100	0.04905
493.73523	0.04843
492.44946	0.04779
491.16369	0.04729
489.87792	0.04692
488.59215	0.04658
487.30639	0.04616
486.02062	0.04568
484.73485	0.04518
483.44908	0.04470
482.16331	0.04422
480.87754	0.04373
479.59177	0.04324
478.30600	0.04282
477.02023	0.04252
475.73447	0.04231
474.44870	0.04213
473.16293	0.04192
471.87716	0.04164
470.59139	0.04131
469.30562	0.04099
468.01985	0.04075
466.73408	0.04058
465.44832	0.04042
464.16255	0.04021
462.87678	0.03991
461.59101	0.03956
460.30524	0.03917
459.01947	0.03876
457.73370	0.03836
456.44793	0.03801
455.16216	0.03771
453.87640	0.03745
452.59063	0.03721
451.30486	0.03701
450.01909	0.03683
448.73332	0.03662
447.44755	0.03635
446.16178	0.03604
444.87601	0.03574
443.59025	0.03551
442.30448	0.03534
441.01871	0.03518
439.73294	0.03500
438.44717	0.03482
437.16140	0.03466
435.87563	0.03451
434.58986	0.03432
433.30409	0.03409
432.01833	0.03385
430.73256	0.03365
429.44679	0.03352
428.16102	0.03345
426.87525	0.03336
425.58948	0.03323
424.30371	0.03302
423.01794	0.03277
421.73218	0.03252
420.44641	0.03232
419.16064	0.03214
417.87487	0.03199
416.58910	0.03181
415.30333	0.03162
414.01756	0.03140
412.73179	0.03119
411.44602	0.03100
410.16026	0.03084
408.87449	0.03069
407.58872	0.03050
406.30295	0.03029
405.01718	0.03007
403.73141	0.02988
402.44564	0.02968
401.15987	0.02948
399.87411	0.02926
