3997.45528	0.03359
3996.16951	0.03330
3994.88374	0.03320
3993.59798	0.03335
3992.31221	0.03363
3991.02644	0.03401
3989.74067	0.03458
3988.45490	0.03536
3987.16913	0.03606
3985.88336	0.03633
3984.59759	0.03596
3983.31183	0.03518
3982.02606	0.03442
3980.74029	0.03411
3979.45452	0.03433
3978.16875	0.03483
3976.88298	0.03525
3975.59721	0.03535
3974.31144	0.03511
3973.02567	0.03469
3971.73991	0.03443
3970.45414	0.03455
3969.16837	0.03495
3967.88260	0.03529
3966.59683	0.03523
3965.31106	0.03482
3964.02529	0.03430
3962.73952	0.03385
3961.45376	0.03345
3960.16799	0.03312
3958.88222	0.03298
3957.59645	0.03316
3956.31068	0.03350
3955.02491	0.03360
3953.73914	0.03330
3952.45337	0.03289
3951.16760	0.03272
3949.88184	0.03291
3948.59607	0.03331
3947.31030	0.03373
3946.02453	0.03406
3944.73876	0.03433
3943.45299	0.03458
3942.16722	0.03481
3940.88145	0.03489
3939.59569	0.03475
3938.30992	0.03438
3937.02415	0.03388
3935.73838	0.03335
3934.45261	0.03294
3933.16684	0.03283
3931.88107	0.03306
3930.59530	0.03347
3929.30953	0.03380
3928.02377	0.03391
3926.73800	0.03384
3925.45223	0.03364
3924.16646	0.03336
3922.88069	0.03304
3921.59492	0.03277
3920.30915	0.03256
3919.02338	0.03232
3917.73762	0.03202
3916.45185	0.03177
3915.16608	0.03178
3913.88031	0.03210
3912.59454	0.03256
3911.30877	0.03288
3910.02300	0.03292
3908.73723	0.03270
3907.45146	0.03247
3906.16570	0.03249
3904.87993	0.03278
3903.59416	0.03313
3902.30839	0.03330
3901.02262	0.03325
3899.73685	0.03302
3898.45108	0.03268
3897.16531	0.03229
3895.87955	0.03201
3894.59378	0.03199
3893.30801	0.03226
3892.02224	0.03259
3890.73647	0.03266
3889.45070	0.03253
3888.16493	0.03259
3886.87916	0.03295
3885.59339	0.03325
3884.30763	0.03315
3883.02186	0.03281
3881.73609	0.03266
3880.45032	0.03280
3879.16455	0.03303
3877.87878	0.03318
3876.59301	0.03327
3875.30724	0.03336
3874.02148	0.03343
3872.73571	0.03347
3871.44994	0.03357
3870.16417	0.03372
3868.87840	0.03382
3867.59263	0.03381
3866.30686	0.03363
3865.02109	0.03318
3863.73532	0.03263
3862.44956	0.03233
3861.16379	0.03248
3859.87802	0.03284
3858.59225	0.03307
3857.30648	0.03304
3856.02071	0.03291
3854.73494	0.03286
3853.44917	0.03281
3852.16341	0.03265
3850.87764	0.03240
3849.59187	0.03208
3848.30610	0.03166
3847.02033	0.03125
3845.73456	0.03105
3844.44879	0.03115
3843.16302	0.03141
3841.87725	0.03160
3840.59149	0.03167
3839.30572	0.03167
3838.01995	0.03163
3836.73418	0.03159
3835.44841	0.03173
3834.16264	0.03216
3832.87687	0.03267
3831.59110	0.03288
3830.30534	0.03257
3829.01957	0.03197
3827.73380	0.03143
3826.44803	0.03116
3825.16226	0.03113
3823.87649	0.03133
3822.59072	0.03163
3821.30495	0.03167
3820.01918	0.03127
3818.73342	0.03079
3817.44765	0.03073
3816.16188	0.03105
3814.87611	0.03136
3813.59034	0.03147
3812.30457	0.03145
3811.01880	0.03137
3809.73303	0.03129
3808.44726	0.03126
3807.16150	0.03118
3805.87573	0.03101
3804.58996	0.03103
3803.30419	0.03158
3802.01842	0.03250
3800.73265	0.03322
3799.44688	0.03339
3798.16111	0.03320
3796.87535	0.03302
3795.58958	0.03301
3794.30381	0.03310
3793.01804	0.03301
3791.73227	0.03255
3790.44650	0.03190
3789.16073	0.03140
3787.87496	0.03127
3786.58919	0.03136
3785.30343	0.03143
3784.01766	0.03140
3782.73189	0.03134
3781.44612	0.03143
3780.16035	0.03168
3778.87458	0.03195
3777.58881	0.03208
3776.30304	0.03200
3775.01728	0.03175
3773.73151	0.03143
3772.44574	0.03112
3771.15997	0.03077
3769.87420	0.03025
3768.58843	0.02959
3767.30266	0.02916
3766.01689	0.02926
3764.73112	0.02975
3763.44536	0.03021
3762.15959	0.03036
3760.87382	0.03021
3759.58805	0.03000
3758.30228	0.02986
3757.01651	0.02974
3755.73074	0.02954
3754.44497	0.02935
3753.15921	0.02933
3751.87344	0.02948
3750.58767	0.02955
3749.30190	0.02929
3748.01613	0.02881
3746.73036	0.02868
3745.44459	0.02908
3744.15882	0.02943
3742.87305	0.02923
3741.58729	0.02869
3740.30152	0.02835
3739.01575	0.02846
3737.72998	0.02892
3736.44421	0.02934
3735.15844	0.02948
3733.87267	0.02947
3732.58690	0.02959
3731.30114	0.02985
3730.01537	0.03000
3728.72960	0.02992
3727.44383	0.02965
3726.15806	0.02930
3724.87229	0.02895
3723.58652	0.02857
3722.30075	0.02809
3721.01498	0.02752
3719.72922	0.02712
3718.44345	0.02714
3717.15768	0.02763
3715.87191	0.02830
3714.58614	0.02882
3713.30037	0.02909
3712.01460	0.02924
3710.72883	0.02936
3709.44307	0.02939
3708.15730	0.02923
3706.87153	0.02889
3705.58576	0.02857
3704.29999	0.02842
3703.01422	0.02845
3701.72845	0.02862
3700.44268	0.02886
3699.15691	0.02901
3697.87115	0.02893
3696.58538	0.02860
3695.29961	0.02814
3694.01384	0.02781
3692.72807	0.02786
3691.44230	0.02824
3690.15653	0.02870
3688.87076	0.02895
3687.58500	0.02887
3686.29923	0.02865
3685.01346	0.02873
3683.72769	0.02919
3682.44192	0.02967
3681.15615	0.02979
3679.87038	0.02945
3678.58461	0.02895
3677.29884	0.02872
3676.01308	0.02876
3674.72731	0.02877
3673.44154	0.02869
3672.15577	0.02875
3670.87000	0.02896
3669.58423	0.02910
3668.29846	0.02908
3667.01269	0.02909
3665.72693	0.02931
3664.44116	0.02969
3663.15539	0.03009
3661.86962	0.03041
3660.58385	0.03080
3659.29808	0.03146
3658.01231	0.03227
3656.72654	0.03277
3655.44077	0.03260
3654.15501	0.03190
3652.86924	0.03112
3651.58347	0.03060
3650.29770	0.03039
3649.01193	0.03052
3647.72616	0.03094
3646.44039	0.03148
3645.15462	0.03194
3643.86886	0.03226
3642.58309	0.03248
3641.29732	0.03263
3640.01155	0.03271
3638.72578	0.03282
3637.44001	0.03304
3636.15424	0.03346
3634.86847	0.03403
3633.58270	0.03466
3632.29694	0.03527
3631.01117	0.03583
3629.72540	0.03628
3628.43963	0.03651
3627.15386	0.03652
3625.86809	0.03644
3624.58232	0.03634
3623.29655	0.03625
3622.01079	0.03632
3620.72502	0.03663
3619.43925	0.03703
3618.15348	0.03727
3616.86771	0.03732
3615.58194	0.03731
3614.29617	0.03735
3613.01040	0.03741
3611.72463	0.03741
3610.43887	0.03739
3609.15310	0.03741
3607.86733	0.03753
3606.58156	0.03786
3605.29579	0.03843
3604.01002	0.03915
3602.72425	0.03983
3601.43848	0.04040
3600.15272	0.04095
3598.86695	0.04161
3597.58118	0.04242
3596.29541	0.04329
3595.00964	0.04398
3593.72387	0.04428
3592.43810	0.04420
3591.15233	0.04400
3589.86656	0.04387
3588.58080	0.04390
3587.29503	0.04413
3586.00926	0.04461
3584.72349	0.04523
3583.43772	0.04582
3582.15195	0.04615
3580.86618	0.04615
3579.58041	0.04603
3578.29464	0.04605
3577.00888	0.04635
3575.72311	0.04682
3574.43734	0.04726
3573.15157	0.04762
3571.86580	0.04802
3570.58003	0.04861
3569.29426	0.04941
3568.00849	0.05024
3566.72273	0.05090
3565.43696	0.05129
3564.15119	0.05148
3562.86542	0.05159
3561.57965	0.05170
3560.29388	0.05177
3559.00811	0.05180
3557.72234	0.05186
3556.43657	0.05202
3555.15081	0.05232
3553.86504	0.05270
3552.57927	0.05307
3551.29350	0.05331
3550.00773	0.05353
3548.72196	0.05398
3547.43619	0.05482
3546.15042	0.05586
3544.86466	0.05671
3543.57889	0.05704
3542.29312	0.05689
3541.00735	0.05656
3539.72158	0.05643
3538.43581	0.05668
3537.15004	0.05730
3535.86427	0.05810
3534.57850	0.05886
3533.29274	0.05944
3532.00697	0.05985
3530.72120	0.06017
3529.43543	0.06045
3528.14966	0.06072
3526.86389	0.06104
3525.57812	0.06151
3524.29235	0.06206
3523.00659	0.06251
3521.72082	0.06275
3520.43505	0.06286
3519.14928	0.06302
3517.86351	0.06332
3516.57774	0.06370
3515.29197	0.06401
3514.00620	0.06419
3512.72043	0.06433
3511.43467	0.06460
3510.14890	0.06517
3508.86313	0.06599
3507.57736	0.06681
3506.29159	0.06733
3505.00582	0.06748
3503.72005	0.06743
3502.43428	0.06739
3501.14852	0.06744
3499.86275	0.06752
3498.57698	0.06762
3497.29121	0.06788
3496.00544	0.06845
3494.71967	0.06934
3493.43390	0.07035
3492.14813	0.07119
3490.86236	0.07170
3489.57660	0.07190
3488.29083	0.07196
3487.00506	0.07207
3485.71929	0.07227
3484.43352	0.07250
3483.14775	0.07271
3481.86198	0.07298
3480.57621	0.07347
3479.29045	0.07414
3478.00468	0.07469
3476.71891	0.07486
3475.43314	0.07477
3474.14737	0.07474
3472.86160	0.07498
3471.57583	0.07537
3470.29006	0.07565
3469.00429	0.07570
3467.71853	0.07556
3466.43276	0.07540
3465.14699	0.07536
3463.86122	0.07556
3462.57545	0.07603
3461.28968	0.07665
3460.00391	0.07728
3458.71814	0.07777
3457.43238	0.07803
3456.14661	0.07815
3454.86084	0.07829
3453.57507	0.07860
3452.28930	0.07902
3451.00353	0.07936
3449.71776	0.07952
3448.43199	0.07957
3447.14622	0.07965
3445.86046	0.07992
3444.57469	0.08041
3443.28892	0.08104
3442.00315	0.08166
3440.71738	0.08215
3439.43161	0.08252
3438.14584	0.08283
3436.86007	0.08308
3435.57431	0.08329
3434.28854	0.08348
3433.00277	0.08378
3431.71700	0.08419
3430.43123	0.08468
3429.14546	0.08519
3427.85969	0.08569
3426.57392	0.08611
3425.28815	0.08636
3424.00239	0.08645
3422.71662	0.08649
3421.43085	0.08662
3420.14508	0.08695
3418.85931	0.08744
3417.57354	0.08795
3416.28777	0.08835
3415.00200	0.08862
3413.71624	0.08884
3412.43047	0.08908
3411.14470	0.08933
3409.85893	0.08952
3408.57316	0.08962
3407.28739	0.08973
3406.00162	0.09002
3404.71585	0.09056
3403.43008	0.09126
3402.14432	0.09192
3400.85855	0.09234
3399.57278	0.09252
3398.28701	0.09261
3397.00124	0.09278
3395.71547	0.09316
3394.42970	0.09360
3393.14393	0.09388
3391.85817	0.09397
3390.57240	0.09416
3389.28663	0.09474
3388.00086	0.09573
3386.71509	0.09678
3385.42932	0.09751
3384.14355	0.09780
3382.85778	0.09780
3381.57201	0.09781
3380.28625	0.09806
3379.00048	0.09852
3377.71471	0.09896
3376.42894	0.09925
3375.14317	0.09952
3373.85740	0.09996
3372.57163	0.10051
3371.28586	0.10092
3370.00010	0.10107
3368.71433	0.10110
3367.42856	0.10120
3366.14279	0.10145
3364.85702	0.10186
3363.57125	0.10242
3362.28548	0.10302
3360.99971	0.10353
3359.71394	0.10398
3358.42818	0.10458
3357.14241	0.10548
3355.85664	0.10656
3354.57087	0.10759
3353.28510	0.10847
3351.99933	0.10914
3350.71356	0.10953
3349.42779	0.10962
3348.14202	0.10961
3346.85626	0.10981
3345.57049	0.11036
3344.28472	0.11111
3342.99895	0.11187
3341.71318	0.11250
3340.42741	0.11302
3339.14164	0.11354
3337.85587	0.11415
3336.57011	0.11495
3335.28434	0.11588
3333.99857	0.11676
3332.71280	0.11735
3331.42703	0.11758
3330.14126	0.11758
3328.85549	0.11760
3327.56972	0.11779
3326.28395	0.11818
3324.99819	0.11870
3323.71242	0.11930
3322.42665	0.11996
3321.14088	0.12059
3319.85511	0.12112
3318.56934	0.12153
3317.28357	0.12187
3315.99780	0.12216
3314.71204	0.12239
3313.42627	0.12258
3312.14050	0.12287
3310.85473	0.12334
3309.56896	0.12395
3308.28319	0.12453
3306.99742	0.12497
3305.71165	0.12520
3304.42588	0.12532
3303.14012	0.12548
3301.85435	0.12576
3300.56858	0.12607
3299.28281	0.12626
3297.99704	0.12631
3296.71127	0.12634
3295.42550	0.12642
3294.13973	0.12656
3292.85397	0.12674
3291.56820	0.12693
3290.28243	0.12716
3288.99666	0.12744
3287.71089	0.12778
3286.42512	0.12814
3285.13935	0.12848
3283.85358	0.12874
3282.56781	0.12889
3281.28205	0.12893
3279.99628	0.12892
3278.71051	0.12891
3277.42474	0.12890
3276.13897	0.12880
3274.85320	0.12855
3273.56743	0.12818
3272.28166	0.12775
3270.99590	0.12727
3269.71013	0.12668
3268.42436	0.12599
3267.13859	0.12537
3265.85282	0.12494
3264.56705	0.12472
3263.28128	0.12458
3261.99551	0.12441
3260.70974	0.12415
3259.42398	0.12385
3258.13821	0.12354
3256.85244	0.12323
3255.56667	0.12292
3254.28090	0.12262
3252.99513	0.12239
3251.70936	0.12227
3250.42359	0.12221
3249.13783	0.12203
3247.85206	0.12156
3246.56629	0.12082
3245.28052	0.12011
3243.99475	0.11968
3242.70898	0.11956
3241.42321	0.11959
3240.13744	0.11956
3238.85167	0.11932
3237.56591	0.11881
3236.28014	0.11810
3234.99437	0.11744
3233.70860	0.11702
3232.42283	0.11686
3231.13706	0.11679
3229.85129	0.11661
3228.56552	0.11626
3227.27976	0.11584
3225.99399	0.11547
3224.70822	0.11518
3223.42245	0.11498
3222.13668	0.11495
3220.85091	0.11514
3219.56514	0.11548
3218.27937	0.11573
3216.99360	0.11571
3215.70784	0.11545
3214.42207	0.11513
3213.13630	0.11482
3211.85053	0.11443
3210.56476	0.11392
3209.27899	0.11333
3207.99322	0.11275
3206.70745	0.11219
3205.42169	0.11166
3204.13592	0.11124
3202.85015	0.11101
3201.56438	0.11101
3200.27861	0.11118
3198.99284	0.11144
3197.70707	0.11164
3196.42130	0.11156
3195.13553	0.11112
3193.84977	0.11048
3192.56400	0.10993
3191.27823	0.10956
3189.99246	0.10922
3188.70669	0.10878
3187.42092	0.10828
3186.13515	0.10785
3184.84938	0.10751
3183.56362	0.10712
3182.27785	0.10662
3180.99208	0.10609
3179.70631	0.10573
3178.42054	0.10558
3177.13477	0.10548
3175.84900	0.10520
3174.56323	0.10474
3173.27746	0.10428
3171.99170	0.10400
3170.70593	0.10383
3169.42016	0.10352
3168.13439	0.10290
3166.84862	0.10212
3165.56285	0.10142
3164.27708	0.10091
3162.99131	0.10047
3161.70555	0.10000
3160.41978	0.09955
3159.13401	0.09923
3157.84824	0.09906
3156.56247	0.09891
3155.27670	0.09864
3153.99093	0.09819
3152.70516	0.09762
3151.41939	0.09706
3150.13363	0.09665
3148.84786	0.09645
3147.56209	0.09641
3146.27632	0.09638
3144.99055	0.09623
3143.70478	0.09596
3142.41901	0.09568
3141.13324	0.09551
3139.84748	0.09537
3138.56171	0.09514
3137.27594	0.09475
3135.99017	0.09426
3134.70440	0.09373
3133.41863	0.09317
3132.13286	0.09264
3130.84709	0.09222
3129.56132	0.09199
3128.27556	0.09194
3126.98979	0.09201
3125.70402	0.09208
3124.41825	0.09205
3123.13248	0.09189
3121.84671	0.09167
3120.56094	0.09146
3119.27517	0.09126
3117.98940	0.09104
3116.70364	0.09084
3115.41787	0.09068
3114.13210	0.09053
3112.84633	0.09036
3111.56056	0.09029
3110.27479	0.09046
3108.98902	0.09091
3107.70325	0.09149
3106.41749	0.09197
3105.13172	0.09221
3103.84595	0.09224
3102.56018	0.09219
3101.27441	0.09220
3099.98864	0.09232
3098.70287	0.09249
3097.41710	0.09257
3096.13133	0.09246
3094.84557	0.09223
3093.55980	0.09209
3092.27403	0.09216
3090.98826	0.09239
3089.70249	0.09268
3088.41672	0.09300
3087.13095	0.09329
3085.84518	0.09348
3084.55942	0.09360
3083.27365	0.09378
3081.98788	0.09407
3080.70211	0.09440
3079.41634	0.09465
3078.13057	0.09473
3076.84480	0.09460
3075.55903	0.09430
3074.27326	0.09395
3072.98750	0.09368
3071.70173	0.09356
3070.41596	0.09358
3069.13019	0.09372
3067.84442	0.09388
3066.55865	0.09398
3065.27288	0.09398
3063.98711	0.09391
3062.70135	0.09388
3061.41558	0.09397
3060.12981	0.09424
3058.84404	0.09458
3057.55827	0.09478
3056.27250	0.09462
3054.98673	0.09408
3053.70096	0.09325
3052.41519	0.09232
3051.12943	0.09143
3049.84366	0.09070
3048.55789	0.09017
3047.27212	0.08981
3045.98635	0.08958
3044.70058	0.08947
3043.41481	0.08943
3042.12904	0.08939
3040.84328	0.08929
3039.55751	0.08911
3038.27174	0.08890
3036.98597	0.08870
3035.70020	0.08845
3034.41443	0.08803
3033.12866	0.08746
3031.84289	0.08690
3030.55712	0.08648
3029.27136	0.08624
3027.98559	0.08609
3026.69982	0.08594
3025.41405	0.08572
3024.12828	0.08538
3022.84251	0.08494
3021.55674	0.08450
3020.27097	0.08420
3018.98521	0.08405
3017.69944	0.08394
3016.41367	0.08376
3015.12790	0.08345
3013.84213	0.08309
3012.55636	0.08277
3011.27059	0.08256
3009.98482	0.08245
3008.69905	0.08240
3007.41329	0.08242
3006.12752	0.08249
3004.84175	0.08252
3003.55598	0.08247
3002.27021	0.08232
3000.98444	0.08208
2999.69867	0.08180
2998.41290	0.08164
2997.12714	0.08165
2995.84137	0.08188
2994.55560	0.08230
2993.26983	0.08282
2991.98406	0.08331
2990.69829	0.08356
2989.41252	0.08350
2988.12675	0.08329
2986.84098	0.08322
2985.55522	0.08349
2984.26945	0.08410
2982.98368	0.08488
2981.69791	0.08566
2980.41214	0.08633
2979.12637	0.08687
2977.84060	0.08728
2976.55483	0.08762
2975.26907	0.08798
2973.98330	0.08839
2972.69753	0.08881
2971.41176	0.08921
2970.12599	0.08962
2968.84022	0.09010
2967.55445	0.09062
2966.26868	0.09115
2964.98291	0.09165
2963.69715	0.09211
2962.41138	0.09242
2961.12561	0.09251
2959.83984	0.09247
2958.55407	0.09251
2957.26830	0.09272
2955.98253	0.09296
2954.69676	0.09299
2953.41100	0.09277
2952.12523	0.09251
2950.83946	0.09246
2949.55369	0.09267
2948.26792	0.09302
2946.98215	0.09338
2945.69638	0.09369
2944.41061	0.09395
2943.12484	0.09419
2941.83908	0.09441
2940.55331	0.09460
2939.26754	0.09482
2937.98177	0.09513
2936.69600	0.09549
2935.41023	0.09580
2934.12446	0.09600
2932.83869	0.09618
2931.55293	0.09646
2930.26716	0.09689
2928.98139	0.09741
2927.69562	0.09784
2926.40985	0.09799
2925.12408	0.09774
2923.83831	0.09709
2922.55254	0.09629
2921.26677	0.09569
2919.98101	0.09551
2918.69524	0.09560
2917.40947	0.09552
2916.12370	0.09496
2914.83793	0.09395
2913.55216	0.09282
2912.26639	0.09184
2910.98062	0.09109
2909.69486	0.09048
2908.40909	0.08988
2907.12332	0.08915
2905.83755	0.08830
2904.55178	0.08751
2903.26601	0.08700
2901.98024	0.08679
2900.69447	0.08666
2899.40870	0.08641
2898.12294	0.08601
2896.83717	0.08556
2895.55140	0.08515
2894.26563	0.08484
2892.97986	0.08461
2891.69409	0.08439
2890.40832	0.08412
2889.12255	0.08388
2887.83678	0.08381
2886.55102	0.08391
2885.26525	0.08406
2883.97948	0.08413
2882.69371	0.08413
2881.40794	0.08418
2880.12217	0.08435
2878.83640	0.08459
2877.55063	0.08474
2876.26487	0.08468
2874.97910	0.08446
2873.69333	0.08425
2872.40756	0.08416
2871.12179	0.08415
2869.83602	0.08407
2868.55025	0.08379
2867.26448	0.08332
2865.97871	0.08279
2864.69295	0.08241
2863.40718	0.08228
2862.12141	0.08231
2860.83564	0.08227
2859.54987	0.08204
2858.26410	0.08173
2856.97833	0.08156
2855.69256	0.08159
2854.40680	0.08168
2853.12103	0.08156
2851.83526	0.08108
2850.54949	0.08036
2849.26372	0.07965
2847.97795	0.07913
2846.69218	0.07877
2845.40641	0.07835
2844.12064	0.07769
2842.83488	0.07684
2841.54911	0.07607
2840.26334	0.07560
2838.97757	0.07541
2837.69180	0.07526
2836.40603	0.07499
2835.12026	0.07466
2833.83449	0.07435
2832.54873	0.07410
2831.26296	0.07382
2829.97719	0.07350
2828.69142	0.07318
2827.40565	0.07286
2826.11988	0.07249
2824.83411	0.07210
2823.54834	0.07175
2822.26257	0.07153
2820.97681	0.07147
2819.69104	0.07154
2818.40527	0.07167
2817.11950	0.07174
2815.83373	0.07159
2814.54796	0.07117
2813.26219	0.07066
2811.97642	0.07028
2810.69066	0.07011
2809.40489	0.07001
2808.11912	0.06982
2806.83335	0.06955
2805.54758	0.06931
2804.26181	0.06915
2802.97604	0.06905
2801.69027	0.06893
2800.40450	0.06874
2799.11874	0.06851
2797.83297	0.06835
2796.54720	0.06832
2795.26143	0.06836
2793.97566	0.06831
2792.68989	0.06809
2791.40412	0.06779
2790.11835	0.06757
2788.83259	0.06748
2787.54682	0.06741
2786.26105	0.06726
2784.97528	0.06708
2783.68951	0.06697
2782.40374	0.06695
2781.11797	0.06699
2779.83220	0.06702
2778.54643	0.06697
2777.26067	0.06678
2775.97490	0.06648
2774.68913	0.06616
2773.40336	0.06596
2772.11759	0.06589
2770.83182	0.06585
2769.54605	0.06574
2768.26028	0.06556
2766.97452	0.06535
2765.68875	0.06519
2764.40298	0.06505
2763.11721	0.06484
2761.83144	0.06452
2760.54567	0.06414
2759.25990	0.06383
2757.97413	0.06364
2756.68836	0.06353
2755.40260	0.06347
2754.11683	0.06345
2752.83106	0.06346
2751.54529	0.06346
2750.25952	0.06342
2748.97375	0.06334
2747.68798	0.06324
2746.40221	0.06310
2745.11645	0.06292
2743.83068	0.06266
2742.54491	0.06230
2741.25914	0.06189
2739.97337	0.06150
2738.68760	0.06122
2737.40183	0.06112
2736.11606	0.06117
2734.83029	0.06129
2733.54453	0.06140
2732.25876	0.06147
2730.97299	0.06150
2729.68722	0.06146
2728.40145	0.06129
2727.11568	0.06098
2725.82991	0.06060
2724.54414	0.06025
2723.25838	0.06003
2721.97261	0.05997
2720.68684	0.05998
2719.40107	0.05992
2718.11530	0.05977
2716.82953	0.05966
2715.54376	0.05968
2714.25799	0.05974
2712.97222	0.05965
2711.68646	0.05938
2710.40069	0.05907
2709.11492	0.05888
2707.82915	0.05885
2706.54338	0.05885
2705.25761	0.05873
2703.97184	0.05850
2702.68607	0.05826
2701.40031	0.05806
2700.11454	0.05787
2698.82877	0.05765
2697.54300	0.05740
2696.25723	0.05721
2694.97146	0.05715
2693.68569	0.05724
2692.39992	0.05746
2691.11415	0.05772
2689.82839	0.05792
2688.54262	0.05797
2687.25685	0.05784
2685.97108	0.05750
2684.68531	0.05702
2683.39954	0.05655
2682.11377	0.05629
2680.82800	0.05628
2679.54224	0.05639
2678.25647	0.05641
2676.97070	0.05625
2675.68493	0.05597
2674.39916	0.05570
2673.11339	0.05553
2671.82762	0.05548
2670.54185	0.05556
2669.25608	0.05576
2667.97032	0.05596
2666.68455	0.05599
2665.39878	0.05576
2664.11301	0.05540
2662.82724	0.05511
2661.54147	0.05496
2660.25570	0.05485
2658.96993	0.05468
2657.68417	0.05445
2656.39840	0.05423
2655.11263	0.05404
2653.82686	0.05386
2652.54109	0.05369
2651.25532	0.05359
2649.96955	0.05354
2648.68378	0.05344
2647.39801	0.05325
2646.11225	0.05303
2644.82648	0.05289
2643.54071	0.05284
2642.25494	0.05278
2640.96917	0.05264
2639.68340	0.05245
2638.39763	0.05227
2637.11186	0.05214
2635.82609	0.05203
2634.54033	0.05181
2633.25456	0.05138
2631.96879	0.05075
2630.68302	0.05008
2629.39725	0.04959
2628.11148	0.04944
2626.82571	0.04955
2625.53994	0.04978
2624.25418	0.04999
2622.96841	0.05009
2621.68264	0.05008
2620.39687	0.04992
2619.11110	0.04960
2617.82533	0.04924
2616.53956	0.04901
2615.25379	0.04899
2613.96802	0.04902
2612.68226	0.04883
2611.39649	0.04832
2610.11072	0.04769
2608.82495	0.04722
2607.53918	0.04707
2606.25341	0.04716
2604.96764	0.04731
2603.68187	0.04731
2602.39611	0.04711
2601.11034	0.04682
2599.82457	0.04662
2598.53880	0.04662
2597.25303	0.04673
2595.96726	0.04678
2594.68149	0.04665
2593.39572	0.04637
2592.10995	0.04602
2590.82419	0.04574
2589.53842	0.04566
2588.25265	0.04580
2586.96688	0.04594
2585.68111	0.04585
2584.39534	0.04547
2583.10957	0.04501
2581.82380	0.04469
2580.53804	0.04460
2579.25227	0.04473
2577.96650	0.04495
2576.68073	0.04512
2575.39496	0.04517
2574.10919	0.04509
2572.82342	0.04486
2571.53765	0.04442
2570.25188	0.04386
2568.96612	0.04346
2567.68035	0.04340
2566.39458	0.04365
2565.10881	0.04399
2563.82304	0.04418
2562.53727	0.04414
2561.25150	0.04391
2559.96573	0.04366
2558.67997	0.04348
2557.39420	0.04341
2556.10843	0.04338
2554.82266	0.04328
2553.53689	0.04307
2552.25112	0.04282
2550.96535	0.04269
2549.67958	0.04277
2548.39381	0.04303
2547.10805	0.04327
2545.82228	0.04324
2544.53651	0.04287
2543.25074	0.04236
2541.96497	0.04200
2540.67920	0.04195
2539.39343	0.04216
2538.10766	0.04245
2536.82190	0.04264
2535.53613	0.04259
2534.25036	0.04227
2532.96459	0.04181
2531.67882	0.04137
2530.39305	0.04105
2529.10728	0.04081
2527.82151	0.04061
2526.53574	0.04046
2525.24998	0.04043
2523.96421	0.04060
2522.67844	0.04092
2521.39267	0.04129
2520.10690	0.04168
2518.82113	0.04211
2517.53536	0.04254
2516.24959	0.04282
2514.96383	0.04283
2513.67806	0.04255
2512.39229	0.04211
2511.10652	0.04162
2509.82075	0.04122
2508.53498	0.04099
2507.24921	0.04097
2505.96344	0.04106
2504.67767	0.04115
2503.39191	0.04118
2502.10614	0.04126
2500.82037	0.04142
2499.53460	0.04156
2498.24883	0.04145
2496.96306	0.04105
2495.67729	0.04061
2494.39152	0.04042
2493.10576	0.04050
2491.81999	0.04056
2490.53422	0.04033
2489.24845	0.03976
2487.96268	0.03904
2486.67691	0.03846
2485.39114	0.03826
2484.10537	0.03847
2482.81960	0.03888
2481.53384	0.03918
2480.24807	0.03920
2478.96230	0.03909
2477.67653	0.03905
2476.39076	0.03918
2475.10499	0.03939
2473.81922	0.03962
2472.53345	0.03980
2471.24769	0.03978
2469.96192	0.03948
2468.67615	0.03902
2467.39038	0.03874
2466.10461	0.03879
2464.81884	0.03904
2463.53307	0.03922
2462.24730	0.03931
2460.96153	0.03940
2459.67577	0.03947
2458.39000	0.03939
2457.10423	0.03909
2455.81846	0.03870
2454.53269	0.03842
2453.24692	0.03838
2451.96115	0.03852
2450.67538	0.03875
2449.38962	0.03897
2448.10385	0.03911
2446.81808	0.03909
2445.53231	0.03887
2444.24654	0.03852
2442.96077	0.03822
2441.67500	0.03816
2440.38923	0.03833
2439.10346	0.03857
2437.81770	0.03873
2436.53193	0.03882
2435.24616	0.03886
2433.96039	0.03886
2432.67462	0.03882
2431.38885	0.03879
2430.10308	0.03883
2428.81731	0.03889
2427.53155	0.03884
2426.24578	0.03866
2424.96001	0.03845
2423.67424	0.03839
2422.38847	0.03857
2421.10270	0.03889
2419.81693	0.03917
2418.53116	0.03931
2417.24539	0.03932
2415.95963	0.03926
2414.67386	0.03911
2413.38809	0.03890
2412.10232	0.03869
2410.81655	0.03855
2409.53078	0.03844
2408.24501	0.03825
2406.95924	0.03798
2405.67347	0.03785
2404.38771	0.03802
2403.10194	0.03839
2401.81617	0.03872
2400.53040	0.03880
2399.24463	0.03840
2397.95886	0.03811
2396.67309	0.03793
2395.38732	0.03785
2394.10156	0.03792
2392.81579	0.03810
2391.53002	0.03834
2390.24425	0.03859
2388.95848	0.03881
2387.67271	0.03896
2386.38694	0.03905
2385.10117	0.03908
2383.81540	0.03905
2382.52964	0.03893
2381.24387	0.03875
2379.95810	0.03863
2378.67233	0.03871
2377.38656	0.03901
2376.10079	0.03935
2374.81502	0.03956
2373.52925	0.03970
2372.24349	0.03988
2370.95772	0.04018
2369.67195	0.04027
2368.38618	0.04014
2367.10041	0.04004
2365.81464	0.04012
2364.52887	0.04003
2363.24310	0.03986
2361.95733	0.03993
2360.67157	0.04034
2359.38580	0.04050
2358.10003	0.04033
2356.81426	0.03997
2355.52849	0.03959
2354.24272	0.03931
2352.95695	0.03921
2351.67118	0.03960
2350.38542	0.04032
2349.09965	0.04059
2347.81388	0.04014
2346.52811	0.03992
2345.24234	0.04020
2343.95657	0.04028
2342.67080	0.03980
2341.38503	0.03981
2340.09926	0.04050
2338.81350	0.04040
2337.52773	0.03945
2336.24196	0.03924
2334.95619	0.03969
2333.67042	0.03931
2332.38465	0.03833
2331.09888	0.03870
2329.81311	0.03910
2328.52735	0.03795
2327.24158	0.03775
2325.95581	0.03821
2324.67004	0.03755
2323.38427	0.03737
2322.09850	0.03799
2320.81273	0.03774
2319.52696	0.03794
2318.24119	0.03840
2316.95543	0.03800
2315.66966	0.03774
2314.38389	0.03759
2313.09812	0.03720
2311.81235	0.03714
2310.52658	0.03689
2309.24081	0.03655
2307.95504	0.03637
2306.66928	0.03606
2305.38351	0.03587
2304.09774	0.03567
2302.81197	0.03535
2301.52620	0.03503
2300.24043	0.03460
2298.95466	0.03420
2297.66889	0.03383
2296.38312	0.03351
2295.09736	0.03321
2293.81159	0.03286
2292.52582	0.03252
2291.24005	0.03233
2289.95428	0.03238
2288.66851	0.03253
2287.38274	0.03260
2286.09697	0.03254
2284.81121	0.03241
2283.52544	0.03228
2282.23967	0.03215
2280.95390	0.03200
2279.66813	0.03180
2278.38236	0.03150
2277.09659	0.03114
2275.81082	0.03085
2274.52505	0.03075
2273.23929	0.03079
2271.95352	0.03079
2270.66775	0.03058
2269.38198	0.03008
2268.09621	0.02938
2266.81044	0.02875
2265.52467	0.02853
2264.23890	0.02876
2262.95314	0.02921
2261.66737	0.02951
2260.38160	0.02947
2259.09583	0.02911
2257.81006	0.02860
2256.52429	0.02814
2255.23852	0.02790
2253.95275	0.02790
2252.66698	0.02792
2251.38122	0.02775
2250.09545	0.02748
2248.80968	0.02714
2247.52391	0.02643
2246.23814	0.02583
2244.95237	0.02559
2243.66660	0.02583
2242.38083	0.02634
2241.09507	0.02676
2239.80930	0.02689
2238.52353	0.02678
2237.23776	0.02657
2235.95199	0.02630
2234.66622	0.02596
2233.38045	0.02554
2232.09468	0.02508
2230.80891	0.02471
2229.52315	0.02447
2228.23738	0.02427
2226.95161	0.02400
2225.66584	0.02369
2224.38007	0.02343
2223.09430	0.02329
2221.80853	0.02316
2220.52276	0.02293
2219.23700	0.02257
2217.95123	0.02228
2216.66546	0.02232
2215.37969	0.02267
2214.09392	0.02291
2212.80815	0.02275
2211.52238	0.02235
2210.23661	0.02225
2208.95084	0.02275
2207.66508	0.02353
2206.37931	0.02382
2205.09354	0.02311
2203.80777	0.02178
2202.52200	0.02084
2201.23623	0.02088
2199.95046	0.02140
2198.66469	0.02154
2197.37893	0.02112
2196.09316	0.02065
2194.80739	0.02040
2193.52162	0.02006
2192.23585	0.01938
2190.95008	0.01866
2189.66431	0.01830
2188.37854	0.01829
2187.09277	0.01839
2185.80701	0.01859
2184.52124	0.01907
2183.23547	0.01966
2181.94970	0.01991
2180.66393	0.01967
2179.37816	0.01922
2178.09239	0.01887
2176.80662	0.01865
2175.52085	0.01853
2174.23509	0.01861
2172.94932	0.01879
2171.66355	0.01865
2170.37778	0.01773
2169.09201	0.01603
2167.80624	0.01416
2166.52047	0.01280
2165.23470	0.01231
2163.94894	0.01254
2162.66317	0.01303
2161.37740	0.01332
2160.09163	0.01332
2158.80586	0.01337
2157.52009	0.01385
2156.23432	0.01467
2154.94855	0.01550
2153.66278	0.01618
2152.37702	0.01684
2151.09125	0.01758
2149.80548	0.01825
2148.51971	0.01861
2147.23394	0.01861
2145.94817	0.01853
2144.66240	0.01866
2143.37663	0.01905
2142.09087	0.01960
2140.80510	0.02026
2139.51933	0.02093
2138.23356	0.02130
2136.94779	0.02103
2135.66202	0.02028
2134.37625	0.01981
2133.09048	0.02029
2131.80471	0.02159
2130.51895	0.02291
2129.23318	0.02359
2127.94741	0.02362
2126.66164	0.02346
2125.37587	0.02353
2124.09010	0.02392
2122.80433	0.02439
2121.51856	0.02470
2120.23280	0.02474
2118.94703	0.02457
2117.66126	0.02429
2116.37549	0.02402
2115.08972	0.02381
2113.80395	0.02363
2112.51818	0.02336
2111.23241	0.02296
2109.94664	0.02257
2108.66088	0.02233
2107.37511	0.02230
2106.08934	0.02247
2104.80357	0.02280
2103.51780	0.02315
2102.23203	0.02325
2100.94626	0.02319
2099.66049	0.02702
2098.37473	0.02884
2097.08896	0.02875
2095.80319	0.02807
2094.51742	0.02707
2093.23165	0.02593
2091.94588	0.02491
2090.66011	0.02412
2089.37434	0.02347
2088.08857	0.02289
2086.80281	0.02253
2085.51704	0.02255
2084.23127	0.02293
2082.94550	0.02350
2081.65973	0.02414
2080.37396	0.02485
2079.08819	0.02568
2077.80242	0.02655
2076.51666	0.02726
2075.23089	0.02757
2073.94512	0.02733
2072.65935	0.02661
2071.37358	0.02575
2070.08781	0.02503
2068.80204	0.02454
2067.51627	0.02414
2066.23050	0.02377
2064.94474	0.02352
2063.65897	0.02342
2062.37320	0.02336
2061.08743	0.02310
2059.80166	0.02245
2058.51589	0.02135
2057.23012	0.01985
2055.94435	0.01811
2054.65859	0.01657
2053.37282	0.01596
2052.08705	0.01696
2050.80128	0.01946
2049.51551	0.02241
2048.22974	0.02448
2046.94397	0.02503
2045.65820	0.02448
2044.37243	0.02363
2043.08667	0.02296
2041.80090	0.02250
2040.51513	0.02216
2039.22936	0.02209
2037.94359	0.02254
2036.65782	0.02348
2035.37205	0.02453
2034.08628	0.02528
2032.80052	0.02550
2031.51475	0.02516
2030.22898	0.02430
2028.94321	0.02307
2027.65744	0.02171
2026.37167	0.02049
2025.08590	0.01970
2023.80013	0.01954
2022.51436	0.01989
2021.22860	0.02029
2019.94283	0.02030
2018.65706	0.01986
2017.37129	0.01925
2016.08552	0.01883
2014.79975	0.01895
2013.51398	0.01981
2012.22821	0.02131
2010.94245	0.02292
2009.65668	0.02415
2008.37091	0.02476
2007.08514	0.02473
2005.79937	0.02398
2004.51360	0.02254
2003.22783	0.02075
2001.94206	0.01918
2000.65629	0.01818
1999.37053	0.01764
1998.08476	0.01733
1996.79899	0.01718
1995.51322	0.01724
1994.22745	0.01736
1992.94168	0.01717
1991.65591	0.01646
1990.37014	0.01541
1989.08438	0.01455
1987.79861	0.01440
1986.51284	0.01509
1985.22707	0.01639
1983.94130	0.01808
1982.65553	0.02024
1981.36976	0.02304
1980.08399	0.02627
1978.79822	0.02911
1977.51246	0.03064
1976.22669	0.03052
1974.94092	0.02926
1973.65515	0.02777
1972.36938	0.02665
1971.08361	0.02592
1969.79784	0.02521
1968.51207	0.02428
1967.22631	0.02321
1965.94054	0.02245
1964.65477	0.02239
1963.36900	0.02306
1962.08323	0.02405
1960.79746	0.02476
1959.51169	0.02467
1958.22592	0.02359
1956.94015	0.02189
1955.65439	0.02038
1954.36862	0.01974
1953.08285	0.02001
1951.79708	0.02069
1950.51131	0.02128
1949.22554	0.02169
1947.93977	0.02209
1946.65400	0.02244
1945.36823	0.02255
1944.08247	0.02240
1942.79670	0.02230
1941.51093	0.02250
1940.22516	0.02289
1938.93939	0.02325
1937.65362	0.02358
1936.36785	0.02398
1935.08208	0.02443
1933.79632	0.02471
1932.51055	0.02472
1931.22478	0.02449
1929.93901	0.02410
1928.65324	0.02366
1927.36747	0.02336
1926.08170	0.02338
1924.79593	0.02361
1923.51016	0.02380
1922.22440	0.02388
1920.93863	0.02405
1919.65286	0.02445
1918.36709	0.02488
1917.08132	0.02496
1915.79555	0.02460
1914.50978	0.02399
1913.22401	0.02352
1911.93825	0.02341
1910.65248	0.02366
1909.36671	0.02408
1908.08094	0.02443
1906.79517	0.02466
1905.50940	0.02480
1904.22363	0.02487
1902.93786	0.02485
1901.65209	0.02480
1900.36633	0.02477
1899.08056	0.02473
1897.79479	0.02464
1896.50902	0.02453
1895.22325	0.02447
1893.93748	0.02451
1892.65171	0.02461
1891.36594	0.02471
1890.08018	0.02472
1888.79441	0.02460
1887.50864	0.02436
1886.22287	0.02412
1884.93710	0.02398
1883.65133	0.02399
1882.36556	0.02407
1881.07979	0.02410
1879.79402	0.02399
1878.50826	0.02376
1877.22249	0.02351
1875.93672	0.02331
1874.65095	0.02320
1873.36518	0.02317
1872.07941	0.02320
1870.79364	0.02321
1869.50787	0.02311
1868.22211	0.02298
1866.93634	0.02298
1865.65057	0.02319
1864.36480	0.02352
1863.07903	0.02382
1861.79326	0.02406
1860.50749	0.02423
1859.22172	0.02431
1857.93595	0.02422
1856.65019	0.02400
1855.36442	0.02372
1854.07865	0.02341
1852.79288	0.02308
1851.50711	0.02278
1850.22134	0.02262
1848.93557	0.02267
1847.64980	0.02285
1846.36404	0.02305
1845.07827	0.02315
1843.79250	0.02303
1842.50673	0.02267
1841.22096	0.02226
1839.93519	0.02202
1838.64942	0.02205
1837.36365	0.02227
1836.07788	0.02249
1834.79212	0.02259
1833.50635	0.02256
1832.22058	0.02251
1830.93481	0.02254
1829.64904	0.02269
1828.36327	0.02293
1827.07750	0.02325
1825.79173	0.02367
1824.50597	0.02418
1823.22020	0.02480
1821.93443	0.02545
1820.64866	0.02593
1819.36289	0.02600
1818.07712	0.02549
1816.79135	0.02446
1815.50558	0.02320
1814.21981	0.02204
1812.93405	0.02125
1811.64828	0.02086
1810.36251	0.02077
1809.07674	0.02086
1807.79097	0.02100
1806.50520	0.02112
1805.21943	0.02120
1803.93366	0.02128
1802.64790	0.02141
1801.36213	0.02156
1800.07636	0.02170
1798.79059	0.02176
1797.50482	0.02176
1796.21905	0.02174
1794.93328	0.02175
1793.64751	0.02183
1792.36174	0.02193
1791.07598	0.02203
1789.79021	0.02213
1788.50444	0.02224
1787.21867	0.02235
1785.93290	0.02242
1784.64713	0.02242
1783.36136	0.02237
1782.07559	0.02235
1780.78983	0.02237
1779.50406	0.02238
1778.21829	0.02229
1776.93252	0.02205
1775.64675	0.02174
1774.36098	0.02148
1773.07521	0.02132
1771.78944	0.02122
1770.50367	0.02114
1769.21791	0.02105
1767.93214	0.02096
1766.64637	0.02087
1765.36060	0.02085
1764.07483	0.02094
1762.78906	0.02108
1761.50329	0.02117
1760.21752	0.02120
1758.93176	0.02124
1757.64599	0.02135
1756.36022	0.02147
1755.07445	0.02155
1753.78868	0.02162
1752.50291	0.02180
1751.21714	0.02209
1749.93137	0.02241
1748.64560	0.02269
1747.35984	0.02294
1746.07407	0.02320
1744.78830	0.02350
1743.50253	0.02385
1742.21676	0.02421
1740.93099	0.02460
1739.64522	0.02496
1738.35945	0.02525
1737.07369	0.02550
1735.78792	0.02580
1734.50215	0.02614
1733.21638	0.02641
1731.93061	0.02660
1730.64484	0.02676
1729.35907	0.02693
1728.07330	0.02712
1726.78753	0.02737
1725.50177	0.02768
1724.21600	0.02802
1722.93023	0.02834
1721.64446	0.02865
1720.35869	0.02900
1719.07292	0.02943
1717.78715	0.02989
1716.50138	0.03034
1715.21561	0.03082
1713.92985	0.03142
1712.64408	0.03216
1711.35831	0.03302
1710.07254	0.03401
1708.78677	0.03513
1707.50100	0.03637
1706.21523	0.03771
1704.92946	0.03910
1703.64370	0.04063
1702.35793	0.04245
1701.07216	0.04455
1699.78639	0.04667
1698.50062	0.04874
1697.21485	0.05085
1695.92908	0.05303
1694.64331	0.05519
1693.35754	0.05732
1692.07178	0.05947
1690.78601	0.06161
1689.50024	0.06368
1688.21447	0.06571
1686.92870	0.06785
1685.64293	0.07018
1684.35716	0.07260
1683.07139	0.07499
1681.78563	0.07740
1680.49986	0.07992
1679.21409	0.08256
1677.92832	0.08531
1676.64255	0.08820
1675.35678	0.09114
1674.07101	0.09404
1672.78524	0.09690
1671.49947	0.09976
1670.21371	0.10263
1668.92794	0.10548
1667.64217	0.10827
1666.35640	0.11104
1665.07063	0.11385
1663.78486	0.11668
1662.49909	0.11948
1661.21332	0.12216
1659.92756	0.12463
1658.64179	0.12685
1657.35602	0.12884
1656.07025	0.13076
1654.78448	0.13280
1653.49871	0.13488
1652.21294	0.13673
1650.92717	0.13822
1649.64140	0.13956
1648.35564	0.14091
1647.06987	0.14227
1645.78410	0.14350
1644.49833	0.14450
1643.21256	0.14534
1641.92679	0.14611
1640.64102	0.14684
1639.35525	0.14753
1638.06949	0.14821
1636.78372	0.14886
1635.49795	0.14940
1634.21218	0.14975
1632.92641	0.14992
1631.64064	0.14992
1630.35487	0.14968
1629.06910	0.14910
1627.78333	0.14817
1626.49757	0.14696
1625.21180	0.14553
1623.92603	0.14390
1622.64026	0.14198
1621.35449	0.13975
1620.06872	0.13729
1618.78295	0.13473
1617.49718	0.13209
1616.21142	0.12934
1614.92565	0.12647
1613.63988	0.12356
1612.35411	0.12067
1611.06834	0.11782
1609.78257	0.11501
1608.49680	0.11225
1607.21103	0.10954
1605.92526	0.10687
1604.63950	0.10427
1603.35373	0.10179
1602.06796	0.09944
1600.78219	0.09727
1599.49642	0.09527
1598.21065	0.09342
1596.92488	0.09169
1595.63911	0.09007
1594.35335	0.08858
1593.06758	0.08724
1591.78181	0.08609
1590.49604	0.08511
1589.21027	0.08425
1587.92450	0.08349
1586.63873	0.08283
1585.35296	0.08233
1584.06719	0.08199
1582.78143	0.08180
1581.49566	0.08174
1580.20989	0.08179
1578.92412	0.08201
1577.63835	0.08249
1576.35258	0.08315
1575.06681	0.08389
1573.78104	0.08470
1572.49528	0.08568
1571.20951	0.08687
1569.92374	0.08818
1568.63797	0.08952
1567.35220	0.09091
1566.06643	0.09240
1564.78066	0.09396
1563.49489	0.09554
1562.20912	0.09715
1560.92336	0.09888
1559.63759	0.10070
1558.35182	0.10248
1557.06605	0.10417
1555.78028	0.10583
1554.49451	0.10749
1553.20874	0.10909
1551.92297	0.11066
1550.63721	0.11219
1549.35144	0.11363
1548.06567	0.11494
1546.77990	0.11614
1545.49413	0.11727
1544.20836	0.11833
1542.92259	0.11932
1541.63682	0.12026
1540.35105	0.12110
1539.06529	0.12176
1537.77952	0.12222
1536.49375	0.12259
1535.20798	0.12297
1533.92221	0.12333
1532.63644	0.12361
1531.35067	0.12380
1530.06490	0.12393
1528.77914	0.12403
1527.49337	0.12411
1526.20760	0.12414
1524.92183	0.12410
1523.63606	0.12404
1522.35029	0.12395
1521.06452	0.12375
1519.77875	0.12341
1518.49298	0.12302
1517.20722	0.12262
1515.92145	0.12217
1514.63568	0.12156
1513.34991	0.12074
1512.06414	0.11965
1510.77837	0.11833
1509.49260	0.11689
1508.20683	0.11542
1506.92107	0.11391
1505.63530	0.11224
1504.34953	0.11040
1503.06376	0.10848
1501.77799	0.10655
1500.49222	0.10460
1499.20645	0.10262
1497.92068	0.10059
1496.63491	0.09850
1495.34915	0.09634
1494.06338	0.09414
1492.77761	0.09199
1491.49184	0.08991
1490.20607	0.08789
1488.92030	0.08591
1487.63453	0.08401
1486.34876	0.08224
1485.06299	0.08063
1483.77723	0.07925
1482.49146	0.07811
1481.20569	0.07721
1479.91992	0.07655
1478.63415	0.07614
1477.34838	0.07596
1476.06261	0.07599
1474.77684	0.07623
1473.49108	0.07666
1472.20531	0.07717
1470.91954	0.07770
1469.63377	0.07827
1468.34800	0.07894
1467.06223	0.07972
1465.77646	0.08056
1464.49069	0.08141
1463.20492	0.08225
1461.91916	0.08311
1460.63339	0.08406
1459.34762	0.08514
1458.06185	0.08630
1456.77608	0.08741
1455.49031	0.08837
1454.20454	0.08917
1452.91877	0.08986
1451.63301	0.09039
1450.34724	0.09075
1449.06147	0.09095
1447.77570	0.09100
1446.48993	0.09090
1445.20416	0.09066
1443.91839	0.09029
1442.63262	0.08982
1441.34685	0.08923
1440.06109	0.08859
1438.77532	0.08792
1437.48955	0.08719
1436.20378	0.08634
1434.91801	0.08536
1433.63224	0.08433
1432.34647	0.08338
1431.06070	0.08253
1429.77494	0.08178
1428.48917	0.08113
1427.20340	0.08057
1425.91763	0.08012
1424.63186	0.07976
1423.34609	0.07947
1422.06032	0.07928
1420.77455	0.07919
1419.48878	0.07916
1418.20302	0.07912
1416.91725	0.07908
1415.63148	0.07909
1414.34571	0.07918
1413.05994	0.07926
1411.77417	0.07930
1410.48840	0.07929
1409.20263	0.07927
1407.91687	0.07930
1406.63110	0.07938
1405.34533	0.07947
1404.05956	0.07955
1402.77379	0.07960
1401.48802	0.07964
1400.20225	0.07967
1398.91648	0.07965
1397.63071	0.07959
1396.34495	0.07952
1395.05918	0.07943
1393.77341	0.07931
1392.48764	0.07918
1391.20187	0.07909
1389.91610	0.07907
1388.63033	0.07910
1387.34456	0.07911
1386.05880	0.07903
1384.77303	0.07884
1383.48726	0.07859
1382.20149	0.07832
1380.91572	0.07807
1379.62995	0.07782
1378.34418	0.07753
1377.05841	0.07717
1375.77264	0.07672
1374.48688	0.07623
1373.20111	0.07572
1371.91534	0.07519
1370.62957	0.07465
1369.34380	0.07408
1368.05803	0.07346
1366.77226	0.07280
1365.48649	0.07214
1364.20073	0.07148
1362.91496	0.07083
1361.62919	0.07019
1360.34342	0.06959
1359.05765	0.06909
1357.77188	0.06871
1356.48611	0.06844
1355.20034	0.06826
1353.91457	0.06816
1352.62881	0.06812
1351.34304	0.06813
1350.05727	0.06819
1348.77150	0.06833
1347.48573	0.06857
1346.19996	0.06891
1344.91419	0.06928
1343.62842	0.06966
1342.34266	0.07002
1341.05689	0.07036
1339.77112	0.07065
1338.48535	0.07086
1337.19958	0.07097
1335.91381	0.07100
1334.62804	0.07097
1333.34227	0.07088
1332.05650	0.07070
1330.77074	0.07042
1329.48497	0.07007
1328.19920	0.06969
1326.91343	0.06933
1325.62766	0.06898
1324.34189	0.06866
1323.05612	0.06839
1321.77035	0.06816
1320.48459	0.06798
1319.19882	0.06784
1317.91305	0.06772
1316.62728	0.06763
1315.34151	0.06755
1314.05574	0.06746
1312.76997	0.06734
1311.48420	0.06717
1310.19843	0.06697
1308.91267	0.06678
1307.62690	0.06663
1306.34113	0.06650
1305.05536	0.06637
1303.76959	0.06621
1302.48382	0.06602
1301.19805	0.06585
1299.91228	0.06573
1298.62652	0.06565
1297.34075	0.06563
1296.05498	0.06565
1294.76921	0.06570
1293.48344	0.06576
1292.19767	0.06583
1290.91190	0.06596
1289.62613	0.06616
1288.34036	0.06645
1287.05460	0.06681
1285.76883	0.06718
1284.48306	0.06752
1283.19729	0.06779
1281.91152	0.06803
1280.62575	0.06825
1279.33998	0.06847
1278.05421	0.06869
1276.76845	0.06890
1275.48268	0.06907
1274.19691	0.06922
1272.91114	0.06938
1271.62537	0.06958
1270.33960	0.06981
1269.05383	0.07007
1267.76806	0.07036
1266.48229	0.07070
1265.19653	0.07110
1263.91076	0.07156
1262.62499	0.07207
1261.33922	0.07259
1260.05345	0.07312
1258.76768	0.07364
1257.48191	0.07411
1256.19614	0.07452
1254.91037	0.07491
1253.62461	0.07534
1252.33884	0.07586
1251.05307	0.07645
1249.76730	0.07710
1248.48153	0.07780
1247.19576	0.07855
1245.90999	0.07934
1244.62422	0.08015
1243.33846	0.08094
1242.05269	0.08168
1240.76692	0.08234
1239.48115	0.08291
1238.19538	0.08343
1236.90961	0.08391
1235.62384	0.08433
1234.33807	0.08466
1233.05230	0.08489
1231.76654	0.08499
1230.48077	0.08497
1229.19500	0.08482
1227.90923	0.08457
1226.62346	0.08423
1225.33769	0.08380
1224.05192	0.08328
1222.76615	0.08267
1221.48039	0.08201
1220.19462	0.08131
1218.90885	0.08062
1217.62308	0.07997
1216.33731	0.07940
1215.05154	0.07893
1213.76577	0.07856
1212.48000	0.07828
1211.19423	0.07810
1209.90847	0.07800
1208.62270	0.07798
1207.33693	0.07802
1206.05116	0.07810
1204.76539	0.07816
1203.47962	0.07818
1202.19385	0.07809
1200.90808	0.07762
1199.62232	0.07666
1198.33655	0.07621
1197.05078	0.07574
1195.76501	0.07520
1194.47924	0.07461
1193.19347	0.07396
1191.90770	0.07328
1190.62193	0.07262
1189.33616	0.07200
1188.05040	0.07145
1186.76463	0.07101
1185.47886	0.07067
1184.19309	0.07039
1182.90732	0.07014
1181.62155	0.06994
1180.33578	0.06981
1179.05001	0.06974
1177.76425	0.06968
1176.47848	0.06960
1175.19271	0.06951
1173.90694	0.06943
1172.62117	0.06940
1171.33540	0.06940
1170.04963	0.06944
1168.76386	0.06952
1167.47809	0.06965
1166.19233	0.06977
1164.90656	0.06983
1163.62079	0.06981
1162.33502	0.06974
1161.04925	0.06970
1159.76348	0.06971
1158.47771	0.06971
1157.19194	0.06966
1155.90618	0.06951
1154.62041	0.06928
1153.33464	0.06898
1152.04887	0.06862
1150.76310	0.06820
1149.47733	0.06775
1148.19156	0.06734
1146.90579	0.06701
1145.62002	0.06669
1144.33426	0.06632
1143.04849	0.06587
1141.76272	0.06542
1140.47695	0.06504
1139.19118	0.06476
1137.90541	0.06456
1136.61964	0.06441
1135.33387	0.06428
1134.04811	0.06418
1132.76234	0.06409
1131.47657	0.06401
1130.19080	0.06397
1128.90503	0.06401
1127.61926	0.06417
1126.33349	0.06443
1125.04772	0.06469
1123.76195	0.06487
1122.47619	0.06499
1121.19042	0.06509
1119.90465	0.06522
1118.61888	0.06538
1117.33311	0.06560
1116.04734	0.06590
1114.76157	0.06625
1113.47580	0.06659
1112.19004	0.06685
1110.90427	0.06704
1109.61850	0.06725
1108.33273	0.06755
1107.04696	0.06797
1105.76119	0.06847
1104.47542	0.06898
1103.18965	0.06942
1101.90388	0.06978
1100.61812	0.07010
1099.33235	0.07042
1098.04658	0.07081
1096.76081	0.07123
1095.47504	0.07167
1094.18927	0.07206
1092.90350	0.07239
1091.61773	0.07271
1090.33197	0.07309
1089.04620	0.07358
1087.76043	0.07414
1086.47466	0.07472
1085.18889	0.07531
1083.90312	0.07595
1082.61735	0.07658
1081.33158	0.07714
1080.04581	0.07756
1078.76005	0.07785
1077.47428	0.07810
1076.18851	0.07833
1074.90274	0.07854
1073.61697	0.07865
1072.33120	0.07866
1071.04543	0.07859
1069.75966	0.07848
1068.47390	0.07834
1067.18813	0.07823
1065.90236	0.07821
1064.61659	0.07829
1063.33082	0.07844
1062.04505	0.07858
1060.75928	0.07868
1059.47351	0.07872
1058.18774	0.07872
1056.90198	0.07871
1055.61621	0.07871
1054.33044	0.07870
1053.04467	0.07860
1051.75890	0.07836
1050.47313	0.07805
1049.18736	0.07776
1047.90159	0.07758
1046.61583	0.07748
1045.33006	0.07743
1044.04429	0.07741
1042.75852	0.07741
1041.47275	0.07744
1040.18698	0.07751
1038.90121	0.07763
1037.61544	0.07780
1036.32967	0.07804
1035.04391	0.07834
1033.75814	0.07868
1032.47237	0.07896
1031.18660	0.07911
1029.90083	0.07905
1028.61506	0.07878
1027.32929	0.07832
1026.04352	0.07769
1024.75775	0.07692
1023.47199	0.07609
1022.18622	0.07527
1020.90045	0.07450
1019.61468	0.07376
1018.32891	0.07301
1017.04314	0.07225
1015.75737	0.07150
1014.47160	0.07076
1013.18584	0.06999
1011.90007	0.06920
1010.61430	0.06839
1009.32853	0.06759
1008.04276	0.06682
1006.75699	0.06608
1005.47122	0.06534
1004.18545	0.06461
1002.89968	0.06390
1001.61392	0.06324
1000.32815	0.06262
999.04238	0.06202
997.75661	0.06142
996.47084	0.06084
995.18507	0.06027
993.89930	0.05969
992.61353	0.05916
991.32777	0.05871
990.04200	0.05839
988.75623	0.05814
987.47046	0.05791
986.18469	0.05765
984.89892	0.05739
983.61315	0.05712
982.32738	0.05687
981.04161	0.05667
979.75585	0.05654
978.47008	0.05646
977.18431	0.05636
975.89854	0.05622
974.61277	0.05605
973.32700	0.05589
972.04123	0.05577
970.75546	0.05571
969.46970	0.05566
968.18393	0.05560
966.89816	0.05550
965.61239	0.05534
964.32662	0.05511
963.04085	0.05487
961.75508	0.05466
960.46931	0.05451
959.18354	0.05438
957.89778	0.05416
956.61201	0.05382
955.32624	0.05339
954.04047	0.05295
952.75470	0.05254
951.46893	0.05218
950.18316	0.05183
948.89739	0.05151
947.61163	0.05120
946.32586	0.05093
945.04009	0.05067
943.75432	0.05041
942.46855	0.05018
941.18278	0.05005
939.89701	0.05004
938.61124	0.05004
937.32547	0.04996
936.03971	0.04978
934.75394	0.04954
933.46817	0.04931
932.18240	0.04909
930.89663	0.04889
929.61086	0.04866
928.32509	0.04836
927.03932	0.04803
925.75356	0.04778
924.46779	0.04768
923.18202	0.04770
921.89625	0.04767
920.61048	0.04754
919.32471	0.04733
918.03894	0.04712
916.75317	0.04689
915.46740	0.04659
914.18164	0.04618
912.89587	0.04576
911.61010	0.04547
910.32433	0.04531
909.03856	0.04517
907.75279	0.04498
906.46702	0.04476
905.18125	0.04455
903.89549	0.04437
902.60972	0.04420
901.32395	0.04404
900.03818	0.04393
898.75241	0.04385
897.46664	0.04371
896.18087	0.04347
894.89510	0.04318
893.60933	0.04293
892.32357	0.04277
891.03780	0.04267
889.75203	0.04259
888.46626	0.04247
887.18049	0.04231
885.89472	0.04214
884.60895	0.04203
883.32318	0.04205
882.03742	0.04218
880.75165	0.04236
879.46588	0.04251
878.18011	0.04253
876.89434	0.04240
875.60857	0.04219
874.32280	0.04201
873.03703	0.04194
871.75126	0.04195
870.46550	0.04193
869.17973	0.04177
867.89396	0.04147
866.60819	0.04113
865.32242	0.04089
864.03665	0.04079
862.75088	0.04074
861.46511	0.04065
860.17935	0.04053
858.89358	0.04044
857.60781	0.04042
856.32204	0.04043
855.03627	0.04044
853.75050	0.04044
852.46473	0.04043
851.17896	0.04035
849.89319	0.04019
848.60743	0.03998
847.32166	0.03975
846.03589	0.03952
844.75012	0.03929
843.46435	0.03907
842.17858	0.03889
840.89281	0.03877
839.60704	0.03869
838.32128	0.03863
837.03551	0.03858
835.74974	0.03851
834.46397	0.03844
833.17820	0.03839
831.89243	0.03836
830.60666	0.03831
829.32089	0.03822
828.03512	0.03809
826.74936	0.03797
825.46359	0.03795
824.17782	0.03806
822.89205	0.03824
821.60628	0.03840
820.32051	0.03848
819.03474	0.03851
817.74897	0.03852
816.46321	0.03856
815.17744	0.03863
813.89167	0.03870
812.60590	0.03876
811.32013	0.03882
810.03436	0.03887
808.74859	0.03888
807.46282	0.03886
806.17705	0.03885
804.89129	0.03896
803.60552	0.03919
802.31975	0.03942
801.03398	0.03954
799.74821	0.03952
798.46244	0.03945
797.17667	0.03940
795.89090	0.03936
794.60513	0.03932
793.31937	0.03933
792.03360	0.03943
790.74783	0.03958
789.46206	0.03968
788.17629	0.03972
786.89052	0.03975
785.60475	0.03982
784.31898	0.03993
783.03322	0.04004
781.74745	0.04014
780.46168	0.04026
779.17591	0.04040
777.89014	0.04050
776.60437	0.04057
775.31860	0.04062
774.03283	0.04064
772.74706	0.04064
771.46130	0.04062
770.17553	0.04064
768.88976	0.04075
767.60399	0.04092
766.31822	0.04110
765.03245	0.04128
763.74668	0.04147
762.46091	0.04165
761.17515	0.04178
759.88938	0.04183
758.60361	0.04184
757.31784	0.04188
756.03207	0.04198
754.74630	0.04209
753.46053	0.04220
752.17476	0.04233
750.88899	0.04252
749.60323	0.04277
748.31746	0.04302
747.03169	0.04315
745.74592	0.04313
744.46015	0.04303
743.17438	0.04301
741.88861	0.04315
740.60284	0.04339
739.31708	0.04359
738.03131	0.04367
736.74554	0.04368
735.45977	0.04372
734.17400	0.04382
732.88823	0.04396
731.60246	0.04413
730.31669	0.04436
729.03092	0.04469
727.74516	0.04507
726.45939	0.04542
725.17362	0.04567
723.88785	0.04571
722.60208	0.04603
721.31631	0.04650
720.03054	0.04697
718.74477	0.04736
717.45901	0.04759
716.17324	0.04763
714.88747	0.04755
713.60170	0.04744
712.31593	0.04737
711.03016	0.04739
709.74439	0.04748
708.45862	0.04762
707.17285	0.04780
705.88709	0.04800
704.60132	0.04819
703.31555	0.04839
702.02978	0.04859
700.74401	0.04883
699.45824	0.04911
698.17247	0.04938
696.88670	0.04959
695.60094	0.04972
694.31517	0.04980
693.02940	0.04983
691.74363	0.04981
690.45786	0.04976
689.17209	0.04970
687.88632	0.04966
686.60055	0.04963
685.31478	0.04963
684.02902	0.04969
682.74325	0.04981
681.45748	0.04998
680.17171	0.05016
678.88594	0.05030
677.60017	0.05042
676.31440	0.05052
675.02863	0.05064
673.74287	0.05079
672.45710	0.05103
671.17133	0.05128
669.88556	0.05120
668.59979	0.05061
667.31402	0.05067
666.02825	0.05160
664.74248	0.05197
663.45671	0.05195
662.17095	0.05192
660.88518	0.05192
659.59941	0.05191
658.31364	0.05196
657.02787	0.05212
655.74210	0.05237
654.45633	0.05263
653.17056	0.05280
651.88480	0.05287
650.59903	0.05290
649.31326	0.05292
648.02749	0.05296
646.74172	0.05299
645.45595	0.05298
644.17018	0.05293
642.88441	0.05283
641.59864	0.05271
640.31288	0.05262
639.02711	0.05257
637.74134	0.05256
636.45557	0.05258
635.16980	0.05262
633.88403	0.05261
632.59826	0.05238
631.31249	0.05249
630.02673	0.05535
628.74096	0.05962
627.45519	0.05593
626.16942	0.06067
624.88365	0.07088
623.59788	0.08003
622.31211	0.08571
621.02634	0.08722
619.74057	0.08451
618.45481	0.07832
617.16904	0.07020
615.88327	0.06215
614.59750	0.05631
613.31173	0.05426
612.02596	0.05618
610.74019	0.06056
609.45442	0.06519
608.16866	0.06884
606.88289	0.07152
605.59712	0.07346
604.31135	0.07448
603.02558	0.07428
601.73981	0.07294
600.45404	0.07085
599.16827	0.06845
597.88250	0.06614
596.59674	0.06424
595.31097	0.06291
594.02520	0.06214
592.73943	0.06174
591.45366	0.06154
590.16789	0.06143
588.88212	0.06142
587.59635	0.06153
586.31059	0.06175
585.02482	0.06203
583.73905	0.06230
582.45328	0.06251
581.16751	0.06264
579.88174	0.06270
578.59597	0.06273
577.31020	0.06279
576.02443	0.06298
574.73867	0.06337
573.45290	0.06398
572.16713	0.06476
570.88136	0.06566
569.59559	0.06666
568.30982	0.06766
567.02405	0.06843
565.73828	0.06871
564.45251	0.06845
563.16675	0.06787
561.88098	0.06728
560.59521	0.06683
559.30944	0.06647
558.02367	0.06605
556.73790	0.06554
555.45213	0.06501
554.16636	0.06456
552.88060	0.06422
551.59483	0.06397
550.30906	0.06375
549.02329	0.06356
547.73752	0.06339
546.45175	0.06323
545.16598	0.06305
543.88021	0.06284
542.59444	0.06262
541.30868	0.06236
540.02291	0.06207
538.73714	0.06179
537.45137	0.06160
536.16560	0.06154
534.87983	0.06157
533.59406	0.06165
532.30829	0.06174
531.02253	0.06183
529.73676	0.06192
528.45099	0.06201
527.16522	0.06208
525.87945	0.06208
524.59368	0.06198
523.30791	0.06181
522.02214	0.06164
520.73637	0.06153
519.45061	0.06146
518.16484	0.06132
516.87907	0.06108
515.59330	0.06078
514.30753	0.06050
513.02176	0.06028
511.73599	0.06009
510.45022	0.05991
509.16446	0.05974
507.87869	0.05959
506.59292	0.05940
505.30715	0.05913
504.02138	0.05878
502.73561	0.05840
501.44984	0.05800
500.16407	0.05760
498.87830	0.05722
497.59254	0.05688
496.30677	0.05663
495.02100	0.05646
493.73523	0.05629
492.44946	0.05609
491.16369	0.05586
489.87792	0.05559
488.59215	0.05530
487.30639	0.05502
486.02062	0.05476
484.73485	0.05450
483.44908	0.05420
482.16331	0.05382
480.87754	0.05342
479.59177	0.05306
478.30600	0.05277
477.02023	0.05257
475.73447	0.05244
474.44870	0.05234
473.16293	0.05223
471.87716	0.05212
470.59139	0.05205
469.30562	0.05201
468.01985	0.05194
466.73408	0.05172
465.44832	0.05133
464.16255	0.05085
462.87678	0.05041
461.59101	0.05010
460.30524	0.04992
459.01947	0.04979
457.73370	0.04964
456.44793	0.04940
455.16216	0.04910
453.87640	0.04876
452.59063	0.04838
451.30486	0.04797
450.01909	0.04755
448.73332	0.04720
447.44755	0.04695
446.16178	0.04677
444.87601	0.04660
443.59025	0.04640
442.30448	0.04616
441.01871	0.04593
439.73294	0.04577
438.44717	0.04570
437.16140	0.04570
435.87563	0.04571
434.58986	0.04566
433.30409	0.04554
432.01833	0.04533
430.73256	0.04505
429.44679	0.04477
428.16102	0.04454
426.87525	0.04435
425.58948	0.04419
424.30371	0.04401
423.01794	0.04382
421.73218	0.04366
420.44641	0.04354
419.16064	0.04343
417.87487	0.04329
416.58910	0.04309
415.30333	0.04286
414.01756	0.04263
412.73179	0.04241
411.44602	0.04220
410.16026	0.04201
408.87449	0.04185
407.58872	0.04174
406.30295	0.04170
405.01718	0.04168
403.73141	0.04162
402.44564	0.04149
401.15987	0.04132
399.87411	0.04112
