3997.45528	0.01633
3996.16951	0.01582
3994.88374	0.01586
3993.59798	0.01645
3992.31221	0.01711
3991.02644	0.01747
3989.74067	0.01756
3988.45490	0.01754
3987.16913	0.01754
3985.88336	0.01762
3984.59759	0.01777
3983.31183	0.01788
3982.02606	0.01782
3980.74029	0.01758
3979.45452	0.01730
3978.16875	0.01713
3976.88298	0.01711
3975.59721	0.01720
3974.31144	0.01731
3973.02567	0.01736
3971.73991	0.01742
3970.45414	0.01758
3969.16837	0.01778
3967.88260	0.01782
3966.59683	0.01754
3965.31106	0.01701
3964.02529	0.01635
3962.73952	0.01566
3961.45376	0.01505
3960.16799	0.01462
3958.88222	0.01440
3957.59645	0.01441
3956.31068	0.01459
3955.02491	0.01487
3953.73914	0.01518
3952.45337	0.01546
3951.16760	0.01569
3949.88184	0.01583
3948.59607	0.01593
3947.31030	0.01611
3946.02453	0.01646
3944.73876	0.01695
3943.45299	0.01754
3942.16722	0.01805
3940.88145	0.01824
3939.59569	0.01796
3938.30992	0.01746
3937.02415	0.01708
3935.73838	0.01690
3934.45261	0.01674
3933.16684	0.01650
3931.88107	0.01630
3930.59530	0.01630
3929.30953	0.01656
3928.02377	0.01701
3926.73800	0.01751
3925.45223	0.01788
3924.16646	0.01807
3922.88069	0.01806
3921.59492	0.01787
3920.30915	0.01752
3919.02338	0.01703
3917.73762	0.01646
3916.45185	0.01595
3915.16608	0.01568
3913.88031	0.01580
3912.59454	0.01628
3911.30877	0.01689
3910.02300	0.01726
3908.73723	0.01725
3907.45146	0.01705
3906.16570	0.01705
3904.87993	0.01747
3903.59416	0.01812
3902.30839	0.01848
3901.02262	0.01820
3899.73685	0.01751
3898.45108	0.01698
3897.16531	0.01692
3895.87955	0.01712
3894.59378	0.01720
3893.30801	0.01699
3892.02224	0.01664
3890.73647	0.01648
3889.45070	0.01655
3888.16493	0.01660
3886.87916	0.01647
3885.59339	0.01627
3884.30763	0.01600
3883.02186	0.01560
3881.73609	0.01524
3880.45032	0.01528
3879.16455	0.01579
3877.87878	0.01639
3876.59301	0.01677
3875.30724	0.01702
3874.02148	0.01739
3872.73571	0.01777
3871.44994	0.01791
3870.16417	0.01779
3868.87840	0.01761
3867.59263	0.01732
3866.30686	0.01688
3865.02109	0.01652
3863.73532	0.01644
3862.44956	0.01654
3861.16379	0.01670
3859.87802	0.01688
3858.59225	0.01705
3857.30648	0.01709
3856.02071	0.01683
3854.73494	0.01638
3853.44917	0.01607
3852.16341	0.01613
3850.87764	0.01642
3849.59187	0.01678
3848.30610	0.01712
3847.02033	0.01735
3845.73456	0.01740
3844.44879	0.01729
3843.16302	0.01710
3841.87725	0.01691
3840.59149	0.01670
3839.30572	0.01654
3838.01995	0.01662
3836.73418	0.01702
3835.44841	0.01750
3834.16264	0.01767
3832.87687	0.01747
3831.59110	0.01706
3830.30534	0.01664
3829.01957	0.01638
3827.73380	0.01636
3826.44803	0.01662
3825.16226	0.01694
3823.87649	0.01691
3822.59072	0.01642
3821.30495	0.01584
3820.01918	0.01556
3818.73342	0.01550
3817.44765	0.01542
3816.16188	0.01545
3814.87611	0.01569
3813.59034	0.01586
3812.30457	0.01577
3811.01880	0.01561
3809.73303	0.01549
3808.44726	0.01532
3807.16150	0.01529
3805.87573	0.01572
3804.58996	0.01648
3803.30419	0.01713
3802.01842	0.01762
3800.73265	0.01808
3799.44688	0.01827
3798.16111	0.01786
3796.87535	0.01715
3795.58958	0.01675
3794.30381	0.01677
3793.01804	0.01684
3791.73227	0.01663
3790.44650	0.01618
3789.16073	0.01576
3787.87496	0.01566
3786.58919	0.01594
3785.30343	0.01640
3784.01766	0.01670
3782.73189	0.01662
3781.44612	0.01622
3780.16035	0.01578
3778.87458	0.01560
3777.58881	0.01569
3776.30304	0.01588
3775.01728	0.01595
3773.73151	0.01581
3772.44574	0.01546
3771.15997	0.01507
3769.87420	0.01490
3768.58843	0.01503
3767.30266	0.01534
3766.01689	0.01568
3764.73112	0.01595
3763.44536	0.01609
3762.15959	0.01603
3760.87382	0.01587
3759.58805	0.01564
3758.30228	0.01534
3757.01651	0.01504
3755.73074	0.01495
3754.44497	0.01518
3753.15921	0.01566
3751.87344	0.01620
3750.58767	0.01653
3749.30190	0.01658
3748.01613	0.01651
3746.73036	0.01616
3745.44459	0.01548
3744.15882	0.01487
3742.87305	0.01453
3741.58729	0.01431
3740.30152	0.01435
3739.01575	0.01482
3737.72998	0.01553
3736.44421	0.01613
3735.15844	0.01644
3733.87267	0.01641
3732.58690	0.01619
3731.30114	0.01608
3730.01537	0.01602
3728.72960	0.01574
3727.44383	0.01518
3726.15806	0.01471
3724.87229	0.01464
3723.58652	0.01491
3722.30075	0.01524
3721.01498	0.01531
3719.72922	0.01501
3718.44345	0.01454
3717.15768	0.01426
3715.87191	0.01430
3714.58614	0.01457
3713.30037	0.01497
3712.01460	0.01548
3710.72883	0.01601
3709.44307	0.01630
3708.15730	0.01614
3706.87153	0.01559
3705.58576	0.01490
3704.29999	0.01437
3703.01422	0.01418
3701.72845	0.01439
3700.44268	0.01483
3699.15691	0.01517
3697.87115	0.01513
3696.58538	0.01477
3695.29961	0.01434
3694.01384	0.01409
3692.72807	0.01412
3691.44230	0.01429
3690.15653	0.01440
3688.87076	0.01442
3687.58500	0.01445
3686.29923	0.01440
3685.01346	0.01424
3683.72769	0.01425
3682.44192	0.01467
3681.15615	0.01540
3679.87038	0.01619
3678.58461	0.01675
3677.29884	0.01687
3676.01308	0.01669
3674.72731	0.01659
3673.44154	0.01663
3672.15577	0.01661
3670.87000	0.01661
3669.58423	0.01676
3668.29846	0.01676
3667.01269	0.01630
3665.72693	0.01559
3664.44116	0.01519
3663.15539	0.01537
3661.86962	0.01595
3660.58385	0.01657
3659.29808	0.01694
3658.01231	0.01697
3656.72654	0.01682
3655.44077	0.01667
3654.15501	0.01652
3652.86924	0.01618
3651.58347	0.01563
3650.29770	0.01507
3649.01193	0.01471
3647.72616	0.01465
3646.44039	0.01493
3645.15462	0.01551
3643.86886	0.01623
3642.58309	0.01683
3641.29732	0.01711
3640.01155	0.01709
3638.72578	0.01700
3637.44001	0.01712
3636.15424	0.01750
3634.86847	0.01803
3633.58270	0.01862
3632.29694	0.01913
3631.01117	0.01937
3629.72540	0.01931
3628.43963	0.01915
3627.15386	0.01895
3625.86809	0.01862
3624.58232	0.01836
3623.29655	0.01846
3622.01079	0.01886
3620.72502	0.01920
3619.43925	0.01927
3618.15348	0.01917
3616.86771	0.01904
3615.58194	0.01896
3614.29617	0.01888
3613.01040	0.01875
3611.72463	0.01852
3610.43887	0.01827
3609.15310	0.01816
3607.86733	0.01835
3606.58156	0.01875
3605.29579	0.01914
3604.01002	0.01935
3602.72425	0.01935
3601.43848	0.01931
3600.15272	0.01947
3598.86695	0.01990
3597.58118	0.02038
3596.29541	0.02064
3595.00964	0.02070
3593.72387	0.02085
3592.43810	0.02134
3591.15233	0.02198
3589.86656	0.02229
3588.58080	0.02209
3587.29503	0.02175
3586.00926	0.02176
3584.72349	0.02217
3583.43772	0.02265
3582.15195	0.02285
3580.86618	0.02263
3579.58041	0.02206
3578.29464	0.02137
3577.00888	0.02093
3575.72311	0.02105
3574.43734	0.02169
3573.15157	0.02243
3571.86580	0.02283
3570.58003	0.02283
3569.29426	0.02283
3568.00849	0.02322
3566.72273	0.02395
3565.43696	0.02460
3564.15119	0.02486
3562.86542	0.02479
3561.57965	0.02471
3560.29388	0.02476
3559.00811	0.02490
3557.72234	0.02499
3556.43657	0.02499
3555.15081	0.02498
3553.86504	0.02499
3552.57927	0.02497
3551.29350	0.02489
3550.00773	0.02488
3548.72196	0.02515
3547.43619	0.02571
3546.15042	0.02627
3544.86466	0.02644
3543.57889	0.02609
3542.29312	0.02548
3541.00735	0.02497
3539.72158	0.02477
3538.43581	0.02488
3537.15004	0.02515
3535.86427	0.02550
3534.57850	0.02590
3533.29274	0.02641
3532.00697	0.02700
3530.72120	0.02756
3529.43543	0.02795
3528.14966	0.02820
3526.86389	0.02844
3525.57812	0.02873
3524.29235	0.02896
3523.00659	0.02903
3521.72082	0.02900
3520.43505	0.02895
3519.14928	0.02893
3517.86351	0.02892
3516.57774	0.02893
3515.29197	0.02902
3514.00620	0.02927
3512.72043	0.02969
3511.43467	0.03018
3510.14890	0.03060
3508.86313	0.03089
3507.57736	0.03105
3506.29159	0.03114
3505.00582	0.03122
3503.72005	0.03135
3502.43428	0.03151
3501.14852	0.03163
3499.86275	0.03168
3498.57698	0.03167
3497.29121	0.03164
3496.00544	0.03160
3494.71967	0.03163
3493.43390	0.03178
3492.14813	0.03203
3490.86236	0.03227
3489.57660	0.03243
3488.29083	0.03256
3487.00506	0.03276
3485.71929	0.03298
3484.43352	0.03310
3483.14775	0.03316
3481.86198	0.03333
3480.57621	0.03366
3479.29045	0.03399
3478.00468	0.03406
3476.71891	0.03390
3475.43314	0.03374
3474.14737	0.03382
3472.86160	0.03402
3471.57583	0.03407
3470.29006	0.03389
3469.00429	0.03364
3467.71853	0.03353
3466.43276	0.03355
3465.14699	0.03365
3463.86122	0.03379
3462.57545	0.03391
3461.28968	0.03392
3460.00391	0.03380
3458.71814	0.03371
3457.43238	0.03381
3456.14661	0.03409
3454.86084	0.03436
3453.57507	0.03443
3452.28930	0.03429
3451.00353	0.03412
3449.71776	0.03409
3448.43199	0.03424
3447.14622	0.03451
3445.86046	0.03484
3444.57469	0.03520
3443.28892	0.03557
3442.00315	0.03588
3440.71738	0.03607
3439.43161	0.03615
3438.14584	0.03621
3436.86007	0.03629
3435.57431	0.03642
3434.28854	0.03661
3433.00277	0.03685
3431.71700	0.03704
3430.43123	0.03711
3429.14546	0.03716
3427.85969	0.03742
3426.57392	0.03798
3425.28815	0.03869
3424.00239	0.03923
3422.71662	0.03941
3421.43085	0.03930
3420.14508	0.03911
3418.85931	0.03900
3417.57354	0.03896
3416.28777	0.03891
3415.00200	0.03880
3413.71624	0.03870
3412.43047	0.03872
3411.14470	0.03893
3409.85893	0.03928
3408.57316	0.03964
3407.28739	0.03985
3406.00162	0.03991
3404.71585	0.03996
3403.43008	0.04021
3402.14432	0.04071
3400.85855	0.04127
3399.57278	0.04162
3398.28701	0.04166
3397.00124	0.04149
3395.71547	0.04130
3394.42970	0.04120
3393.14393	0.04125
3391.85817	0.04147
3390.57240	0.04183
3389.28663	0.04224
3388.00086	0.04263
3386.71509	0.04289
3385.42932	0.04285
3384.14355	0.04236
3382.85778	0.04151
3381.57201	0.04066
3380.28625	0.04029
3379.00048	0.04057
3377.71471	0.04121
3376.42894	0.04182
3375.14317	0.04214
3373.85740	0.04224
3372.57163	0.04228
3371.28586	0.04243
3370.00010	0.04273
3368.71433	0.04313
3367.42856	0.04348
3366.14279	0.04368
3364.85702	0.04381
3363.57125	0.04403
3362.28548	0.04439
3360.99971	0.04474
3359.71394	0.04490
3358.42818	0.04492
3357.14241	0.04498
3355.85664	0.04527
3354.57087	0.04582
3353.28510	0.04647
3351.99933	0.04702
3350.71356	0.04730
3349.42779	0.04727
3348.14202	0.04708
3346.85626	0.04700
3345.57049	0.04725
3344.28472	0.04780
3342.99895	0.04843
3341.71318	0.04884
3340.42741	0.04895
3339.14164	0.04894
3337.85587	0.04906
3336.57011	0.04938
3335.28434	0.04973
3333.99857	0.04994
3332.71280	0.04994
3331.42703	0.04983
3330.14126	0.04972
3328.85549	0.04971
3327.56972	0.04979
3326.28395	0.04990
3324.99819	0.04995
3323.71242	0.04995
3322.42665	0.04997
3321.14088	0.05010
3319.85511	0.05037
3318.56934	0.05072
3317.28357	0.05107
3315.99780	0.05133
3314.71204	0.05144
3313.42627	0.05143
3312.14050	0.05145
3310.85473	0.05161
3309.56896	0.05185
3308.28319	0.05200
3306.99742	0.05198
3305.71165	0.05190
3304.42588	0.05195
3303.14012	0.05225
3301.85435	0.05266
3300.56858	0.05296
3299.28281	0.05304
3297.99704	0.05299
3296.71127	0.05291
3295.42550	0.05279
3294.13973	0.05264
3292.85397	0.05256
3291.56820	0.05263
3290.28243	0.05283
3288.99666	0.05306
3287.71089	0.05328
3286.42512	0.05352
3285.13935	0.05378
3283.85358	0.05400
3282.56781	0.05410
3281.28205	0.05409
3279.99628	0.05400
3278.71051	0.05388
3277.42474	0.05374
3276.13897	0.05364
3274.85320	0.05366
3273.56743	0.05378
3272.28166	0.05383
3270.99590	0.05369
3269.71013	0.05342
3268.42436	0.05324
3267.13859	0.05325
3265.85282	0.05331
3264.56705	0.05324
3263.28128	0.05298
3261.99551	0.05259
3260.70974	0.05220
3259.42398	0.05190
3258.13821	0.05177
3256.85244	0.05183
3255.56667	0.05203
3254.28090	0.05226
3252.99513	0.05247
3251.70936	0.05260
3250.42359	0.05262
3249.13783	0.05242
3247.85206	0.05194
3246.56629	0.05121
3245.28052	0.05046
3243.99475	0.04995
3242.70898	0.04981
3241.42321	0.04996
3240.13744	0.05020
3238.85167	0.05033
3237.56591	0.05029
3236.28014	0.05017
3234.99437	0.05011
3233.70860	0.05012
3232.42283	0.05007
3231.13706	0.04983
3229.85129	0.04946
3228.56552	0.04914
3227.27976	0.04898
3225.99399	0.04896
3224.70822	0.04900
3223.42245	0.04906
3222.13668	0.04917
3220.85091	0.04935
3219.56514	0.04955
3218.27937	0.04960
3216.99360	0.04942
3215.70784	0.04905
3214.42207	0.04875
3213.13630	0.04867
3211.85053	0.04876
3210.56476	0.04884
3209.27899	0.04880
3207.99322	0.04854
3206.70745	0.04808
3205.42169	0.04757
3204.13592	0.04722
3202.85015	0.04717
3201.56438	0.04735
3200.27861	0.04759
3198.99284	0.04776
3197.70707	0.04780
3196.42130	0.04768
3195.13553	0.04742
3193.84977	0.04720
3192.56400	0.04718
3191.27823	0.04737
3189.99246	0.04757
3188.70669	0.04760
3187.42092	0.04736
3186.13515	0.04683
3184.84938	0.04600
3183.56362	0.04504
3182.27785	0.04432
3180.99208	0.04413
3179.70631	0.04437
3178.42054	0.04471
3177.13477	0.04488
3175.84900	0.04491
3174.56323	0.04497
3173.27746	0.04513
3171.99170	0.04528
3170.70593	0.04521
3169.42016	0.04481
3168.13439	0.04417
3166.84862	0.04359
3165.56285	0.04328
3164.27708	0.04323
3162.99131	0.04326
3161.70555	0.04324
3160.41978	0.04311
3159.13401	0.04291
3157.84824	0.04269
3156.56247	0.04254
3155.27670	0.04248
3153.99093	0.04244
3152.70516	0.04233
3151.41939	0.04208
3150.13363	0.04176
3148.84786	0.04152
3147.56209	0.04148
3146.27632	0.04158
3144.99055	0.04164
3143.70478	0.04155
3142.41901	0.04141
3141.13324	0.04134
3139.84748	0.04131
3138.56171	0.04119
3137.27594	0.04087
3135.99017	0.04046
3134.70440	0.04010
3133.41863	0.03994
3132.13286	0.04000
3130.84709	0.04022
3129.56132	0.04051
3128.27556	0.04079
3126.98979	0.04100
3125.70402	0.04108
3124.41825	0.04100
3123.13248	0.04073
3121.84671	0.04028
3120.56094	0.03971
3119.27517	0.03914
3117.98940	0.03876
3116.70364	0.03871
3115.41787	0.03898
3114.13210	0.03935
3112.84633	0.03956
3111.56056	0.03952
3110.27479	0.03939
3108.98902	0.03944
3107.70325	0.03977
3106.41749	0.04022
3105.13172	0.04051
3103.84595	0.04049
3102.56018	0.04025
3101.27441	0.04002
3099.98864	0.03997
3098.70287	0.04014
3097.41710	0.04042
3096.13133	0.04061
3094.84557	0.04055
3093.55980	0.04029
3092.27403	0.04000
3090.98826	0.03990
3089.70249	0.04006
3088.41672	0.04035
3087.13095	0.04053
3085.84518	0.04044
3084.55942	0.04018
3083.27365	0.03997
3081.98788	0.03998
3080.70211	0.04019
3079.41634	0.04048
3078.13057	0.04072
3076.84480	0.04086
3075.55903	0.04091
3074.27326	0.04097
3072.98750	0.04112
3071.70173	0.04138
3070.41596	0.04162
3069.13019	0.04169
3067.84442	0.04146
3066.55865	0.04100
3065.27288	0.04053
3063.98711	0.04021
3062.70135	0.04011
3061.41558	0.04021
3060.12981	0.04046
3058.84404	0.04072
3057.55827	0.04079
3056.27250	0.04059
3054.98673	0.04024
3053.70096	0.03994
3052.41519	0.03976
3051.12943	0.03958
3049.84366	0.03930
3048.55789	0.03903
3047.27212	0.03892
3045.98635	0.03899
3044.70058	0.03913
3043.41481	0.03923
3042.12904	0.03921
3040.84328	0.03909
3039.55751	0.03888
3038.27174	0.03867
3036.98597	0.03856
3035.70020	0.03857
3034.41443	0.03863
3033.12866	0.03860
3031.84289	0.03841
3030.55712	0.03807
3029.27136	0.03768
3027.98559	0.03734
3026.69982	0.03714
3025.41405	0.03704
3024.12828	0.03694
3022.84251	0.03678
3021.55674	0.03662
3020.27097	0.03652
3018.98521	0.03646
3017.69944	0.03635
3016.41367	0.03618
3015.12790	0.03601
3013.84213	0.03592
3012.55636	0.03588
3011.27059	0.03586
3009.98482	0.03588
3008.69905	0.03592
3007.41329	0.03592
3006.12752	0.03583
3004.84175	0.03568
3003.55598	0.03560
3002.27021	0.03562
3000.98444	0.03567
2999.69867	0.03568
2998.41290	0.03582
2997.12714	0.03605
2995.84137	0.03635
2994.55560	0.03660
2993.26983	0.03671
2991.98406	0.03664
2990.69829	0.03642
2989.41252	0.03618
2988.12675	0.03605
2986.84098	0.03608
2985.55522	0.03626
2984.26945	0.03652
2982.98368	0.03683
2981.69791	0.03715
2980.41214	0.03744
2979.12637	0.03768
2977.84060	0.03785
2976.55483	0.03793
2975.26907	0.03799
2973.98330	0.03809
2972.69753	0.03818
2971.41176	0.03816
2970.12599	0.03803
2968.84022	0.03787
2967.55445	0.03784
2966.26868	0.03800
2964.98291	0.03840
2963.69715	0.03898
2962.41138	0.03953
2961.12561	0.03977
2959.83984	0.03964
2958.55407	0.03937
2957.26830	0.03924
2955.98253	0.03927
2954.69676	0.03926
2953.41100	0.03907
2952.12523	0.03879
2950.83946	0.03862
2949.55369	0.03865
2948.26792	0.03883
2946.98215	0.03905
2945.69638	0.03926
2944.41061	0.03945
2943.12484	0.03962
2941.83908	0.03973
2940.55331	0.03977
2939.26754	0.03974
2937.98177	0.03973
2936.69600	0.03983
2935.41023	0.04002
2934.12446	0.04021
2932.83869	0.04038
2931.55293	0.04058
2930.26716	0.04080
2928.98139	0.04095
2927.69562	0.04094
2926.40985	0.04076
2925.12408	0.04046
2923.83831	0.04017
2922.55254	0.04003
2921.26677	0.04010
2919.98101	0.04028
2918.69524	0.04034
2917.40947	0.04017
2916.12370	0.03981
2914.83793	0.03940
2913.55216	0.03898
2912.26639	0.03854
2910.98062	0.03810
2909.69486	0.03775
2908.40909	0.03753
2907.12332	0.03739
2905.83755	0.03720
2904.55178	0.03689
2903.26601	0.03654
2901.98024	0.03631
2900.69447	0.03632
2899.40870	0.03648
2898.12294	0.03660
2896.83717	0.03656
2895.55140	0.03631
2894.26563	0.03591
2892.97986	0.03548
2891.69409	0.03525
2890.40832	0.03531
2889.12255	0.03555
2887.83678	0.03582
2886.55102	0.03603
2885.26525	0.03619
2883.97948	0.03624
2882.69371	0.03613
2881.40794	0.03589
2880.12217	0.03560
2878.83640	0.03537
2877.55063	0.03525
2876.26487	0.03528
2874.97910	0.03543
2873.69333	0.03560
2872.40756	0.03570
2871.12179	0.03566
2869.83602	0.03548
2868.55025	0.03524
2867.26448	0.03499
2865.97871	0.03479
2864.69295	0.03468
2863.40718	0.03469
2862.12141	0.03478
2860.83564	0.03478
2859.54987	0.03463
2858.26410	0.03439
2856.97833	0.03422
2855.69256	0.03416
2854.40680	0.03418
2853.12103	0.03420
2851.83526	0.03413
2850.54949	0.03395
2849.26372	0.03372
2847.97795	0.03352
2846.69218	0.03339
2845.40641	0.03325
2844.12064	0.03302
2842.83488	0.03270
2841.54911	0.03237
2840.26334	0.03211
2838.97757	0.03191
2837.69180	0.03177
2836.40603	0.03173
2835.12026	0.03183
2833.83449	0.03198
2832.54873	0.03205
2831.26296	0.03196
2829.97719	0.03179
2828.69142	0.03164
2827.40565	0.03150
2826.11988	0.03127
2824.83411	0.03091
2823.54834	0.03058
2822.26257	0.03050
2820.97681	0.03068
2819.69104	0.03093
2818.40527	0.03104
2817.11950	0.03091
2815.83373	0.03059
2814.54796	0.03025
2813.26219	0.03006
2811.97642	0.03010
2810.69066	0.03031
2809.40489	0.03052
2808.11912	0.03062
2806.83335	0.03057
2805.54758	0.03039
2804.26181	0.03015
2802.97604	0.02991
2801.69027	0.02972
2800.40450	0.02962
2799.11874	0.02958
2797.83297	0.02956
2796.54720	0.02948
2795.26143	0.02935
2793.97566	0.02923
2792.68989	0.02920
2791.40412	0.02926
2790.11835	0.02933
2788.83259	0.02936
2787.54682	0.02940
2786.26105	0.02951
2784.97528	0.02965
2783.68951	0.02975
2782.40374	0.02973
2781.11797	0.02959
2779.83220	0.02939
2778.54643	0.02921
2777.26067	0.02909
2775.97490	0.02900
2774.68913	0.02891
2773.40336	0.02884
2772.11759	0.02883
2770.83182	0.02889
2769.54605	0.02894
2768.26028	0.02886
2766.97452	0.02870
2765.68875	0.02856
2764.40298	0.02852
2763.11721	0.02849
2761.83144	0.02834
2760.54567	0.02809
2759.25990	0.02784
2757.97413	0.02767
2756.68836	0.02753
2755.40260	0.02738
2754.11683	0.02726
2752.83106	0.02727
2751.54529	0.02747
2750.25952	0.02778
2748.97375	0.02803
2747.68798	0.02804
2746.40221	0.02780
2745.11645	0.02743
2743.83068	0.02710
2742.54491	0.02694
2741.25914	0.02692
2739.97337	0.02691
2738.68760	0.02678
2737.40183	0.02659
2736.11606	0.02650
2734.83029	0.02661
2733.54453	0.02683
2732.25876	0.02701
2730.97299	0.02710
2729.68722	0.02710
2728.40145	0.02703
2727.11568	0.02689
2725.82991	0.02670
2724.54414	0.02654
2723.25838	0.02650
2721.97261	0.02659
2720.68684	0.02668
2719.40107	0.02663
2718.11530	0.02640
2716.82953	0.02611
2715.54376	0.02587
2714.25799	0.02574
2712.97222	0.02566
2711.68646	0.02558
2710.40069	0.02548
2709.11492	0.02534
2707.82915	0.02522
2706.54338	0.02514
2705.25761	0.02507
2703.97184	0.02501
2702.68607	0.02501
2701.40031	0.02519
2700.11454	0.02550
2698.82877	0.02573
2697.54300	0.02569
2696.25723	0.02541
2694.97146	0.02509
2693.68569	0.02494
2692.39992	0.02497
2691.11415	0.02506
2689.82839	0.02510
2688.54262	0.02511
2687.25685	0.02512
2685.97108	0.02510
2684.68531	0.02499
2683.39954	0.02481
2682.11377	0.02466
2680.82800	0.02459
2679.54224	0.02459
2678.25647	0.02458
2676.97070	0.02455
2675.68493	0.02449
2674.39916	0.02436
2673.11339	0.02417
2671.82762	0.02402
2670.54185	0.02402
2669.25608	0.02422
2667.97032	0.02448
2666.68455	0.02462
2665.39878	0.02459
2664.11301	0.02448
2662.82724	0.02440
2661.54147	0.02439
2660.25570	0.02440
2658.96993	0.02442
2657.68417	0.02447
2656.39840	0.02454
2655.11263	0.02458
2653.82686	0.02452
2652.54109	0.02436
2651.25532	0.02418
2649.96955	0.02409
2648.68378	0.02405
2647.39801	0.02398
2646.11225	0.02382
2644.82648	0.02363
2643.54071	0.02351
2642.25494	0.02346
2640.96917	0.02343
2639.68340	0.02342
2638.39763	0.02343
2637.11186	0.02348
2635.82609	0.02347
2634.54033	0.02329
2633.25456	0.02290
2631.96879	0.02243
2630.68302	0.02206
2629.39725	0.02192
2628.11148	0.02202
2626.82571	0.02225
2625.53994	0.02248
2624.25418	0.02257
2622.96841	0.02251
2621.68264	0.02235
2620.39687	0.02222
2619.11110	0.02219
2617.82533	0.02228
2616.53956	0.02240
2615.25379	0.02241
2613.96802	0.02220
2612.68226	0.02173
2611.39649	0.02115
2610.11072	0.02064
2608.82495	0.02029
2607.53918	0.02012
2606.25341	0.02008
2604.96764	0.02016
2603.68187	0.02034
2602.39611	0.02059
2601.11034	0.02081
2599.82457	0.02094
2598.53880	0.02091
2597.25303	0.02066
2595.96726	0.02021
2594.68149	0.01975
2593.39572	0.01958
2592.10995	0.01974
2590.82419	0.02002
2589.53842	0.02013
2588.25265	0.02001
2586.96688	0.01979
2585.68111	0.01960
2584.39534	0.01946
2583.10957	0.01934
2581.82380	0.01925
2580.53804	0.01928
2579.25227	0.01948
2577.96650	0.01981
2576.68073	0.02015
2575.39496	0.02036
2574.10919	0.02031
2572.82342	0.01997
2571.53765	0.01948
2570.25188	0.01911
2568.96612	0.01911
2567.68035	0.01946
2566.39458	0.01988
2565.10881	0.02013
2563.82304	0.02019
2562.53727	0.02020
2561.25150	0.02025
2559.96573	0.02024
2558.67997	0.02010
2557.39420	0.01991
2556.10843	0.01979
2554.82266	0.01973
2553.53689	0.01954
2552.25112	0.01916
2550.96535	0.01876
2549.67958	0.01855
2548.39381	0.01855
2547.10805	0.01863
2545.82228	0.01860
2544.53651	0.01844
2543.25074	0.01829
2541.96497	0.01825
2540.67920	0.01827
2539.39343	0.01824
2538.10766	0.01819
2536.82190	0.01820
2535.53613	0.01816
2534.25036	0.01796
2532.96459	0.01770
2531.67882	0.01760
2530.39305	0.01764
2529.10728	0.01760
2527.82151	0.01735
2526.53574	0.01700
2525.24998	0.01676
2523.96421	0.01671
2522.67844	0.01684
2521.39267	0.01709
2520.10690	0.01739
2518.82113	0.01770
2517.53536	0.01803
2516.24959	0.01840
2514.96383	0.01870
2513.67806	0.01877
2512.39229	0.01860
2511.10652	0.01830
2509.82075	0.01799
2508.53498	0.01768
2507.24921	0.01741
2505.96344	0.01729
2504.67767	0.01740
2503.39191	0.01762
2502.10614	0.01778
2500.82037	0.01783
2499.53460	0.01777
2498.24883	0.01755
2496.96306	0.01717
2495.67729	0.01680
2494.39152	0.01664
2493.10576	0.01673
2491.81999	0.01696
2490.53422	0.01718
2489.24845	0.01725
2487.96268	0.01697
2486.67691	0.01636
2485.39114	0.01576
2484.10537	0.01558
2482.81960	0.01597
2481.53384	0.01663
2480.24807	0.01718
2478.96230	0.01738
2477.67653	0.01726
2476.39076	0.01696
2475.10499	0.01676
2473.81922	0.01684
2472.53345	0.01706
2471.24769	0.01709
2469.96192	0.01680
2468.67615	0.01650
2467.39038	0.01656
2466.10461	0.01694
2464.81884	0.01723
2463.53307	0.01714
2462.24730	0.01685
2460.96153	0.01672
2459.67577	0.01687
2458.39000	0.01711
2457.10423	0.01725
2455.81846	0.01729
2454.53269	0.01727
2453.24692	0.01724
2451.96115	0.01717
2450.67538	0.01709
2449.38962	0.01707
2448.10385	0.01715
2446.81808	0.01732
2445.53231	0.01744
2444.24654	0.01738
2442.96077	0.01715
2441.67500	0.01691
2440.38923	0.01679
2439.10346	0.01678
2437.81770	0.01681
2436.53193	0.01685
2435.24616	0.01683
2433.96039	0.01669
2432.67462	0.01654
2431.38885	0.01662
2430.10308	0.01703
2428.81731	0.01750
2427.53155	0.01767
2426.24578	0.01745
2424.96001	0.01709
2423.67424	0.01692
2422.38847	0.01706
2421.10270	0.01731
2419.81693	0.01738
2418.53116	0.01721
2417.24539	0.01699
2415.95963	0.01695
2414.67386	0.01706
2413.38809	0.01714
2412.10232	0.01708
2410.81655	0.01690
2409.53078	0.01666
2408.24501	0.01634
2406.95924	0.01594
2405.67347	0.01561
2404.38771	0.01559
2403.10194	0.01596
2401.81617	0.01647
2400.53040	0.01675
2399.24463	0.01625
2397.95886	0.01577
2396.67309	0.01544
2395.38732	0.01522
2394.10156	0.01516
2392.81579	0.01528
2391.53002	0.01554
2390.24425	0.01587
2388.95848	0.01618
2387.67271	0.01636
2386.38694	0.01638
2385.10117	0.01631
2383.81540	0.01626
2382.52964	0.01627
2381.24387	0.01632
2379.95810	0.01642
2378.67233	0.01653
2377.38656	0.01663
2376.10079	0.01685
2374.81502	0.01714
2373.52925	0.01697
2372.24349	0.01692
2370.95772	0.01692
2369.67195	0.01686
2368.38618	0.01681
2367.10041	0.01683
2365.81464	0.01687
2364.52887	0.01691
2363.24310	0.01697
2361.95733	0.01709
2360.67157	0.01727
2359.38580	0.01742
2358.10003	0.01748
2356.81426	0.01742
2355.52849	0.01725
2354.24272	0.01706
2352.95695	0.01703
2351.67118	0.01699
2350.38542	0.01707
2349.09965	0.01724
2347.81388	0.01740
2346.52811	0.01767
2345.24234	0.01803
2343.95657	0.01845
2342.67080	0.01877
2341.38503	0.01874
2340.09926	0.01879
2338.81350	0.01850
2337.52773	0.01784
2336.24196	0.01737
2334.95619	0.01693
2333.67042	0.01630
2332.38465	0.01553
2331.09888	0.01454
2329.81311	0.01353
2328.52735	0.01273
2327.24158	0.01276
2325.95581	0.01362
2324.67004	0.01494
2323.38427	0.01645
2322.09850	0.01795
2320.81273	0.01890
2319.52696	0.01941
2318.24119	0.01966
2316.95543	0.01968
2315.66966	0.01961
2314.38389	0.01947
2313.09812	0.01926
2311.81235	0.01912
2310.52658	0.01887
2309.24081	0.01841
2307.95504	0.01794
2306.66928	0.01750
2305.38351	0.01702
2304.09774	0.01650
2302.81197	0.01597
2301.52620	0.01551
2300.24043	0.01510
2298.95466	0.01464
2297.66889	0.01415
2296.38312	0.01371
2295.09736	0.01347
2293.81159	0.01344
2292.52582	0.01348
2291.24005	0.01356
2289.95428	0.01366
2288.66851	0.01387
2287.38274	0.01420
2286.09697	0.01466
2284.81121	0.01521
2283.52544	0.01569
2282.23967	0.01595
2280.95390	0.01592
2279.66813	0.01567
2278.38236	0.01530
2277.09659	0.01484
2275.81082	0.01434
2274.52505	0.01391
2273.23929	0.01363
2271.95352	0.01351
2270.66775	0.01347
2269.38198	0.01344
2268.09621	0.01342
2266.81044	0.01356
2265.52467	0.01396
2264.23890	0.01449
2262.95314	0.01472
2261.66737	0.01436
2260.38160	0.01360
2259.09583	0.01296
2257.81006	0.01279
2256.52429	0.01295
2255.23852	0.01310
2253.95275	0.01304
2252.66698	0.01274
2251.38122	0.01231
2250.09545	0.01234
2248.80968	0.01307
2247.52391	0.01253
2246.23814	0.01200
2244.95237	0.01174
2243.66660	0.01178
2242.38083	0.01197
2241.09507	0.01209
2239.80930	0.01206
2238.52353	0.01193
2237.23776	0.01173
2235.95199	0.01143
2234.66622	0.01106
2233.38045	0.01076
2232.09468	0.01066
2230.80891	0.01074
2229.52315	0.01084
2228.23738	0.01066
2226.95161	0.01012
2225.66584	0.00953
2224.38007	0.00937
2223.09430	0.00983
2221.80853	0.01051
2220.52276	0.01074
2219.23700	0.01020
2217.95123	0.00927
2216.66546	0.00870
2215.37969	0.00872
2214.09392	0.00891
2212.80815	0.00884
2211.52238	0.00869
2210.23661	0.00886
2208.95084	0.00942
2207.66508	0.00997
2206.37931	0.01008
2205.09354	0.00954
2203.80777	0.00856
2202.52200	0.00771
2201.23623	0.00748
2199.95046	0.00787
2198.66469	0.00847
2197.37893	0.00888
2196.09316	0.00887
2194.80739	0.00839
2193.52162	0.00756
2192.23585	0.00684
2190.95008	0.00672
2189.66431	0.00736
2188.37854	0.00844
2187.09277	0.00946
2185.80701	0.01001
2184.52124	0.00993
2183.23547	0.00931
2181.94970	0.00850
2180.66393	0.00802
2179.37816	0.00813
2178.09239	0.00861
2176.80662	0.00900
2175.52085	0.00902
2174.23509	0.00867
2172.94932	0.00803
2171.66355	0.00706
2170.37778	0.00587
2169.09201	0.00484
2167.80624	0.00453
2166.52047	0.00513
2165.23470	0.00635
2163.94894	0.00767
2162.66317	0.00857
2161.37740	0.00861
2160.09163	0.00757
2158.80586	0.00588
2157.52009	0.00439
2156.23432	0.00361
2154.94855	0.00342
2153.66278	0.00361
2152.37702	0.00419
2151.09125	0.00503
2149.80548	0.00563
2148.51971	0.00560
2147.23394	0.00505
2145.94817	0.00448
2144.66240	0.00431
2143.37663	0.00458
2142.09087	0.00516
2140.80510	0.00595
2139.51933	0.00688
2138.23356	0.00762
2136.94779	0.00781
2135.66202	0.00744
2134.37625	0.00707
2133.09048	0.00723
2131.80471	0.00787
2130.51895	0.00848
2129.23318	0.00872
2127.94741	0.00869
2126.66164	0.00867
2125.37587	0.00883
2124.09010	0.00905
2122.80433	0.00915
2121.51856	0.00908
2120.23280	0.00895
2118.94703	0.00893
2117.66126	0.00912
2116.37549	0.00946
2115.08972	0.00979
2113.80395	0.00990
2112.51818	0.00967
2111.23241	0.00919
2109.94664	0.00866
2108.66088	0.00832
2107.37511	0.00836
2106.08934	0.00887
2104.80357	0.00968
2103.51780	0.01044
2102.23203	0.01077
2100.94626	0.01080
2099.66049	0.01381
2098.37473	0.01520
2097.08896	0.01481
2095.80319	0.01357
2094.51742	0.01187
2093.23165	0.01028
2091.94588	0.00931
2090.66011	0.00910
2089.37434	0.00940
2088.08857	0.00985
2086.80281	0.01020
2085.51704	0.01032
2084.23127	0.01016
2082.94550	0.00981
2081.65973	0.00954
2080.37396	0.00966
2079.08819	0.01026
2077.80242	0.01114
2076.51666	0.01190
2075.23089	0.01226
2073.94512	0.01215
2072.65935	0.01172
2071.37358	0.01126
2070.08781	0.01101
2068.80204	0.01099
2067.51627	0.01103
2066.23050	0.01096
2064.94474	0.01069
2063.65897	0.01028
2062.37320	0.00986
2061.08743	0.00946
2059.80166	0.00895
2058.51589	0.00812
2057.23012	0.00695
2055.94435	0.00572
2054.65859	0.00496
2053.37282	0.00517
2052.08705	0.00655
2050.80128	0.00869
2049.51551	0.01070
2048.22974	0.01178
2046.94397	0.01179
2045.65820	0.01121
2044.37243	0.01064
2043.08667	0.01034
2041.80090	0.01032
2040.51513	0.01054
2039.22936	0.01102
2037.94359	0.01173
2036.65782	0.01257
2035.37205	0.01341
2034.08628	0.01408
2032.80052	0.01442
2031.51475	0.01435
2030.22898	0.01390
2028.94321	0.01311
2027.65744	0.01198
2026.37167	0.01057
2025.08590	0.00925
2023.80013	0.00858
2022.51436	0.00882
2021.22860	0.00950
2019.94283	0.00980
2018.65706	0.00926
2017.37129	0.00814
2016.08552	0.00720
2014.79975	0.00698
2013.51398	0.00758
2012.22821	0.00873
2010.94245	0.01001
2009.65668	0.01113
2008.37091	0.01191
2007.08514	0.01225
2005.79937	0.01201
2004.51360	0.01116
2003.22783	0.00988
2001.94206	0.00854
2000.65629	0.00753
1999.37053	0.00704
1998.08476	0.00703
1996.79899	0.00720
1995.51322	0.00722
1994.22745	0.00697
1992.94168	0.00659
1991.65591	0.00629
1990.37014	0.00611
1989.08438	0.00608
1987.79861	0.00639
1986.51284	0.00719
1985.22707	0.00828
1983.94130	0.00941
1982.65553	0.01057
1981.36976	0.01203
1980.08399	0.01395
1978.79822	0.01600
1977.51246	0.01745
1976.22669	0.01775
1974.94092	0.01698
1973.65515	0.01575
1972.36938	0.01463
1971.08361	0.01376
1969.79784	0.01295
1968.51207	0.01214
1967.22631	0.01146
1965.94054	0.01110
1964.65477	0.01114
1963.36900	0.01156
1962.08323	0.01214
1960.79746	0.01249
1959.51169	0.01225
1958.22592	0.01132
1956.94015	0.01003
1955.65439	0.00898
1954.36862	0.00865
1953.08285	0.00908
1951.79708	0.00986
1950.51131	0.01048
1949.22554	0.01071
1947.93977	0.01064
1946.65400	0.01046
1945.36823	0.01030
1944.08247	0.01026
1942.79670	0.01054
1941.51093	0.01111
1940.22516	0.01157
1938.93939	0.01150
1937.65362	0.01102
1936.36785	0.01069
1935.08208	0.01086
1933.79632	0.01137
1932.51055	0.01184
1931.22478	0.01209
1929.93901	0.01211
1928.65324	0.01188
1927.36747	0.01148
1926.08170	0.01110
1924.79593	0.01095
1923.51016	0.01103
1922.22440	0.01118
1920.93863	0.01125
1919.65286	0.01122
1918.36709	0.01119
1917.08132	0.01126
1915.79555	0.01140
1914.50978	0.01150
1913.22401	0.01155
1911.93825	0.01155
1910.65248	0.01154
1909.36671	0.01153
1908.08094	0.01150
1906.79517	0.01144
1905.50940	0.01134
1904.22363	0.01125
1902.93786	0.01120
1901.65209	0.01119
1900.36633	0.01120
1899.08056	0.01122
1897.79479	0.01119
1896.50902	0.01116
1895.22325	0.01120
1893.93748	0.01137
1892.65171	0.01159
1891.36594	0.01168
1890.08018	0.01156
1888.79441	0.01135
1887.50864	0.01121
1886.22287	0.01119
1884.93710	0.01122
1883.65133	0.01122
1882.36556	0.01123
1881.07979	0.01132
1879.79402	0.01145
1878.50826	0.01150
1877.22249	0.01141
1875.93672	0.01126
1874.65095	0.01117
1873.36518	0.01122
1872.07941	0.01133
1870.79364	0.01139
1869.50787	0.01136
1868.22211	0.01130
1866.93634	0.01127
1865.65057	0.01130
1864.36480	0.01137
1863.07903	0.01149
1861.79326	0.01160
1860.50749	0.01161
1859.22172	0.01144
1857.93595	0.01110
1856.65019	0.01072
1855.36442	0.01044
1854.07865	0.01032
1852.79288	0.01031
1851.50711	0.01029
1850.22134	0.01021
1848.93557	0.01012
1847.64980	0.01011
1846.36404	0.01021
1845.07827	0.01036
1843.79250	0.01048
1842.50673	0.01052
1841.22096	0.01046
1839.93519	0.01038
1838.64942	0.01034
1837.36365	0.01033
1836.07788	0.01027
1834.79212	0.01017
1833.50635	0.01007
1832.22058	0.00998
1830.93481	0.00994
1829.64904	0.01001
1828.36327	0.01022
1827.07750	0.01054
1825.79173	0.01098
1824.50597	0.01154
1823.22020	0.01212
1821.93443	0.01252
1820.64866	0.01262
1819.36289	0.01236
1818.07712	0.01178
1816.79135	0.01102
1815.50558	0.01026
1814.21981	0.00965
1812.93405	0.00923
1811.64828	0.00899
1810.36251	0.00890
1809.07674	0.00897
1807.79097	0.00914
1806.50520	0.00934
1805.21943	0.00953
1803.93366	0.00973
1802.64790	0.00996
1801.36213	0.01017
1800.07636	0.01031
1798.79059	0.01039
1797.50482	0.01045
1796.21905	0.01053
1794.93328	0.01061
1793.64751	0.01064
1792.36174	0.01066
1791.07598	0.01071
1789.79021	0.01076
1788.50444	0.01079
1787.21867	0.01078
1785.93290	0.01073
1784.64713	0.01067
1783.36136	0.01062
1782.07559	0.01060
1780.78983	0.01061
1779.50406	0.01063
1778.21829	0.01061
1776.93252	0.01052
1775.64675	0.01037
1774.36098	0.01021
1773.07521	0.01011
1771.78944	0.01012
1770.50367	0.01014
1769.21791	0.01005
1767.93214	0.00989
1766.64637	0.00980
1765.36060	0.00979
1764.07483	0.00979
1762.78906	0.00975
1761.50329	0.00969
1760.21752	0.00963
1758.93176	0.00959
1757.64599	0.00961
1756.36022	0.00974
1755.07445	0.00992
1753.78868	0.01005
1752.50291	0.01011
1751.21714	0.01018
1749.93137	0.01026
1748.64560	0.01027
1747.35984	0.01019
1746.07407	0.01017
1744.78830	0.01030
1743.50253	0.01054
1742.21676	0.01076
1740.93099	0.01085
1739.64522	0.01088
1738.35945	0.01097
1737.07369	0.01110
1735.78792	0.01117
1734.50215	0.01124
1733.21638	0.01140
1731.93061	0.01151
1730.64484	0.01143
1729.35907	0.01120
1728.07330	0.01105
1726.78753	0.01107
1725.50177	0.01121
1724.21600	0.01144
1722.93023	0.01172
1721.64446	0.01203
1720.35869	0.01232
1719.07292	0.01256
1717.78715	0.01282
1716.50138	0.01312
1715.21561	0.01336
1713.92985	0.01348
1712.64408	0.01359
1711.35831	0.01384
1710.07254	0.01430
1708.78677	0.01490
1707.50100	0.01554
1706.21523	0.01618
1704.92946	0.01690
1703.64370	0.01775
1702.35793	0.01866
1701.07216	0.01961
1699.78639	0.02070
1698.50062	0.02173
1697.21485	0.02246
1695.92908	0.02302
1694.64331	0.02373
1693.35754	0.02457
1692.07178	0.02534
1690.78601	0.02610
1689.50024	0.02701
1688.21447	0.02807
1686.92870	0.02916
1685.64293	0.03018
1684.35716	0.03120
1683.07139	0.03222
1681.78563	0.03309
1680.49986	0.03385
1679.21409	0.03472
1677.92832	0.03577
1676.64255	0.03688
1675.35678	0.03800
1674.07101	0.03918
1672.78524	0.04035
1671.49947	0.04143
1670.21371	0.04244
1668.92794	0.04343
1667.64217	0.04445
1666.35640	0.04546
1665.07063	0.04644
1663.78486	0.04740
1662.49909	0.04834
1661.21332	0.04920
1659.92756	0.04997
1658.64179	0.05075
1657.35602	0.05168
1656.07025	0.05270
1654.78448	0.05355
1653.49871	0.05420
1652.21294	0.05478
1650.92717	0.05529
1649.64140	0.05562
1648.35564	0.05584
1647.06987	0.05612
1645.78410	0.05649
1644.49833	0.05680
1643.21256	0.05693
1641.92679	0.05696
1640.64102	0.05703
1639.35525	0.05722
1638.06949	0.05742
1636.78372	0.05753
1635.49795	0.05759
1634.21218	0.05761
1632.92641	0.05755
1631.64064	0.05735
1630.35487	0.05706
1629.06910	0.05671
1627.78333	0.05628
1626.49757	0.05577
1625.21180	0.05513
1623.92603	0.05438
1622.64026	0.05359
1621.35449	0.05281
1620.06872	0.05200
1618.78295	0.05110
1617.49718	0.05013
1616.21142	0.04919
1614.92565	0.04825
1613.63988	0.04722
1612.35411	0.04609
1611.06834	0.04499
1609.78257	0.04398
1608.49680	0.04302
1607.21103	0.04207
1605.92526	0.04115
1604.63950	0.04029
1603.35373	0.03948
1602.06796	0.03873
1600.78219	0.03805
1599.49642	0.03743
1598.21065	0.03689
1596.92488	0.03640
1595.63911	0.03594
1594.35335	0.03553
1593.06758	0.03519
1591.78181	0.03492
1590.49604	0.03469
1589.21027	0.03448
1587.92450	0.03430
1586.63873	0.03418
1585.35296	0.03412
1584.06719	0.03408
1582.78143	0.03405
1581.49566	0.03408
1580.20989	0.03424
1578.92412	0.03447
1577.63835	0.03467
1576.35258	0.03487
1575.06681	0.03516
1573.78104	0.03554
1572.49528	0.03593
1571.20951	0.03633
1569.92374	0.03680
1568.63797	0.03734
1567.35220	0.03788
1566.06643	0.03836
1564.78066	0.03887
1563.49489	0.03950
1562.20912	0.04020
1560.92336	0.04089
1559.63759	0.04160
1558.35182	0.04236
1557.06605	0.04303
1555.78028	0.04345
1554.49451	0.04368
1553.20874	0.04396
1551.92297	0.04436
1550.63721	0.04483
1549.35144	0.04533
1548.06567	0.04586
1546.77990	0.04637
1545.49413	0.04689
1544.20836	0.04744
1542.92259	0.04797
1541.63682	0.04835
1540.35105	0.04853
1539.06529	0.04862
1537.77952	0.04867
1536.49375	0.04861
1535.20798	0.04846
1533.92221	0.04835
1532.63644	0.04837
1531.35067	0.04848
1530.06490	0.04856
1528.77914	0.04860
1527.49337	0.04861
1526.20760	0.04865
1524.92183	0.04873
1523.63606	0.04875
1522.35029	0.04866
1521.06452	0.04855
1519.77875	0.04848
1518.49298	0.04835
1517.20722	0.04814
1515.92145	0.04788
1514.63568	0.04760
1513.34991	0.04728
1512.06414	0.04697
1510.77837	0.04671
1509.49260	0.04641
1508.20683	0.04593
1506.92107	0.04529
1505.63530	0.04462
1504.34953	0.04394
1503.06376	0.04318
1501.77799	0.04238
1500.49222	0.04162
1499.20645	0.04092
1497.92068	0.04017
1496.63491	0.03934
1495.34915	0.03850
1494.06338	0.03771
1492.77761	0.03696
1491.49184	0.03625
1490.20607	0.03562
1488.92030	0.03501
1487.63453	0.03438
1486.34876	0.03377
1485.06299	0.03322
1483.77723	0.03275
1482.49146	0.03237
1481.20569	0.03207
1479.91992	0.03187
1478.63415	0.03177
1477.34838	0.03177
1476.06261	0.03185
1474.77684	0.03197
1473.49108	0.03208
1472.20531	0.03220
1470.91954	0.03234
1469.63377	0.03253
1468.34800	0.03278
1467.06223	0.03311
1465.77646	0.03348
1464.49069	0.03384
1463.20492	0.03421
1461.91916	0.03463
1460.63339	0.03513
1459.34762	0.03567
1458.06185	0.03620
1456.77608	0.03669
1455.49031	0.03711
1454.20454	0.03737
1452.91877	0.03745
1451.63301	0.03747
1450.34724	0.03751
1449.06147	0.03756
1447.77570	0.03756
1446.48993	0.03747
1445.20416	0.03729
1443.91839	0.03704
1442.63262	0.03681
1441.34685	0.03666
1440.06109	0.03651
1438.77532	0.03628
1437.48955	0.03595
1436.20378	0.03563
1434.91801	0.03537
1433.63224	0.03513
1432.34647	0.03486
1431.06070	0.03459
1429.77494	0.03437
1428.48917	0.03419
1427.20340	0.03403
1425.91763	0.03387
1424.63186	0.03376
1423.34609	0.03373
1422.06032	0.03375
1420.77455	0.03373
1419.48878	0.03367
1418.20302	0.03360
1416.91725	0.03350
1415.63148	0.03338
1414.34571	0.03330
1413.05994	0.03325
1411.77417	0.03320
1410.48840	0.03311
1409.20263	0.03304
1407.91687	0.03301
1406.63110	0.03302
1405.34533	0.03305
1404.05956	0.03310
1402.77379	0.03312
1401.48802	0.03308
1400.20225	0.03300
1398.91648	0.03292
1397.63071	0.03289
1396.34495	0.03285
1395.05918	0.03277
1393.77341	0.03266
1392.48764	0.03255
1391.20187	0.03244
1389.91610	0.03234
1388.63033	0.03222
1387.34456	0.03210
1386.05880	0.03199
1384.77303	0.03188
1383.48726	0.03175
1382.20149	0.03160
1380.91572	0.03144
1379.62995	0.03124
1378.34418	0.03103
1377.05841	0.03080
1375.77264	0.03056
1374.48688	0.03029
1373.20111	0.02999
1371.91534	0.02967
1370.62957	0.02935
1369.34380	0.02903
1368.05803	0.02874
1366.77226	0.02848
1365.48649	0.02824
1364.20073	0.02801
1362.91496	0.02778
1361.62919	0.02757
1360.34342	0.02737
1359.05765	0.02718
1357.77188	0.02700
1356.48611	0.02683
1355.20034	0.02668
1353.91457	0.02656
1352.62881	0.02647
1351.34304	0.02641
1350.05727	0.02641
1348.77150	0.02646
1347.48573	0.02654
1346.19996	0.02664
1344.91419	0.02675
1343.62842	0.02688
1342.34266	0.02701
1341.05689	0.02715
1339.77112	0.02727
1338.48535	0.02737
1337.19958	0.02743
1335.91381	0.02743
1334.62804	0.02740
1333.34227	0.02733
1332.05650	0.02725
1330.77074	0.02716
1329.48497	0.02703
1328.19920	0.02687
1326.91343	0.02670
1325.62766	0.02653
1324.34189	0.02642
1323.05612	0.02635
1321.77035	0.02630
1320.48459	0.02626
1319.19882	0.02622
1317.91305	0.02620
1316.62728	0.02620
1315.34151	0.02622
1314.05574	0.02625
1312.76997	0.02625
1311.48420	0.02620
1310.19843	0.02610
1308.91267	0.02600
1307.62690	0.02590
1306.34113	0.02582
1305.05536	0.02572
1303.76959	0.02561
1302.48382	0.02551
1301.19805	0.02543
1299.91228	0.02537
1298.62652	0.02531
1297.34075	0.02526
1296.05498	0.02524
1294.76921	0.02527
1293.48344	0.02532
1292.19767	0.02536
1290.91190	0.02537
1289.62613	0.02538
1288.34036	0.02541
1287.05460	0.02549
1285.76883	0.02560
1284.48306	0.02569
1283.19729	0.02573
1281.91152	0.02576
1280.62575	0.02580
1279.33998	0.02587
1278.05421	0.02597
1276.76845	0.02608
1275.48268	0.02616
1274.19691	0.02619
1272.91114	0.02619
1271.62537	0.02620
1270.33960	0.02625
1269.05383	0.02633
1267.76806	0.02643
1266.48229	0.02653
1265.19653	0.02663
1263.91076	0.02673
1262.62499	0.02683
1261.33922	0.02696
1260.05345	0.02712
1258.76768	0.02731
1257.48191	0.02749
1256.19614	0.02767
1254.91037	0.02787
1253.62461	0.02809
1252.33884	0.02833
1251.05307	0.02858
1249.76730	0.02881
1248.48153	0.02905
1247.19576	0.02929
1245.90999	0.02952
1244.62422	0.02976
1243.33846	0.03002
1242.05269	0.03029
1240.76692	0.03055
1239.48115	0.03077
1238.19538	0.03096
1236.90961	0.03112
1235.62384	0.03127
1234.33807	0.03139
1233.05230	0.03146
1231.76654	0.03148
1230.48077	0.03146
1229.19500	0.03140
1227.90923	0.03131
1226.62346	0.03116
1225.33769	0.03093
1224.05192	0.03062
1222.76615	0.03027
1221.48039	0.02993
1220.19462	0.02962
1218.90885	0.02932
1217.62308	0.02903
1216.33731	0.02877
1215.05154	0.02856
1213.76577	0.02841
1212.48000	0.02832
1211.19423	0.02826
1209.90847	0.02822
1208.62270	0.02817
1207.33693	0.02812
1206.05116	0.02809
1204.76539	0.02810
1203.47962	0.02818
1202.19385	0.02827
1200.90808	0.02810
1199.62232	0.02755
1198.33655	0.02732
1197.05078	0.02706
1195.76501	0.02681
1194.47924	0.02662
1193.19347	0.02647
1191.90770	0.02632
1190.62193	0.02610
1189.33616	0.02581
1188.05040	0.02553
1186.76463	0.02531
1185.47886	0.02520
1184.19309	0.02517
1182.90732	0.02517
1181.62155	0.02515
1180.33578	0.02512
1179.05001	0.02511
1177.76425	0.02514
1176.47848	0.02522
1175.19271	0.02530
1173.90694	0.02536
1172.62117	0.02539
1171.33540	0.02541
1170.04963	0.02545
1168.76386	0.02555
1167.47809	0.02575
1166.19233	0.02600
1164.90656	0.02624
1163.62079	0.02642
1162.33502	0.02651
1161.04925	0.02655
1159.76348	0.02659
1158.47771	0.02668
1157.19194	0.02680
1155.90618	0.02692
1154.62041	0.02699
1153.33464	0.02704
1152.04887	0.02711
1150.76310	0.02719
1149.47733	0.02727
1148.19156	0.02737
1146.90579	0.02745
1145.62002	0.02748
1144.33426	0.02742
1143.04849	0.02730
1141.76272	0.02716
1140.47695	0.02706
1139.19118	0.02703
1137.90541	0.02707
1136.61964	0.02718
1135.33387	0.02735
1134.04811	0.02758
1132.76234	0.02790
1131.47657	0.02829
1130.19080	0.02877
1128.90503	0.02935
1127.61926	0.03000
1126.33349	0.03070
1125.04772	0.03147
1123.76195	0.03231
1122.47619	0.03323
1121.19042	0.03420
1119.90465	0.03514
1118.61888	0.03602
1117.33311	0.03688
1116.04734	0.03781
1114.76157	0.03881
1113.47580	0.03984
1112.19004	0.04082
1110.90427	0.04172
1109.61850	0.04258
1108.33273	0.04343
1107.04696	0.04428
1105.76119	0.04512
1104.47542	0.04596
1103.18965	0.04679
1101.90388	0.04758
1100.61812	0.04834
1099.33235	0.04905
1098.04658	0.04972
1096.76081	0.05028
1095.47504	0.05070
1094.18927	0.05095
1092.90350	0.05104
1091.61773	0.05099
1090.33197	0.05086
1089.04620	0.05072
1087.76043	0.05061
1086.47466	0.05058
1085.18889	0.05067
1083.90312	0.05099
1082.61735	0.05160
1081.33158	0.05243
1080.04581	0.05330
1078.76005	0.05407
1077.47428	0.05472
1076.18851	0.05536
1074.90274	0.05608
1073.61697	0.05686
1072.33120	0.05764
1071.04543	0.05834
1069.75966	0.05896
1068.47390	0.05955
1067.18813	0.06015
1065.90236	0.06076
1064.61659	0.06139
1063.33082	0.06204
1062.04505	0.06274
1060.75928	0.06350
1059.47351	0.06428
1058.18774	0.06502
1056.90198	0.06570
1055.61621	0.06638
1054.33044	0.06708
1053.04467	0.06780
1051.75890	0.06850
1050.47313	0.06920
1049.18736	0.06992
1047.90159	0.07065
1046.61583	0.07138
1045.33006	0.07216
1044.04429	0.07300
1042.75852	0.07389
1041.47275	0.07481
1040.18698	0.07573
1038.90121	0.07664
1037.61544	0.07755
1036.32967	0.07849
1035.04391	0.07949
1033.75814	0.08057
1032.47237	0.08164
1031.18660	0.08253
1029.90083	0.08308
1028.61506	0.08328
1027.32929	0.08315
1026.04352	0.08276
1024.75775	0.08216
1023.47199	0.08141
1022.18622	0.08058
1020.90045	0.07968
1019.61468	0.07870
1018.32891	0.07756
1017.04314	0.07627
1015.75737	0.07489
1014.47160	0.07350
1013.18584	0.07216
1011.90007	0.07088
1010.61430	0.06965
1009.32853	0.06848
1008.04276	0.06739
1006.75699	0.06634
1005.47122	0.06532
1004.18545	0.06428
1002.89968	0.06323
1001.61392	0.06220
1000.32815	0.06119
999.04238	0.06018
997.75661	0.05918
996.47084	0.05823
995.18507	0.05734
993.89930	0.05650
992.61353	0.05568
991.32777	0.05489
990.04200	0.05417
988.75623	0.05351
987.47046	0.05287
986.18469	0.05222
984.89892	0.05153
983.61315	0.05084
982.32738	0.05016
981.04161	0.04952
979.75585	0.04893
978.47008	0.04836
977.18431	0.04779
975.89854	0.04722
974.61277	0.04667
973.32700	0.04621
972.04123	0.04592
970.75546	0.04582
969.46970	0.04590
968.18393	0.04610
966.89816	0.04629
965.61239	0.04635
964.32662	0.04618
963.04085	0.04585
961.75508	0.04547
960.46931	0.04511
959.18354	0.04473
957.89778	0.04423
956.61201	0.04362
955.32624	0.04297
954.04047	0.04236
952.75470	0.04181
951.46893	0.04129
950.18316	0.04078
948.89739	0.04031
947.61163	0.03991
946.32586	0.03959
945.04009	0.03929
943.75432	0.03896
942.46855	0.03860
941.18278	0.03823
939.89701	0.03787
938.61124	0.03753
937.32547	0.03721
936.03971	0.03689
934.75394	0.03657
933.46817	0.03623
932.18240	0.03590
930.89663	0.03561
929.61086	0.03535
928.32509	0.03507
927.03932	0.03476
925.75356	0.03446
924.46779	0.03425
923.18202	0.03410
921.89625	0.03391
920.61048	0.03360
919.32471	0.03319
918.03894	0.03277
916.75317	0.03245
915.46740	0.03218
914.18164	0.03190
912.89587	0.03161
911.61010	0.03137
910.32433	0.03123
909.03856	0.03109
907.75279	0.03084
906.46702	0.03051
905.18125	0.03025
903.89549	0.03012
902.60972	0.03007
901.32395	0.03001
900.03818	0.02989
898.75241	0.02972
897.46664	0.02948
896.18087	0.02919
894.89510	0.02889
893.60933	0.02865
892.32357	0.02852
891.03780	0.02846
889.75203	0.02837
888.46626	0.02821
887.18049	0.02800
885.89472	0.02784
884.60895	0.02778
883.32318	0.02782
882.03742	0.02792
880.75165	0.02801
879.46588	0.02804
878.18011	0.02800
876.89434	0.02791
875.60857	0.02784
874.32280	0.02786
873.03703	0.02797
871.75126	0.02809
870.46550	0.02812
869.17973	0.02804
867.89396	0.02793
866.60819	0.02786
865.32242	0.02786
864.03665	0.02786
862.75088	0.02780
861.46511	0.02766
860.17935	0.02749
858.89358	0.02731
857.60781	0.02712
856.32204	0.02692
855.03627	0.02679
853.75050	0.02675
852.46473	0.02672
851.17896	0.02665
849.89319	0.02653
848.60743	0.02633
847.32166	0.02604
846.03589	0.02570
844.75012	0.02539
843.46435	0.02517
842.17858	0.02500
840.89281	0.02482
839.60704	0.02466
838.32128	0.02461
837.03551	0.02463
835.74974	0.02461
834.46397	0.02444
833.17820	0.02417
831.89243	0.02392
830.60666	0.02374
829.32089	0.02360
828.03512	0.02342
826.74936	0.02324
825.46359	0.02316
824.17782	0.02322
822.89205	0.02334
821.60628	0.02340
820.32051	0.02335
819.03474	0.02325
817.74897	0.02315
816.46321	0.02307
815.17744	0.02297
813.89167	0.02285
812.60590	0.02278
811.32013	0.02278
810.03436	0.02276
808.74859	0.02263
807.46282	0.02242
806.17705	0.02226
804.89129	0.02225
803.60552	0.02233
802.31975	0.02241
801.03398	0.02244
799.74821	0.02244
798.46244	0.02244
797.17667	0.02245
795.89090	0.02243
794.60513	0.02236
793.31937	0.02228
792.03360	0.02224
790.74783	0.02223
789.46206	0.02220
788.17629	0.02212
786.89052	0.02204
785.60475	0.02205
784.31898	0.02214
783.03322	0.02228
781.74745	0.02241
780.46168	0.02250
779.17591	0.02254
777.89014	0.02254
776.60437	0.02248
775.31860	0.02236
774.03283	0.02223
772.74706	0.02214
771.46130	0.02214
770.17553	0.02222
768.88976	0.02238
767.60399	0.02254
766.31822	0.02265
765.03245	0.02266
763.74668	0.02261
762.46091	0.02255
761.17515	0.02252
759.88938	0.02250
758.60361	0.02247
757.31784	0.02242
756.03207	0.02237
754.74630	0.02233
753.46053	0.02231
752.17476	0.02232
750.88899	0.02241
749.60323	0.02263
748.31746	0.02294
747.03169	0.02322
745.74592	0.02333
744.46015	0.02328
743.17438	0.02320
741.88861	0.02317
740.60284	0.02320
739.31708	0.02317
738.03131	0.02304
736.74554	0.02287
735.45977	0.02271
734.17400	0.02255
732.88823	0.02238
731.60246	0.02226
730.31669	0.02229
729.03092	0.02245
727.74516	0.02263
726.45939	0.02274
725.17362	0.02277
723.88785	0.02241
722.60208	0.02276
721.31631	0.02345
720.03054	0.02405
718.74477	0.02447
717.45901	0.02466
716.17324	0.02460
714.88747	0.02430
713.60170	0.02387
712.31593	0.02348
711.03016	0.02322
709.74439	0.02312
708.45862	0.02316
707.17285	0.02325
705.88709	0.02331
704.60132	0.02332
703.31555	0.02331
702.02978	0.02331
700.74401	0.02336
699.45824	0.02349
698.17247	0.02367
696.88670	0.02387
695.60094	0.02405
694.31517	0.02418
693.02940	0.02422
691.74363	0.02418
690.45786	0.02407
689.17209	0.02392
687.88632	0.02377
686.60055	0.02365
685.31478	0.02356
684.02902	0.02350
682.74325	0.02341
681.45748	0.02331
680.17171	0.02321
678.88594	0.02313
677.60017	0.02310
676.31440	0.02307
675.02863	0.02306
673.74287	0.02305
672.45710	0.02301
671.17133	0.02300
669.88556	0.02303
668.59979	0.02309
667.31402	0.02314
666.02825	0.02316
664.74248	0.02312
663.45671	0.02305
662.17095	0.02301
660.88518	0.02302
659.59941	0.02305
658.31364	0.02309
657.02787	0.02314
655.74210	0.02322
654.45633	0.02332
653.17056	0.02342
651.88480	0.02347
650.59903	0.02346
649.31326	0.02340
648.02749	0.02335
646.74172	0.02328
645.45595	0.02320
644.17018	0.02310
642.88441	0.02298
641.59864	0.02284
640.31288	0.02270
639.02711	0.02255
637.74134	0.02239
636.45557	0.02225
635.16980	0.02216
633.88403	0.02208
632.59826	0.02188
631.31249	0.02202
630.02673	0.02437
628.74096	0.02813
627.45519	0.02598
626.16942	0.03013
624.88365	0.03822
623.59788	0.04532
622.31211	0.04975
621.02634	0.05092
619.74057	0.04855
618.45481	0.04328
617.16904	0.03680
615.88327	0.03110
614.59750	0.02776
613.31173	0.02765
612.02596	0.03061
610.74019	0.03537
609.45442	0.04039
608.16866	0.04492
606.88289	0.04893
605.59712	0.05229
604.31135	0.05443
603.02558	0.05496
601.73981	0.05396
600.45404	0.05186
599.16827	0.04924
597.88250	0.04662
596.59674	0.04435
595.31097	0.04252
594.02520	0.04107
592.73943	0.03991
591.45366	0.03894
590.16789	0.03812
588.88212	0.03752
587.59635	0.03724
586.31059	0.03737
585.02482	0.03791
583.73905	0.03879
582.45328	0.03990
581.16751	0.04109
579.88174	0.04221
578.59597	0.04314
577.31020	0.04383
576.02443	0.04436
574.73867	0.04487
573.45290	0.04550
572.16713	0.04638
570.88136	0.04756
569.59559	0.04898
568.30982	0.05043
567.02405	0.05159
565.73828	0.05228
564.45251	0.05251
563.16675	0.05240
561.88098	0.05204
560.59521	0.05149
559.30944	0.05079
558.02367	0.04996
556.73790	0.04903
555.45213	0.04808
554.16636	0.04716
552.88060	0.04635
551.59483	0.04565
550.30906	0.04506
549.02329	0.04451
547.73752	0.04397
546.45175	0.04344
545.16598	0.04295
543.88021	0.04251
542.59444	0.04206
541.30868	0.04158
540.02291	0.04109
538.73714	0.04059
537.45137	0.04007
536.16560	0.03949
534.87983	0.03890
533.59406	0.03837
532.30829	0.03795
531.02253	0.03760
529.73676	0.03728
528.45099	0.03697
527.16522	0.03671
525.87945	0.03649
524.59368	0.03619
523.30791	0.03575
522.02214	0.03525
520.73637	0.03485
519.45061	0.03463
518.16484	0.03448
516.87907	0.03426
515.59330	0.03393
514.30753	0.03355
513.02176	0.03316
511.73599	0.03277
510.45022	0.03239
509.16446	0.03203
507.87869	0.03173
506.59292	0.03145
505.30715	0.03113
504.02138	0.03070
502.73561	0.03022
501.44984	0.02977
500.16407	0.02942
498.87830	0.02914
497.59254	0.02891
496.30677	0.02867
495.02100	0.02841
493.73523	0.02815
492.44946	0.02794
491.16369	0.02780
489.87792	0.02768
488.59215	0.02752
487.30639	0.02731
486.02062	0.02706
484.73485	0.02684
483.44908	0.02664
482.16331	0.02642
480.87754	0.02619
479.59177	0.02599
478.30600	0.02589
477.02023	0.02588
475.73447	0.02589
474.44870	0.02584
473.16293	0.02574
471.87716	0.02568
470.59139	0.02573
469.30562	0.02585
468.01985	0.02591
466.73408	0.02581
465.44832	0.02555
464.16255	0.02522
462.87678	0.02490
461.59101	0.02461
460.30524	0.02431
459.01947	0.02400
457.73370	0.02369
456.44793	0.02339
455.16216	0.02313
453.87640	0.02293
452.59063	0.02277
451.30486	0.02259
450.01909	0.02235
448.73332	0.02208
447.44755	0.02185
446.16178	0.02169
444.87601	0.02152
443.59025	0.02131
442.30448	0.02105
441.01871	0.02084
439.73294	0.02074
438.44717	0.02075
437.16140	0.02082
435.87563	0.02087
434.58986	0.02088
433.30409	0.02081
432.01833	0.02070
430.73256	0.02056
429.44679	0.02044
428.16102	0.02037
426.87525	0.02032
425.58948	0.02026
424.30371	0.02018
423.01794	0.02005
421.73218	0.01987
420.44641	0.01968
419.16064	0.01953
417.87487	0.01944
416.58910	0.01940
415.30333	0.01933
414.01756	0.01921
412.73179	0.01907
411.44602	0.01889
410.16026	0.01871
408.87449	0.01854
407.58872	0.01840
406.30295	0.01829
405.01718	0.01819
403.73141	0.01809
402.44564	0.01800
401.15987	0.01793
399.87411	0.01789
