3997.45528	0.00924
3996.16951	0.00876
3994.88374	0.00830
3993.59798	0.00816
3992.31221	0.00851
3991.02644	0.00928
3989.74067	0.01018
3988.45490	0.01099
3987.16913	0.01164
3985.88336	0.01213
3984.59759	0.01238
3983.31183	0.01235
3982.02606	0.01210
3980.74029	0.01177
3979.45452	0.01147
3978.16875	0.01112
3976.88298	0.01062
3975.59721	0.01003
3974.31144	0.00960
3973.02567	0.00950
3971.73991	0.00970
3970.45414	0.01004
3969.16837	0.01045
3967.88260	0.01078
3966.59683	0.01081
3965.31106	0.01031
3964.02529	0.00938
3962.73952	0.00844
3961.45376	0.00787
3960.16799	0.00767
3958.88222	0.00763
3957.59645	0.00758
3956.31068	0.00751
3955.02491	0.00737
3953.73914	0.00716
3952.45337	0.00705
3951.16760	0.00728
3949.88184	0.00794
3948.59607	0.00880
3947.31030	0.00954
3946.02453	0.00996
3944.73876	0.01018
3943.45299	0.01050
3942.16722	0.01104
3940.88145	0.01162
3939.59569	0.01191
3938.30992	0.01180
3937.02415	0.01137
3935.73838	0.01068
3934.45261	0.00988
3933.16684	0.00929
3931.88107	0.00922
3930.59530	0.00959
3929.30953	0.00999
3928.02377	0.01012
3926.73800	0.00999
3925.45223	0.00978
3924.16646	0.00963
3922.88069	0.00966
3921.59492	0.00991
3920.30915	0.01036
3919.02338	0.01074
3917.73762	0.01074
3916.45185	0.01037
3915.16608	0.00993
3913.88031	0.00976
3912.59454	0.01002
3911.30877	0.01054
3910.02300	0.01091
3908.73723	0.01079
3907.45146	0.01022
3906.16570	0.00954
3904.87993	0.00918
3903.59416	0.00931
3902.30839	0.00964
3901.02262	0.00978
3899.73685	0.00962
3898.45108	0.00943
3897.16531	0.00941
3895.87955	0.00953
3894.59378	0.00955
3893.30801	0.00931
3892.02224	0.00895
3890.73647	0.00887
3889.45070	0.00920
3888.16493	0.00969
3886.87916	0.01011
3885.59339	0.01049
3884.30763	0.01075
3883.02186	0.01063
3881.73609	0.01002
3880.45032	0.00921
3879.16455	0.00859
3877.87878	0.00837
3876.59301	0.00860
3875.30724	0.00921
3874.02148	0.00997
3872.73571	0.01044
3871.44994	0.01038
3870.16417	0.01006
3868.87840	0.00982
3867.59263	0.00960
3866.30686	0.00928
3865.02109	0.00908
3863.73532	0.00920
3862.44956	0.00954
3861.16379	0.00993
3859.87802	0.01027
3858.59225	0.01058
3857.30648	0.01083
3856.02071	0.01099
3854.73494	0.01109
3853.44917	0.01126
3852.16341	0.01139
3850.87764	0.01124
3849.59187	0.01088
3848.30610	0.01060
3847.02033	0.01052
3845.73456	0.01049
3844.44879	0.01037
3843.16302	0.01018
3841.87725	0.00999
3840.59149	0.00976
3839.30572	0.00953
3838.01995	0.00950
3836.73418	0.00968
3835.44841	0.00975
3834.16264	0.00948
3832.87687	0.00906
3831.59110	0.00874
3830.30534	0.00856
3829.01957	0.00839
3827.73380	0.00828
3826.44803	0.00841
3825.16226	0.00882
3823.87649	0.00928
3822.59072	0.00972
3821.30495	0.01036
3820.01918	0.01114
3818.73342	0.01150
3817.44765	0.01112
3816.16188	0.01045
3814.87611	0.01001
3813.59034	0.00973
3812.30457	0.00943
3811.01880	0.00919
3809.73303	0.00908
3808.44726	0.00903
3807.16150	0.00919
3805.87573	0.00965
3804.58996	0.01002
3803.30419	0.00996
3802.01842	0.00982
3800.73265	0.01007
3799.44688	0.01048
3798.16111	0.01059
3796.87535	0.01052
3795.58958	0.01065
3794.30381	0.01086
3793.01804	0.01077
3791.73227	0.01028
3790.44650	0.00964
3789.16073	0.00912
3787.87496	0.00888
3786.58919	0.00887
3785.30343	0.00896
3784.01766	0.00904
3782.73189	0.00911
3781.44612	0.00923
3780.16035	0.00947
3778.87458	0.00976
3777.58881	0.00989
3776.30304	0.00978
3775.01728	0.00962
3773.73151	0.00958
3772.44574	0.00951
3771.15997	0.00919
3769.87420	0.00868
3768.58843	0.00822
3767.30266	0.00797
3766.01689	0.00801
3764.73112	0.00839
3763.44536	0.00886
3762.15959	0.00911
3760.87382	0.00905
3759.58805	0.00893
3758.30228	0.00892
3757.01651	0.00895
3755.73074	0.00878
3754.44497	0.00826
3753.15921	0.00766
3751.87344	0.00750
3750.58767	0.00793
3749.30190	0.00868
3748.01613	0.00925
3746.73036	0.00915
3745.44459	0.00856
3744.15882	0.00830
3742.87305	0.00860
3741.58729	0.00891
3740.30152	0.00901
3739.01575	0.00912
3737.72998	0.00928
3736.44421	0.00934
3735.15844	0.00922
3733.87267	0.00889
3732.58690	0.00861
3731.30114	0.00874
3730.01537	0.00921
3728.72960	0.00945
3727.44383	0.00922
3726.15806	0.00883
3724.87229	0.00862
3723.58652	0.00860
3722.30075	0.00859
3721.01498	0.00846
3719.72922	0.00829
3718.44345	0.00831
3717.15768	0.00865
3715.87191	0.00912
3714.58614	0.00948
3713.30037	0.00974
3712.01460	0.01016
3710.72883	0.01076
3709.44307	0.01114
3708.15730	0.01085
3706.87153	0.00983
3705.58576	0.00852
3704.29999	0.00754
3703.01422	0.00729
3701.72845	0.00770
3700.44268	0.00842
3699.15691	0.00908
3697.87115	0.00944
3696.58538	0.00944
3695.29961	0.00917
3694.01384	0.00876
3692.72807	0.00840
3691.44230	0.00824
3690.15653	0.00833
3688.87076	0.00871
3687.58500	0.00927
3686.29923	0.00971
3685.01346	0.00978
3683.72769	0.00969
3682.44192	0.00974
3681.15615	0.00992
3679.87038	0.01007
3678.58461	0.00997
3677.29884	0.00956
3676.01308	0.00918
3674.72731	0.00924
3673.44154	0.00953
3672.15577	0.00960
3670.87000	0.00958
3669.58423	0.00987
3668.29846	0.01037
3667.01269	0.01064
3665.72693	0.01051
3664.44116	0.01023
3663.15539	0.01002
3661.86962	0.00993
3660.58385	0.00990
3659.29808	0.00986
3658.01231	0.00986
3656.72654	0.01007
3655.44077	0.01053
3654.15501	0.01101
3652.86924	0.01117
3651.58347	0.01095
3650.29770	0.01060
3649.01193	0.01030
3647.72616	0.01017
3646.44039	0.01028
3645.15462	0.01071
3643.86886	0.01129
3642.58309	0.01180
3641.29732	0.01212
3640.01155	0.01230
3638.72578	0.01243
3637.44001	0.01251
3636.15424	0.01246
3634.86847	0.01231
3633.58270	0.01229
3632.29694	0.01244
3631.01117	0.01258
3629.72540	0.01264
3628.43963	0.01282
3627.15386	0.01313
3625.86809	0.01336
3624.58232	0.01344
3623.29655	0.01339
3622.01079	0.01318
3620.72502	0.01284
3619.43925	0.01264
3618.15348	0.01288
3616.86771	0.01347
3615.58194	0.01417
3614.29617	0.01466
3613.01040	0.01481
3611.72463	0.01464
3610.43887	0.01434
3609.15310	0.01417
3607.86733	0.01432
3606.58156	0.01465
3605.29579	0.01494
3604.01002	0.01515
3602.72425	0.01526
3601.43848	0.01531
3600.15272	0.01535
3598.86695	0.01559
3597.58118	0.01604
3596.29541	0.01649
3595.00964	0.01676
3593.72387	0.01697
3592.43810	0.01731
3591.15233	0.01778
3589.86656	0.01819
3588.58080	0.01833
3587.29503	0.01821
3586.00926	0.01793
3584.72349	0.01767
3583.43772	0.01757
3582.15195	0.01773
3580.86618	0.01811
3579.58041	0.01847
3578.29464	0.01856
3577.00888	0.01841
3575.72311	0.01826
3574.43734	0.01840
3573.15157	0.01884
3571.86580	0.01942
3570.58003	0.01987
3569.29426	0.02002
3568.00849	0.01997
3566.72273	0.01993
3565.43696	0.02005
3564.15119	0.02028
3562.86542	0.02054
3561.57965	0.02081
3560.29388	0.02108
3559.00811	0.02126
3557.72234	0.02123
3556.43657	0.02102
3555.15081	0.02086
3553.86504	0.02093
3552.57927	0.02115
3551.29350	0.02136
3550.00773	0.02156
3548.72196	0.02193
3547.43619	0.02254
3546.15042	0.02316
3544.86466	0.02342
3543.57889	0.02320
3542.29312	0.02276
3541.00735	0.02245
3539.72158	0.02246
3538.43581	0.02266
3537.15004	0.02285
3535.86427	0.02297
3534.57850	0.02317
3533.29274	0.02361
3532.00697	0.02425
3530.72120	0.02485
3529.43543	0.02513
3528.14966	0.02507
3526.86389	0.02491
3525.57812	0.02496
3524.29235	0.02534
3523.00659	0.02592
3521.72082	0.02643
3520.43505	0.02669
3519.14928	0.02667
3517.86351	0.02647
3516.57774	0.02626
3515.29197	0.02617
3514.00620	0.02631
3512.72043	0.02678
3511.43467	0.02758
3510.14890	0.02851
3508.86313	0.02921
3507.57736	0.02934
3506.29159	0.02886
3505.00582	0.02814
3503.72005	0.02766
3502.43428	0.02766
3501.14852	0.02797
3499.86275	0.02835
3498.57698	0.02870
3497.29121	0.02903
3496.00544	0.02932
3494.71967	0.02950
3493.43390	0.02953
3492.14813	0.02942
3490.86236	0.02932
3489.57660	0.02932
3488.29083	0.02942
3487.00506	0.02955
3485.71929	0.02974
3484.43352	0.03010
3483.14775	0.03068
3481.86198	0.03134
3480.57621	0.03191
3479.29045	0.03226
3478.00468	0.03240
3476.71891	0.03244
3475.43314	0.03252
3474.14737	0.03272
3472.86160	0.03293
3471.57583	0.03301
3470.29006	0.03292
3469.00429	0.03283
3467.71853	0.03284
3466.43276	0.03287
3465.14699	0.03277
3463.86122	0.03257
3462.57545	0.03243
3461.28968	0.03250
3460.00391	0.03274
3458.71814	0.03301
3457.43238	0.03318
3456.14661	0.03315
3454.86084	0.03296
3453.57507	0.03270
3452.28930	0.03248
3451.00353	0.03242
3449.71776	0.03259
3448.43199	0.03304
3447.14622	0.03369
3445.86046	0.03435
3444.57469	0.03486
3443.28892	0.03520
3442.00315	0.03540
3440.71738	0.03551
3439.43161	0.03557
3438.14584	0.03566
3436.86007	0.03583
3435.57431	0.03600
3434.28854	0.03603
3433.00277	0.03585
3431.71700	0.03556
3430.43123	0.03539
3429.14546	0.03550
3427.85969	0.03592
3426.57392	0.03649
3425.28815	0.03693
3424.00239	0.03711
3422.71662	0.03702
3421.43085	0.03684
3420.14508	0.03682
3418.85931	0.03707
3417.57354	0.03754
3416.28777	0.03806
3415.00200	0.03845
3413.71624	0.03858
3412.43047	0.03848
3411.14470	0.03828
3409.85893	0.03820
3408.57316	0.03832
3407.28739	0.03858
3406.00162	0.03887
3404.71585	0.03914
3403.43008	0.03942
3402.14432	0.03965
3400.85855	0.03976
3399.57278	0.03981
3398.28701	0.03993
3397.00124	0.04016
3395.71547	0.04046
3394.42970	0.04075
3393.14393	0.04101
3391.85817	0.04122
3390.57240	0.04134
3389.28663	0.04142
3388.00086	0.04157
3386.71509	0.04184
3385.42932	0.04207
3384.14355	0.04208
3382.85778	0.04187
3381.57201	0.04163
3380.28625	0.04157
3379.00048	0.04176
3377.71471	0.04206
3376.42894	0.04236
3375.14317	0.04262
3373.85740	0.04285
3372.57163	0.04308
3371.28586	0.04334
3370.00010	0.04369
3368.71433	0.04406
3367.42856	0.04435
3366.14279	0.04450
3364.85702	0.04460
3363.57125	0.04479
3362.28548	0.04510
3360.99971	0.04547
3359.71394	0.04583
3358.42818	0.04614
3357.14241	0.04637
3355.85664	0.04654
3354.57087	0.04673
3353.28510	0.04692
3351.99933	0.04706
3350.71356	0.04707
3349.42779	0.04702
3348.14202	0.04710
3346.85626	0.04742
3345.57049	0.04791
3344.28472	0.04840
3342.99895	0.04881
3341.71318	0.04917
3340.42741	0.04953
3339.14164	0.04986
3337.85587	0.05007
3336.57011	0.05011
3335.28434	0.05005
3333.99857	0.05004
3332.71280	0.05018
3331.42703	0.05049
3330.14126	0.05084
3328.85549	0.05113
3327.56972	0.05130
3326.28395	0.05138
3324.99819	0.05137
3323.71242	0.05132
3322.42665	0.05129
3321.14088	0.05132
3319.85511	0.05137
3318.56934	0.05136
3317.28357	0.05131
3315.99780	0.05134
3314.71204	0.05151
3313.42627	0.05186
3312.14050	0.05233
3310.85473	0.05286
3309.56896	0.05335
3308.28319	0.05368
3306.99742	0.05378
3305.71165	0.05365
3304.42588	0.05344
3303.14012	0.05334
3301.85435	0.05349
3300.56858	0.05383
3299.28281	0.05421
3297.99704	0.05452
3296.71127	0.05474
3295.42550	0.05492
3294.13973	0.05507
3292.85397	0.05522
3291.56820	0.05532
3290.28243	0.05527
3288.99666	0.05504
3287.71089	0.05472
3286.42512	0.05452
3285.13935	0.05457
3283.85358	0.05477
3282.56781	0.05493
3281.28205	0.05500
3279.99628	0.05509
3278.71051	0.05530
3277.42474	0.05557
3276.13897	0.05575
3274.85320	0.05575
3273.56743	0.05561
3272.28166	0.05539
3270.99590	0.05515
3269.71013	0.05489
3268.42436	0.05463
3267.13859	0.05439
3265.85282	0.05420
3264.56705	0.05406
3263.28128	0.05396
3261.99551	0.05384
3260.70974	0.05366
3259.42398	0.05346
3258.13821	0.05328
3256.85244	0.05312
3255.56667	0.05287
3254.28090	0.05250
3252.99513	0.05213
3251.70936	0.05200
3250.42359	0.05220
3249.13783	0.05255
3247.85206	0.05275
3246.56629	0.05266
3245.28052	0.05236
3243.99475	0.05201
3242.70898	0.05169
3241.42321	0.05143
3240.13744	0.05123
3238.85167	0.05109
3237.56591	0.05093
3236.28014	0.05073
3234.99437	0.05050
3233.70860	0.05031
3232.42283	0.05023
3231.13706	0.05031
3229.85129	0.05056
3228.56552	0.05087
3227.27976	0.05101
3225.99399	0.05084
3224.70822	0.05043
3223.42245	0.05004
3222.13668	0.04997
3220.85091	0.05034
3219.56514	0.05096
3218.27937	0.05144
3216.99360	0.05146
3215.70784	0.05104
3214.42207	0.05051
3213.13630	0.05018
3211.85053	0.05003
3210.56476	0.04989
3209.27899	0.04964
3207.99322	0.04925
3206.70745	0.04873
3205.42169	0.04817
3204.13592	0.04778
3202.85015	0.04775
3201.56438	0.04805
3200.27861	0.04841
3198.99284	0.04854
3197.70707	0.04831
3196.42130	0.04783
3195.13553	0.04735
3193.84977	0.04713
3192.56400	0.04723
3191.27823	0.04747
3189.99246	0.04751
3188.70669	0.04719
3187.42092	0.04667
3186.13515	0.04625
3184.84938	0.04604
3183.56362	0.04590
3182.27785	0.04570
3180.99208	0.04553
3179.70631	0.04552
3178.42054	0.04570
3177.13477	0.04585
3175.84900	0.04580
3174.56323	0.04557
3173.27746	0.04540
3171.99170	0.04542
3170.70593	0.04553
3169.42016	0.04549
3168.13439	0.04522
3166.84862	0.04487
3165.56285	0.04468
3164.27708	0.04468
3162.99131	0.04473
3161.70555	0.04463
3160.41978	0.04430
3159.13401	0.04383
3157.84824	0.04344
3156.56247	0.04332
3155.27670	0.04345
3153.99093	0.04364
3152.70516	0.04371
3151.41939	0.04359
3150.13363	0.04339
3148.84786	0.04327
3147.56209	0.04330
3146.27632	0.04339
3144.99055	0.04334
3143.70478	0.04311
3142.41901	0.04292
3141.13324	0.04291
3139.84748	0.04298
3138.56171	0.04284
3137.27594	0.04236
3135.99017	0.04173
3134.70440	0.04123
3133.41863	0.04104
3132.13286	0.04117
3130.84709	0.04144
3129.56132	0.04158
3128.27556	0.04149
3126.98979	0.04127
3125.70402	0.04113
3124.41825	0.04113
3123.13248	0.04117
3121.84671	0.04112
3120.56094	0.04090
3119.27517	0.04060
3117.98940	0.04038
3116.70364	0.04039
3115.41787	0.04059
3114.13210	0.04074
3112.84633	0.04061
3111.56056	0.04030
3110.27479	0.04008
3108.98902	0.04009
3107.70325	0.04026
3106.41749	0.04042
3105.13172	0.04048
3103.84595	0.04048
3102.56018	0.04051
3101.27441	0.04063
3099.98864	0.04087
3098.70287	0.04123
3097.41710	0.04162
3096.13133	0.04189
3094.84557	0.04190
3093.55980	0.04169
3092.27403	0.04142
3090.98826	0.04128
3089.70249	0.04135
3088.41672	0.04153
3087.13095	0.04169
3085.84518	0.04174
3084.55942	0.04173
3083.27365	0.04168
3081.98788	0.04157
3080.70211	0.04143
3079.41634	0.04137
3078.13057	0.04148
3076.84480	0.04165
3075.55903	0.04173
3074.27326	0.04169
3072.98750	0.04162
3071.70173	0.04154
3070.41596	0.04133
3069.13019	0.04097
3067.84442	0.04060
3066.55865	0.04046
3065.27288	0.04067
3063.98711	0.04114
3062.70135	0.04163
3061.41558	0.04198
3060.12981	0.04215
3058.84404	0.04216
3057.55827	0.04202
3056.27250	0.04177
3054.98673	0.04149
3053.70096	0.04128
3052.41519	0.04117
3051.12943	0.04110
3049.84366	0.04098
3048.55789	0.04075
3047.27212	0.04043
3045.98635	0.04014
3044.70058	0.03999
3043.41481	0.04005
3042.12904	0.04026
3040.84328	0.04045
3039.55751	0.04050
3038.27174	0.04041
3036.98597	0.04024
3035.70020	0.04009
3034.41443	0.03989
3033.12866	0.03958
3031.84289	0.03914
3030.55712	0.03866
3029.27136	0.03827
3027.98559	0.03806
3026.69982	0.03801
3025.41405	0.03799
3024.12828	0.03788
3022.84251	0.03763
3021.55674	0.03740
3020.27097	0.03739
3018.98521	0.03762
3017.69944	0.03794
3016.41367	0.03815
3015.12790	0.03814
3013.84213	0.03799
3012.55636	0.03784
3011.27059	0.03776
3009.98482	0.03773
3008.69905	0.03763
3007.41329	0.03743
3006.12752	0.03718
3004.84175	0.03704
3003.55598	0.03711
3002.27021	0.03730
3000.98444	0.03735
2999.69867	0.03715
2998.41290	0.03685
2997.12714	0.03670
2995.84137	0.03682
2994.55560	0.03714
2993.26983	0.03741
2991.98406	0.03746
2990.69829	0.03724
2989.41252	0.03686
2988.12675	0.03654
2986.84098	0.03650
2985.55522	0.03676
2984.26945	0.03720
2982.98368	0.03765
2981.69791	0.03810
2980.41214	0.03857
2979.12637	0.03897
2977.84060	0.03914
2976.55483	0.03911
2975.26907	0.03904
2973.98330	0.03906
2972.69753	0.03918
2971.41176	0.03932
2970.12599	0.03951
2968.84022	0.03977
2967.55445	0.04010
2966.26868	0.04049
2964.98291	0.04091
2963.69715	0.04130
2962.41138	0.04155
2961.12561	0.04158
2959.83984	0.04142
2958.55407	0.04127
2957.26830	0.04129
2955.98253	0.04141
2954.69676	0.04141
2953.41100	0.04116
2952.12523	0.04078
2950.83946	0.04055
2949.55369	0.04056
2948.26792	0.04073
2946.98215	0.04090
2945.69638	0.04098
2944.41061	0.04091
2943.12484	0.04077
2941.83908	0.04068
2940.55331	0.04070
2939.26754	0.04083
2937.98177	0.04110
2936.69600	0.04152
2935.41023	0.04196
2934.12446	0.04217
2932.83869	0.04203
2931.55293	0.04174
2930.26716	0.04162
2928.98139	0.04178
2927.69562	0.04208
2926.40985	0.04229
2925.12408	0.04228
2923.83831	0.04207
2922.55254	0.04180
2921.26677	0.04160
2919.98101	0.04145
2918.69524	0.04123
2917.40947	0.04090
2916.12370	0.04058
2914.83793	0.04036
2913.55216	0.04019
2912.26639	0.03992
2910.98062	0.03948
2909.69486	0.03899
2908.40909	0.03853
2907.12332	0.03811
2905.83755	0.03773
2904.55178	0.03744
2903.26601	0.03734
2901.98024	0.03740
2900.69447	0.03747
2899.40870	0.03744
2898.12294	0.03730
2896.83717	0.03714
2895.55140	0.03700
2894.26563	0.03690
2892.97986	0.03684
2891.69409	0.03678
2890.40832	0.03669
2889.12255	0.03662
2887.83678	0.03668
2886.55102	0.03690
2885.26525	0.03714
2883.97948	0.03724
2882.69371	0.03713
2881.40794	0.03692
2880.12217	0.03679
2878.83640	0.03687
2877.55063	0.03710
2876.26487	0.03726
2874.97910	0.03721
2873.69333	0.03701
2872.40756	0.03686
2871.12179	0.03687
2869.83602	0.03696
2868.55025	0.03696
2867.26448	0.03680
2865.97871	0.03649
2864.69295	0.03619
2863.40718	0.03603
2862.12141	0.03597
2860.83564	0.03586
2859.54987	0.03563
2858.26410	0.03534
2856.97833	0.03511
2855.69256	0.03499
2854.40680	0.03500
2853.12103	0.03508
2851.83526	0.03513
2850.54949	0.03506
2849.26372	0.03492
2847.97795	0.03485
2846.69218	0.03490
2845.40641	0.03494
2844.12064	0.03483
2842.83488	0.03455
2841.54911	0.03421
2840.26334	0.03392
2838.97757	0.03368
2837.69180	0.03342
2836.40603	0.03315
2835.12026	0.03298
2833.83449	0.03293
2832.54873	0.03288
2831.26296	0.03274
2829.97719	0.03255
2828.69142	0.03244
2827.40565	0.03238
2826.11988	0.03223
2824.83411	0.03188
2823.54834	0.03146
2822.26257	0.03119
2820.97681	0.03117
2819.69104	0.03137
2818.40527	0.03168
2817.11950	0.03194
2815.83373	0.03202
2814.54796	0.03189
2813.26219	0.03167
2811.97642	0.03157
2810.69066	0.03167
2809.40489	0.03183
2808.11912	0.03188
2806.83335	0.03176
2805.54758	0.03153
2804.26181	0.03128
2802.97604	0.03114
2801.69027	0.03111
2800.40450	0.03112
2799.11874	0.03105
2797.83297	0.03083
2796.54720	0.03052
2795.26143	0.03023
2793.97566	0.03006
2792.68989	0.03008
2791.40412	0.03027
2790.11835	0.03054
2788.83259	0.03076
2787.54682	0.03088
2786.26105	0.03096
2784.97528	0.03104
2783.68951	0.03111
2782.40374	0.03113
2781.11797	0.03111
2779.83220	0.03110
2778.54643	0.03110
2777.26067	0.03101
2775.97490	0.03071
2774.68913	0.03021
2773.40336	0.02971
2772.11759	0.02946
2770.83182	0.02952
2769.54605	0.02971
2768.26028	0.02983
2766.97452	0.02980
2765.68875	0.02968
2764.40298	0.02951
2763.11721	0.02928
2761.83144	0.02901
2760.54567	0.02878
2759.25990	0.02870
2757.97413	0.02879
2756.68836	0.02891
2755.40260	0.02899
2754.11683	0.02905
2752.83106	0.02920
2751.54529	0.02942
2750.25952	0.02962
2748.97375	0.02962
2747.68798	0.02939
2746.40221	0.02904
2745.11645	0.02869
2743.83068	0.02843
2742.54491	0.02825
2741.25914	0.02812
2739.97337	0.02799
2738.68760	0.02783
2737.40183	0.02774
2736.11606	0.02780
2734.83029	0.02797
2733.54453	0.02814
2732.25876	0.02823
2730.97299	0.02827
2729.68722	0.02830
2728.40145	0.02832
2727.11568	0.02827
2725.82991	0.02812
2724.54414	0.02789
2723.25838	0.02767
2721.97261	0.02757
2720.68684	0.02760
2719.40107	0.02766
2718.11530	0.02765
2716.82953	0.02759
2715.54376	0.02754
2714.25799	0.02749
2712.97222	0.02736
2711.68646	0.02710
2710.40069	0.02679
2709.11492	0.02659
2707.82915	0.02655
2706.54338	0.02661
2705.25761	0.02665
2703.97184	0.02660
2702.68607	0.02653
2701.40031	0.02651
2700.11454	0.02656
2698.82877	0.02657
2697.54300	0.02651
2696.25723	0.02643
2694.97146	0.02643
2693.68569	0.02649
2692.39992	0.02653
2691.11415	0.02649
2689.82839	0.02645
2688.54262	0.02650
2687.25685	0.02660
2685.97108	0.02661
2684.68531	0.02643
2683.39954	0.02613
2682.11377	0.02592
2680.82800	0.02586
2679.54224	0.02587
2678.25647	0.02581
2676.97070	0.02565
2675.68493	0.02549
2674.39916	0.02539
2673.11339	0.02535
2671.82762	0.02529
2670.54185	0.02523
2669.25608	0.02528
2667.97032	0.02545
2666.68455	0.02564
2665.39878	0.02566
2664.11301	0.02546
2662.82724	0.02521
2661.54147	0.02506
2660.25570	0.02508
2658.96993	0.02519
2657.68417	0.02532
2656.39840	0.02538
2655.11263	0.02536
2653.82686	0.02523
2652.54109	0.02500
2651.25532	0.02467
2649.96955	0.02429
2648.68378	0.02392
2647.39801	0.02367
2646.11225	0.02361
2644.82648	0.02376
2643.54071	0.02398
2642.25494	0.02410
2640.96917	0.02407
2639.68340	0.02396
2638.39763	0.02391
2637.11186	0.02390
2635.82609	0.02381
2634.54033	0.02351
2633.25456	0.02304
2631.96879	0.02260
2630.68302	0.02238
2629.39725	0.02238
2628.11148	0.02244
2626.82571	0.02246
2625.53994	0.02243
2624.25418	0.02242
2622.96841	0.02248
2621.68264	0.02263
2620.39687	0.02281
2619.11110	0.02293
2617.82533	0.02297
2616.53956	0.02295
2615.25379	0.02288
2613.96802	0.02266
2612.68226	0.02225
2611.39649	0.02183
2610.11072	0.02157
2608.82495	0.02151
2607.53918	0.02148
2606.25341	0.02140
2604.96764	0.02131
2603.68187	0.02126
2602.39611	0.02123
2601.11034	0.02119
2599.82457	0.02116
2598.53880	0.02120
2597.25303	0.02133
2595.96726	0.02146
2594.68149	0.02148
2593.39572	0.02131
2592.10995	0.02095
2590.82419	0.02056
2589.53842	0.02030
2588.25265	0.02023
2586.96688	0.02027
2585.68111	0.02034
2584.39534	0.02038
2583.10957	0.02037
2581.82380	0.02037
2580.53804	0.02045
2579.25227	0.02065
2577.96650	0.02084
2576.68073	0.02089
2575.39496	0.02080
2574.10919	0.02066
2572.82342	0.02046
2571.53765	0.02020
2570.25188	0.01997
2568.96612	0.01988
2567.68035	0.01990
2566.39458	0.01991
2565.10881	0.01986
2563.82304	0.01984
2562.53727	0.01989
2561.25150	0.01998
2559.96573	0.02009
2558.67997	0.02025
2557.39420	0.02042
2556.10843	0.02050
2554.82266	0.02036
2553.53689	0.02003
2552.25112	0.01968
2550.96535	0.01945
2549.67958	0.01937
2548.39381	0.01940
2547.10805	0.01947
2545.82228	0.01949
2544.53651	0.01944
2543.25074	0.01940
2541.96497	0.01941
2540.67920	0.01942
2539.39343	0.01936
2538.10766	0.01936
2536.82190	0.01948
2535.53613	0.01960
2534.25036	0.01951
2532.96459	0.01921
2531.67882	0.01895
2530.39305	0.01885
2529.10728	0.01884
2527.82151	0.01874
2526.53574	0.01853
2525.24998	0.01831
2523.96421	0.01818
2522.67844	0.01814
2521.39267	0.01813
2520.10690	0.01814
2518.82113	0.01827
2517.53536	0.01860
2516.24959	0.01905
2514.96383	0.01941
2513.67806	0.01946
2512.39229	0.01919
2511.10652	0.01883
2509.82075	0.01865
2508.53498	0.01876
2507.24921	0.01905
2505.96344	0.01931
2504.67767	0.01941
2503.39191	0.01937
2502.10614	0.01932
2500.82037	0.01934
2499.53460	0.01935
2498.24883	0.01922
2496.96306	0.01896
2495.67729	0.01874
2494.39152	0.01869
2493.10576	0.01878
2491.81999	0.01885
2490.53422	0.01873
2489.24845	0.01832
2487.96268	0.01767
2486.67691	0.01699
2485.39114	0.01654
2484.10537	0.01648
2482.81960	0.01675
2481.53384	0.01714
2480.24807	0.01748
2478.96230	0.01771
2477.67653	0.01786
2476.39076	0.01797
2475.10499	0.01811
2473.81922	0.01832
2472.53345	0.01851
2471.24769	0.01850
2469.96192	0.01824
2468.67615	0.01788
2467.39038	0.01760
2466.10461	0.01742
2464.81884	0.01732
2463.53307	0.01736
2462.24730	0.01755
2460.96153	0.01778
2459.67577	0.01784
2458.39000	0.01772
2457.10423	0.01759
2455.81846	0.01764
2454.53269	0.01787
2453.24692	0.01809
2451.96115	0.01820
2450.67538	0.01828
2449.38962	0.01844
2448.10385	0.01866
2446.81808	0.01878
2445.53231	0.01863
2444.24654	0.01826
2442.96077	0.01784
2441.67500	0.01759
2440.38923	0.01755
2439.10346	0.01761
2437.81770	0.01773
2436.53193	0.01786
2435.24616	0.01795
2433.96039	0.01791
2432.67462	0.01776
2431.38885	0.01765
2430.10308	0.01764
2428.81731	0.01763
2427.53155	0.01749
2426.24578	0.01723
2424.96001	0.01701
2423.67424	0.01705
2422.38847	0.01745
2421.10270	0.01805
2419.81693	0.01849
2418.53116	0.01858
2417.24539	0.01846
2415.95963	0.01836
2414.67386	0.01835
2413.38809	0.01833
2412.10232	0.01823
2410.81655	0.01808
2409.53078	0.01787
2408.24501	0.01760
2406.95924	0.01734
2405.67347	0.01727
2404.38771	0.01749
2403.10194	0.01789
2401.81617	0.01820
2400.53040	0.01826
2399.24463	0.01797
2397.95886	0.01778
2396.67309	0.01757
2395.38732	0.01741
2394.10156	0.01740
2392.81579	0.01752
2391.53002	0.01767
2390.24425	0.01775
2388.95848	0.01776
2387.67271	0.01776
2386.38694	0.01780
2385.10117	0.01787
2383.81540	0.01794
2382.52964	0.01801
2381.24387	0.01798
2379.95810	0.01795
2378.67233	0.01794
2377.38656	0.01803
2376.10079	0.01839
2374.81502	0.01882
2373.52925	0.01833
2372.24349	0.01812
2370.95772	0.01824
2369.67195	0.01852
2368.38618	0.01889
2367.10041	0.01926
2365.81464	0.01953
2364.52887	0.01969
2363.24310	0.01976
2361.95733	0.01981
2360.67157	0.01982
2359.38580	0.01973
2358.10003	0.01956
2356.81426	0.01939
2355.52849	0.01926
2354.24272	0.01914
2352.95695	0.01907
2351.67118	0.01889
2350.38542	0.01879
2349.09965	0.01870
2347.81388	0.01856
2346.52811	0.01863
2345.24234	0.01884
2343.95657	0.01912
2342.67080	0.01928
2341.38503	0.01909
2340.09926	0.01920
2338.81350	0.01913
2337.52773	0.01887
2336.24196	0.01902
2334.95619	0.01916
2333.67042	0.01911
2332.38465	0.01899
2331.09888	0.01882
2329.81311	0.01856
2328.52735	0.01824
2327.24158	0.01824
2325.95581	0.01824
2324.67004	0.01798
2323.38427	0.01760
2322.09850	0.01748
2320.81273	0.01734
2319.52696	0.01723
2318.24119	0.01717
2316.95543	0.01707
2315.66966	0.01700
2314.38389	0.01696
2313.09812	0.01689
2311.81235	0.01698
2310.52658	0.01697
2309.24081	0.01671
2307.95504	0.01648
2306.66928	0.01635
2305.38351	0.01621
2304.09774	0.01604
2302.81197	0.01582
2301.52620	0.01564
2300.24043	0.01551
2298.95466	0.01539
2297.66889	0.01525
2296.38312	0.01506
2295.09736	0.01477
2293.81159	0.01433
2292.52582	0.01383
2291.24005	0.01355
2289.95428	0.01369
2288.66851	0.01416
2287.38274	0.01468
2286.09697	0.01499
2284.81121	0.01507
2283.52544	0.01505
2282.23967	0.01501
2280.95390	0.01493
2279.66813	0.01469
2278.38236	0.01426
2277.09659	0.01378
2275.81082	0.01342
2274.52505	0.01332
2273.23929	0.01338
2271.95352	0.01339
2270.66775	0.01322
2269.38198	0.01290
2268.09621	0.01260
2266.81044	0.01258
2265.52467	0.01300
2264.23890	0.01368
2262.95314	0.01420
2261.66737	0.01422
2260.38160	0.01378
2259.09583	0.01317
2257.81006	0.01268
2256.52429	0.01245
2255.23852	0.01251
2253.95275	0.01280
2252.66698	0.01313
2251.38122	0.01330
2250.09545	0.01315
2248.80968	0.01252
2247.52391	0.01178
2246.23814	0.01111
2244.95237	0.01081
2243.66660	0.01101
2242.38083	0.01158
2241.09507	0.01219
2239.80930	0.01255
2238.52353	0.01252
2237.23776	0.01220
2235.95199	0.01186
2234.66622	0.01179
2233.38045	0.01196
2232.09468	0.01205
2230.80891	0.01180
2229.52315	0.01131
2228.23738	0.01081
2226.95161	0.01038
2225.66584	0.00997
2224.38007	0.00962
2223.09430	0.00941
2221.80853	0.00931
2220.52276	0.00921
2219.23700	0.00913
2217.95123	0.00921
2216.66546	0.00941
2215.37969	0.00934
2214.09392	0.00877
2212.80815	0.00799
2211.52238	0.00759
2210.23661	0.00781
2208.95084	0.00841
2207.66508	0.00902
2206.37931	0.00930
2205.09354	0.00911
2203.80777	0.00871
2202.52200	0.00863
2201.23623	0.00915
2199.95046	0.00995
2198.66469	0.01060
2197.37893	0.01096
2196.09316	0.01094
2194.80739	0.01018
2193.52162	0.00860
2192.23585	0.00689
2190.95008	0.00611
2189.66431	0.00668
2188.37854	0.00794
2187.09277	0.00892
2185.80701	0.00910
2184.52124	0.00868
2183.23547	0.00812
2181.94970	0.00774
2180.66393	0.00763
2179.37816	0.00775
2178.09239	0.00797
2176.80662	0.00817
2175.52085	0.00825
2174.23509	0.00819
2172.94932	0.00792
2171.66355	0.00738
2170.37778	0.00660
2169.09201	0.00586
2167.80624	0.00552
2166.52047	0.00573
2165.23470	0.00633
2163.94894	0.00703
2162.66317	0.00757
2161.37740	0.00769
2160.09163	0.00742
2158.80586	0.00724
2157.52009	0.00760
2156.23432	0.00818
2154.94855	0.00828
2153.66278	0.00774
2152.37702	0.00701
2151.09125	0.00647
2149.80548	0.00614
2148.51971	0.00592
2147.23394	0.00589
2145.94817	0.00610
2144.66240	0.00643
2143.37663	0.00666
2142.09087	0.00678
2140.80510	0.00693
2139.51933	0.00722
2138.23356	0.00763
2136.94779	0.00812
2135.66202	0.00875
2134.37625	0.00953
2133.09048	0.01028
2131.80471	0.01075
2130.51895	0.01081
2129.23318	0.01049
2127.94741	0.00999
2126.66164	0.00961
2125.37587	0.00957
2124.09010	0.00987
2122.80433	0.01023
2121.51856	0.01040
2120.23280	0.01036
2118.94703	0.01034
2117.66126	0.01047
2116.37549	0.01068
2115.08972	0.01079
2113.80395	0.01068
2112.51818	0.01041
2111.23241	0.01007
2109.94664	0.00972
2108.66088	0.00949
2107.37511	0.00957
2106.08934	0.00999
2104.80357	0.01057
2103.51780	0.01101
2102.23203	0.01111
2100.94626	0.01114
2099.66049	0.01575
2098.37473	0.01803
2097.08896	0.01793
2095.80319	0.01696
2094.51742	0.01556
2093.23165	0.01405
2091.94588	0.01272
2090.66011	0.01163
2089.37434	0.01068
2088.08857	0.00989
2086.80281	0.00950
2085.51704	0.00966
2084.23127	0.01019
2082.94550	0.01075
2081.65973	0.01122
2080.37396	0.01176
2079.08819	0.01260
2077.80242	0.01366
2076.51666	0.01462
2075.23089	0.01511
2073.94512	0.01500
2072.65935	0.01456
2071.37358	0.01428
2070.08781	0.01431
2068.80204	0.01432
2067.51627	0.01389
2066.23050	0.01294
2064.94474	0.01181
2063.65897	0.01083
2062.37320	0.01020
2061.08743	0.00992
2059.80166	0.00975
2058.51589	0.00936
2057.23012	0.00851
2055.94435	0.00732
2054.65859	0.00624
2053.37282	0.00596
2052.08705	0.00699
2050.80128	0.00922
2049.51551	0.01177
2048.22974	0.01361
2046.94397	0.01422
2045.65820	0.01381
2044.37243	0.01297
2043.08667	0.01224
2041.80090	0.01199
2040.51513	0.01240
2039.22936	0.01350
2037.94359	0.01505
2036.65782	0.01663
2035.37205	0.01774
2034.08628	0.01806
2032.80052	0.01748
2031.51475	0.01626
2030.22898	0.01495
2028.94321	0.01411
2027.65744	0.01390
2026.37167	0.01401
2025.08590	0.01405
2023.80013	0.01391
2022.51436	0.01367
2021.22860	0.01339
2019.94283	0.01294
2018.65706	0.01223
2017.37129	0.01141
2016.08552	0.01095
2014.79975	0.01138
2013.51398	0.01278
2012.22821	0.01469
2010.94245	0.01650
2009.65668	0.01798
2008.37091	0.01909
2007.08514	0.01955
2005.79937	0.01895
2004.51360	0.01724
2003.22783	0.01487
2001.94206	0.01245
2000.65629	0.01047
1999.37053	0.00925
1998.08476	0.00882
1996.79899	0.00891
1995.51322	0.00907
1994.22745	0.00904
1992.94168	0.00879
1991.65591	0.00841
1990.37014	0.00785
1989.08438	0.00713
1987.79861	0.00648
1986.51284	0.00628
1985.22707	0.00681
1983.94130	0.00818
1982.65553	0.01041
1981.36976	0.01344
1980.08399	0.01714
1978.79822	0.02104
1977.51246	0.02422
1976.22669	0.02564
1974.94092	0.02500
1973.65515	0.02306
1972.36938	0.02094
1971.08361	0.01917
1969.79784	0.01760
1968.51207	0.01606
1967.22631	0.01478
1965.94054	0.01417
1964.65477	0.01437
1963.36900	0.01506
1962.08323	0.01572
1960.79746	0.01586
1959.51169	0.01523
1958.22592	0.01388
1956.94015	0.01216
1955.65439	0.01072
1954.36862	0.01015
1953.08285	0.01057
1951.79708	0.01153
1950.51131	0.01245
1949.22554	0.01302
1947.93977	0.01328
1946.65400	0.01335
1945.36823	0.01334
1944.08247	0.01338
1942.79670	0.01366
1941.51093	0.01411
1940.22516	0.01446
1938.93939	0.01453
1937.65362	0.01445
1936.36785	0.01452
1935.08208	0.01475
1933.79632	0.01491
1932.51055	0.01479
1931.22478	0.01443
1929.93901	0.01398
1928.65324	0.01357
1927.36747	0.01325
1926.08170	0.01308
1924.79593	0.01312
1923.51016	0.01330
1922.22440	0.01342
1920.93863	0.01334
1919.65286	0.01312
1918.36709	0.01302
1917.08132	0.01319
1915.79555	0.01354
1914.50978	0.01386
1913.22401	0.01404
1911.93825	0.01412
1910.65248	0.01418
1909.36671	0.01428
1908.08094	0.01448
1906.79517	0.01472
1905.50940	0.01489
1904.22363	0.01491
1902.93786	0.01485
1901.65209	0.01482
1900.36633	0.01485
1899.08056	0.01479
1897.79479	0.01456
1896.50902	0.01424
1895.22325	0.01406
1893.93748	0.01412
1892.65171	0.01431
1891.36594	0.01446
1890.08018	0.01445
1888.79441	0.01432
1887.50864	0.01413
1886.22287	0.01396
1884.93710	0.01383
1883.65133	0.01371
1882.36556	0.01356
1881.07979	0.01342
1879.79402	0.01334
1878.50826	0.01333
1877.22249	0.01336
1875.93672	0.01337
1874.65095	0.01339
1873.36518	0.01342
1872.07941	0.01347
1870.79364	0.01350
1869.50787	0.01352
1868.22211	0.01358
1866.93634	0.01369
1865.65057	0.01374
1864.36480	0.01368
1863.07903	0.01357
1861.79326	0.01354
1860.50749	0.01356
1859.22172	0.01353
1857.93595	0.01335
1856.65019	0.01313
1855.36442	0.01302
1854.07865	0.01308
1852.79288	0.01318
1851.50711	0.01315
1850.22134	0.01293
1848.93557	0.01265
1847.64980	0.01248
1846.36404	0.01246
1845.07827	0.01250
1843.79250	0.01252
1842.50673	0.01246
1841.22096	0.01231
1839.93519	0.01215
1838.64942	0.01204
1837.36365	0.01196
1836.07788	0.01189
1834.79212	0.01186
1833.50635	0.01194
1832.22058	0.01207
1830.93481	0.01223
1829.64904	0.01245
1828.36327	0.01279
1827.07750	0.01321
1825.79173	0.01372
1824.50597	0.01436
1823.22020	0.01509
1821.93443	0.01574
1820.64866	0.01611
1819.36289	0.01600
1818.07712	0.01529
1816.79135	0.01409
1815.50558	0.01272
1814.21981	0.01151
1812.93405	0.01070
1811.64828	0.01032
1810.36251	0.01029
1809.07674	0.01048
1807.79097	0.01071
1806.50520	0.01087
1805.21943	0.01097
1803.93366	0.01105
1802.64790	0.01117
1801.36213	0.01132
1800.07636	0.01144
1798.79059	0.01150
1797.50482	0.01155
1796.21905	0.01162
1794.93328	0.01167
1793.64751	0.01167
1792.36174	0.01171
1791.07598	0.01185
1789.79021	0.01206
1788.50444	0.01222
1787.21867	0.01228
1785.93290	0.01226
1784.64713	0.01225
1783.36136	0.01231
1782.07559	0.01241
1780.78983	0.01250
1779.50406	0.01251
1778.21829	0.01242
1776.93252	0.01222
1775.64675	0.01197
1774.36098	0.01169
1773.07521	0.01143
1771.78944	0.01128
1770.50367	0.01120
1769.21791	0.01110
1767.93214	0.01097
1766.64637	0.01091
1765.36060	0.01088
1764.07483	0.01083
1762.78906	0.01077
1761.50329	0.01075
1760.21752	0.01079
1758.93176	0.01084
1757.64599	0.01089
1756.36022	0.01097
1755.07445	0.01103
1753.78868	0.01100
1752.50291	0.01093
1751.21714	0.01097
1749.93137	0.01117
1748.64560	0.01138
1747.35984	0.01149
1746.07407	0.01156
1744.78830	0.01168
1743.50253	0.01184
1742.21676	0.01202
1740.93099	0.01218
1739.64522	0.01235
1738.35945	0.01255
1737.07369	0.01266
1735.78792	0.01263
1734.50215	0.01262
1733.21638	0.01280
1731.93061	0.01306
1730.64484	0.01317
1729.35907	0.01314
1728.07330	0.01314
1726.78753	0.01320
1725.50177	0.01328
1724.21600	0.01337
1722.93023	0.01353
1721.64446	0.01377
1720.35869	0.01398
1719.07292	0.01412
1717.78715	0.01429
1716.50138	0.01457
1715.21561	0.01490
1713.92985	0.01519
1712.64408	0.01545
1711.35831	0.01576
1710.07254	0.01617
1708.78677	0.01670
1707.50100	0.01727
1706.21523	0.01786
1704.92946	0.01848
1703.64370	0.01915
1702.35793	0.01985
1701.07216	0.02068
1699.78639	0.02179
1698.50062	0.02299
1697.21485	0.02395
1695.92908	0.02478
1694.64331	0.02575
1693.35754	0.02678
1692.07178	0.02764
1690.78601	0.02841
1689.50024	0.02929
1688.21447	0.03031
1686.92870	0.03135
1685.64293	0.03238
1684.35716	0.03350
1683.07139	0.03470
1681.78563	0.03576
1680.49986	0.03666
1679.21409	0.03764
1677.92832	0.03878
1676.64255	0.04000
1675.35678	0.04123
1674.07101	0.04248
1672.78524	0.04370
1671.49947	0.04483
1670.21371	0.04594
1668.92794	0.04713
1667.64217	0.04837
1666.35640	0.04958
1665.07063	0.05071
1663.78486	0.05183
1662.49909	0.05300
1661.21332	0.05416
1659.92756	0.05519
1658.64179	0.05608
1657.35602	0.05692
1656.07025	0.05769
1654.78448	0.05832
1653.49871	0.05897
1652.21294	0.05982
1650.92717	0.06069
1649.64140	0.06125
1648.35564	0.06152
1647.06987	0.06180
1645.78410	0.06224
1644.49833	0.06275
1643.21256	0.06316
1641.92679	0.06346
1640.64102	0.06375
1639.35525	0.06403
1638.06949	0.06420
1636.78372	0.06425
1635.49795	0.06430
1634.21218	0.06443
1632.92641	0.06455
1631.64064	0.06450
1630.35487	0.06428
1629.06910	0.06392
1627.78333	0.06348
1626.49757	0.06295
1625.21180	0.06230
1623.92603	0.06152
1622.64026	0.06066
1621.35449	0.05976
1620.06872	0.05877
1618.78295	0.05767
1617.49718	0.05656
1616.21142	0.05557
1614.92565	0.05465
1613.63988	0.05361
1612.35411	0.05237
1611.06834	0.05108
1609.78257	0.04985
1608.49680	0.04868
1607.21103	0.04758
1605.92526	0.04652
1604.63950	0.04551
1603.35373	0.04454
1602.06796	0.04362
1600.78219	0.04275
1599.49642	0.04195
1598.21065	0.04119
1596.92488	0.04046
1595.63911	0.03977
1594.35335	0.03913
1593.06758	0.03856
1591.78181	0.03804
1590.49604	0.03756
1589.21027	0.03714
1587.92450	0.03683
1586.63873	0.03663
1585.35296	0.03653
1584.06719	0.03647
1582.78143	0.03641
1581.49566	0.03636
1580.20989	0.03635
1578.92412	0.03639
1577.63835	0.03645
1576.35258	0.03665
1575.06681	0.03709
1573.78104	0.03762
1572.49528	0.03808
1571.20951	0.03849
1569.92374	0.03899
1568.63797	0.03961
1567.35220	0.04023
1566.06643	0.04078
1564.78066	0.04130
1563.49489	0.04189
1562.20912	0.04249
1560.92336	0.04305
1559.63759	0.04370
1558.35182	0.04457
1557.06605	0.04551
1555.78028	0.04626
1554.49451	0.04683
1553.20874	0.04741
1551.92297	0.04803
1550.63721	0.04863
1549.35144	0.04921
1548.06567	0.04978
1546.77990	0.05031
1545.49413	0.05079
1544.20836	0.05125
1542.92259	0.05165
1541.63682	0.05193
1540.35105	0.05212
1539.06529	0.05234
1537.77952	0.05260
1536.49375	0.05278
1535.20798	0.05283
1533.92221	0.05291
1532.63644	0.05310
1531.35067	0.05328
1530.06490	0.05333
1528.77914	0.05325
1527.49337	0.05313
1526.20760	0.05307
1524.92183	0.05309
1523.63606	0.05309
1522.35029	0.05304
1521.06452	0.05301
1519.77875	0.05301
1518.49298	0.05293
1517.20722	0.05275
1515.92145	0.05255
1514.63568	0.05232
1513.34991	0.05197
1512.06414	0.05153
1510.77837	0.05107
1509.49260	0.05055
1508.20683	0.04989
1506.92107	0.04915
1505.63530	0.04845
1504.34953	0.04778
1503.06376	0.04700
1501.77799	0.04612
1500.49222	0.04524
1499.20645	0.04439
1497.92068	0.04356
1496.63491	0.04275
1495.34915	0.04201
1494.06338	0.04129
1492.77761	0.04049
1491.49184	0.03962
1490.20607	0.03880
1488.92030	0.03805
1487.63453	0.03735
1486.34876	0.03670
1485.06299	0.03612
1483.77723	0.03561
1482.49146	0.03515
1481.20569	0.03476
1479.91992	0.03447
1478.63415	0.03431
1477.34838	0.03426
1476.06261	0.03429
1474.77684	0.03435
1473.49108	0.03445
1472.20531	0.03462
1470.91954	0.03487
1469.63377	0.03513
1468.34800	0.03540
1467.06223	0.03570
1465.77646	0.03608
1464.49069	0.03656
1463.20492	0.03708
1461.91916	0.03760
1460.63339	0.03809
1459.34762	0.03857
1458.06185	0.03909
1456.77608	0.03972
1455.49031	0.04041
1454.20454	0.04092
1452.91877	0.04113
1451.63301	0.04118
1450.34724	0.04121
1449.06147	0.04124
1447.77570	0.04121
1446.48993	0.04111
1445.20416	0.04093
1443.91839	0.04070
1442.63262	0.04046
1441.34685	0.04020
1440.06109	0.03988
1438.77532	0.03948
1437.48955	0.03905
1436.20378	0.03871
1434.91801	0.03845
1433.63224	0.03816
1432.34647	0.03781
1431.06070	0.03748
1429.77494	0.03723
1428.48917	0.03703
1427.20340	0.03684
1425.91763	0.03662
1424.63186	0.03643
1423.34609	0.03631
1422.06032	0.03623
1420.77455	0.03617
1419.48878	0.03614
1418.20302	0.03616
1416.91725	0.03618
1415.63148	0.03615
1414.34571	0.03607
1413.05994	0.03598
1411.77417	0.03586
1410.48840	0.03574
1409.20263	0.03565
1407.91687	0.03558
1406.63110	0.03552
1405.34533	0.03547
1404.05956	0.03546
1402.77379	0.03549
1401.48802	0.03551
1400.20225	0.03550
1398.91648	0.03546
1397.63071	0.03539
1396.34495	0.03526
1395.05918	0.03511
1393.77341	0.03500
1392.48764	0.03495
1391.20187	0.03494
1389.91610	0.03490
1388.63033	0.03484
1387.34456	0.03477
1386.05880	0.03471
1384.77303	0.03464
1383.48726	0.03455
1382.20149	0.03443
1380.91572	0.03430
1379.62995	0.03415
1378.34418	0.03397
1377.05841	0.03376
1375.77264	0.03352
1374.48688	0.03328
1373.20111	0.03304
1371.91534	0.03283
1370.62957	0.03260
1369.34380	0.03235
1368.05803	0.03209
1366.77226	0.03181
1365.48649	0.03152
1364.20073	0.03122
1362.91496	0.03095
1361.62919	0.03071
1360.34342	0.03048
1359.05765	0.03027
1357.77188	0.03008
1356.48611	0.02993
1355.20034	0.02985
1353.91457	0.02983
1352.62881	0.02986
1351.34304	0.02989
1350.05727	0.02990
1348.77150	0.02989
1347.48573	0.02989
1346.19996	0.02995
1344.91419	0.03005
1343.62842	0.03018
1342.34266	0.03032
1341.05689	0.03045
1339.77112	0.03056
1338.48535	0.03063
1337.19958	0.03067
1335.91381	0.03067
1334.62804	0.03066
1333.34227	0.03064
1332.05650	0.03059
1330.77074	0.03050
1329.48497	0.03037
1328.19920	0.03023
1326.91343	0.03009
1325.62766	0.02994
1324.34189	0.02979
1323.05612	0.02964
1321.77035	0.02950
1320.48459	0.02940
1319.19882	0.02936
1317.91305	0.02937
1316.62728	0.02938
1315.34151	0.02934
1314.05574	0.02924
1312.76997	0.02914
1311.48420	0.02905
1310.19843	0.02899
1308.91267	0.02894
1307.62690	0.02890
1306.34113	0.02887
1305.05536	0.02884
1303.76959	0.02879
1302.48382	0.02872
1301.19805	0.02861
1299.91228	0.02848
1298.62652	0.02840
1297.34075	0.02838
1296.05498	0.02840
1294.76921	0.02843
1293.48344	0.02842
1292.19767	0.02838
1290.91190	0.02837
1289.62613	0.02843
1288.34036	0.02856
1287.05460	0.02872
1285.76883	0.02888
1284.48306	0.02900
1283.19729	0.02911
1281.91152	0.02920
1280.62575	0.02929
1279.33998	0.02938
1278.05421	0.02947
1276.76845	0.02953
1275.48268	0.02953
1274.19691	0.02951
1272.91114	0.02954
1271.62537	0.02962
1270.33960	0.02975
1269.05383	0.02988
1267.76806	0.03003
1266.48229	0.03024
1265.19653	0.03052
1263.91076	0.03082
1262.62499	0.03109
1261.33922	0.03129
1260.05345	0.03141
1258.76768	0.03150
1257.48191	0.03157
1256.19614	0.03168
1254.91037	0.03186
1253.62461	0.03209
1252.33884	0.03234
1251.05307	0.03258
1249.76730	0.03280
1248.48153	0.03303
1247.19576	0.03327
1245.90999	0.03354
1244.62422	0.03383
1243.33846	0.03417
1242.05269	0.03455
1240.76692	0.03491
1239.48115	0.03520
1238.19538	0.03544
1236.90961	0.03561
1235.62384	0.03575
1234.33807	0.03585
1233.05230	0.03593
1231.76654	0.03604
1230.48077	0.03614
1229.19500	0.03619
1227.90923	0.03614
1226.62346	0.03596
1225.33769	0.03569
1224.05192	0.03535
1222.76615	0.03497
1221.48039	0.03459
1220.19462	0.03426
1218.90885	0.03398
1217.62308	0.03372
1216.33731	0.03346
1215.05154	0.03318
1213.76577	0.03293
1212.48000	0.03277
1211.19423	0.03273
1209.90847	0.03277
1208.62270	0.03285
1207.33693	0.03294
1206.05116	0.03304
1204.76539	0.03316
1203.47962	0.03327
1202.19385	0.03332
1200.90808	0.03301
1199.62232	0.03218
1198.33655	0.03197
1197.05078	0.03174
1195.76501	0.03147
1194.47924	0.03124
1193.19347	0.03106
1191.90770	0.03090
1190.62193	0.03069
1189.33616	0.03043
1188.05040	0.03016
1186.76463	0.02991
1185.47886	0.02973
1184.19309	0.02962
1182.90732	0.02955
1181.62155	0.02952
1180.33578	0.02953
1179.05001	0.02957
1177.76425	0.02963
1176.47848	0.02966
1175.19271	0.02964
1173.90694	0.02957
1172.62117	0.02950
1171.33540	0.02949
1170.04963	0.02956
1168.76386	0.02967
1167.47809	0.02980
1166.19233	0.02993
1164.90656	0.03002
1163.62079	0.03006
1162.33502	0.03007
1161.04925	0.03009
1159.76348	0.03015
1158.47771	0.03024
1157.19194	0.03034
1155.90618	0.03038
1154.62041	0.03037
1153.33464	0.03032
1152.04887	0.03027
1150.76310	0.03021
1149.47733	0.03014
1148.19156	0.03006
1146.90579	0.02997
1145.62002	0.02982
1144.33426	0.02963
1143.04849	0.02941
1141.76272	0.02921
1140.47695	0.02908
1139.19118	0.02906
1137.90541	0.02914
1136.61964	0.02926
1135.33387	0.02939
1134.04811	0.02952
1132.76234	0.02964
1131.47657	0.02982
1130.19080	0.03013
1128.90503	0.03061
1127.61926	0.03121
1126.33349	0.03184
1125.04772	0.03244
1123.76195	0.03306
1122.47619	0.03371
1121.19042	0.03443
1119.90465	0.03523
1118.61888	0.03608
1117.33311	0.03699
1116.04734	0.03792
1114.76157	0.03889
1113.47580	0.03983
1112.19004	0.04071
1110.90427	0.04150
1109.61850	0.04226
1108.33273	0.04304
1107.04696	0.04386
1105.76119	0.04473
1104.47542	0.04564
1103.18965	0.04654
1101.90388	0.04734
1100.61812	0.04798
1099.33235	0.04845
1098.04658	0.04885
1096.76081	0.04922
1095.47504	0.04956
1094.18927	0.04983
1092.90350	0.05000
1091.61773	0.05006
1090.33197	0.05005
1089.04620	0.05003
1087.76043	0.05005
1086.47466	0.05012
1085.18889	0.05032
1083.90312	0.05071
1082.61735	0.05138
1081.33158	0.05225
1080.04581	0.05316
1078.76005	0.05399
1077.47428	0.05468
1076.18851	0.05532
1074.90274	0.05596
1073.61697	0.05661
1072.33120	0.05722
1071.04543	0.05776
1069.75966	0.05826
1068.47390	0.05876
1067.18813	0.05932
1065.90236	0.05992
1064.61659	0.06053
1063.33082	0.06113
1062.04505	0.06173
1060.75928	0.06234
1059.47351	0.06293
1058.18774	0.06351
1056.90198	0.06405
1055.61621	0.06461
1054.33044	0.06523
1053.04467	0.06588
1051.75890	0.06650
1050.47313	0.06706
1049.18736	0.06754
1047.90159	0.06802
1046.61583	0.06857
1045.33006	0.06919
1044.04429	0.06985
1042.75852	0.07053
1041.47275	0.07122
1040.18698	0.07196
1038.90121	0.07273
1037.61544	0.07353
1036.32967	0.07437
1035.04391	0.07531
1033.75814	0.07633
1032.47237	0.07731
1031.18660	0.07807
1029.90083	0.07848
1028.61506	0.07851
1027.32929	0.07819
1026.04352	0.07761
1024.75775	0.07684
1023.47199	0.07597
1022.18622	0.07504
1020.90045	0.07403
1019.61468	0.07291
1018.32891	0.07165
1017.04314	0.07030
1015.75737	0.06894
1014.47160	0.06764
1013.18584	0.06638
1011.90007	0.06518
1010.61430	0.06401
1009.32853	0.06292
1008.04276	0.06187
1006.75699	0.06086
1005.47122	0.05985
1004.18545	0.05883
1002.89968	0.05785
1001.61392	0.05693
1000.32815	0.05608
999.04238	0.05527
997.75661	0.05443
996.47084	0.05352
995.18507	0.05258
993.89930	0.05170
992.61353	0.05094
991.32777	0.05030
990.04200	0.04975
988.75623	0.04919
987.47046	0.04857
986.18469	0.04790
984.89892	0.04722
983.61315	0.04660
982.32738	0.04603
981.04161	0.04552
979.75585	0.04502
978.47008	0.04454
977.18431	0.04408
975.89854	0.04364
974.61277	0.04323
973.32700	0.04284
972.04123	0.04252
970.75546	0.04233
969.46970	0.04235
968.18393	0.04254
966.89816	0.04275
965.61239	0.04282
964.32662	0.04267
963.04085	0.04238
961.75508	0.04209
960.46931	0.04184
959.18354	0.04157
957.89778	0.04121
956.61201	0.04070
955.32624	0.04011
954.04047	0.03953
952.75470	0.03906
951.46893	0.03873
950.18316	0.03848
948.89739	0.03825
947.61163	0.03799
946.32586	0.03766
945.04009	0.03727
943.75432	0.03686
942.46855	0.03651
941.18278	0.03630
939.89701	0.03620
938.61124	0.03613
937.32547	0.03600
936.03971	0.03578
934.75394	0.03551
933.46817	0.03521
932.18240	0.03490
930.89663	0.03460
929.61086	0.03431
928.32509	0.03400
927.03932	0.03370
925.75356	0.03344
924.46779	0.03325
923.18202	0.03314
921.89625	0.03305
920.61048	0.03289
919.32471	0.03264
918.03894	0.03229
916.75317	0.03191
915.46740	0.03158
914.18164	0.03134
912.89587	0.03119
911.61010	0.03109
910.32433	0.03096
909.03856	0.03073
907.75279	0.03045
906.46702	0.03020
905.18125	0.03005
903.89549	0.02993
902.60972	0.02974
901.32395	0.02949
900.03818	0.02927
898.75241	0.02912
897.46664	0.02898
896.18087	0.02880
894.89510	0.02862
893.60933	0.02847
892.32357	0.02836
891.03780	0.02825
889.75203	0.02813
888.46626	0.02800
887.18049	0.02782
885.89472	0.02761
884.60895	0.02744
883.32318	0.02740
882.03742	0.02748
880.75165	0.02760
879.46588	0.02770
878.18011	0.02775
876.89434	0.02775
875.60857	0.02772
874.32280	0.02766
873.03703	0.02762
871.75126	0.02760
870.46550	0.02760
869.17973	0.02758
867.89396	0.02749
866.60819	0.02738
865.32242	0.02730
864.03665	0.02721
862.75088	0.02708
861.46511	0.02688
860.17935	0.02670
858.89358	0.02661
857.60781	0.02662
856.32204	0.02670
855.03627	0.02678
853.75050	0.02682
852.46473	0.02678
851.17896	0.02664
849.89319	0.02640
848.60743	0.02609
847.32166	0.02576
846.03589	0.02549
844.75012	0.02527
843.46435	0.02509
842.17858	0.02487
840.89281	0.02460
839.60704	0.02431
838.32128	0.02409
837.03551	0.02400
835.74974	0.02399
834.46397	0.02400
833.17820	0.02397
831.89243	0.02388
830.60666	0.02376
829.32089	0.02363
828.03512	0.02352
826.74936	0.02345
825.46359	0.02344
824.17782	0.02346
822.89205	0.02346
821.60628	0.02340
820.32051	0.02327
819.03474	0.02313
817.74897	0.02308
816.46321	0.02315
815.17744	0.02326
813.89167	0.02333
812.60590	0.02331
811.32013	0.02325
810.03436	0.02323
808.74859	0.02324
807.46282	0.02324
806.17705	0.02324
804.89129	0.02326
803.60552	0.02329
802.31975	0.02328
801.03398	0.02318
799.74821	0.02302
798.46244	0.02283
797.17667	0.02267
795.89090	0.02256
794.60513	0.02250
793.31937	0.02250
792.03360	0.02250
790.74783	0.02246
789.46206	0.02237
788.17629	0.02231
786.89052	0.02232
785.60475	0.02237
784.31898	0.02244
783.03322	0.02250
781.74745	0.02252
780.46168	0.02252
779.17591	0.02250
777.89014	0.02247
776.60437	0.02243
775.31860	0.02242
774.03283	0.02243
772.74706	0.02245
771.46130	0.02245
770.17553	0.02239
768.88976	0.02232
767.60399	0.02228
766.31822	0.02231
765.03245	0.02238
763.74668	0.02247
762.46091	0.02258
761.17515	0.02268
759.88938	0.02274
758.60361	0.02275
757.31784	0.02270
756.03207	0.02261
754.74630	0.02250
753.46053	0.02240
752.17476	0.02238
750.88899	0.02250
749.60323	0.02273
748.31746	0.02295
747.03169	0.02308
745.74592	0.02310
744.46015	0.02309
743.17438	0.02310
741.88861	0.02313
740.60284	0.02312
739.31708	0.02310
738.03131	0.02310
736.74554	0.02315
735.45977	0.02317
734.17400	0.02312
732.88823	0.02301
731.60246	0.02296
730.31669	0.02303
729.03092	0.02319
727.74516	0.02335
726.45939	0.02342
725.17362	0.02339
723.88785	0.02327
722.60208	0.02326
721.31631	0.02334
720.03054	0.02348
718.74477	0.02365
717.45901	0.02379
716.17324	0.02387
714.88747	0.02389
713.60170	0.02387
712.31593	0.02384
711.03016	0.02380
709.74439	0.02377
708.45862	0.02378
707.17285	0.02385
705.88709	0.02395
704.60132	0.02405
703.31555	0.02411
702.02978	0.02413
700.74401	0.02416
699.45824	0.02418
698.17247	0.02420
696.88670	0.02418
695.60094	0.02413
694.31517	0.02409
693.02940	0.02405
691.74363	0.02400
690.45786	0.02395
689.17209	0.02387
687.88632	0.02379
686.60055	0.02372
685.31478	0.02368
684.02902	0.02370
682.74325	0.02375
681.45748	0.02384
680.17171	0.02394
678.88594	0.02402
677.60017	0.02407
676.31440	0.02406
675.02863	0.02404
673.74287	0.02404
672.45710	0.02405
671.17133	0.02406
669.88556	0.02408
668.59979	0.02406
667.31402	0.02401
666.02825	0.02402
664.74248	0.02407
663.45671	0.02417
662.17095	0.02426
660.88518	0.02430
659.59941	0.02427
658.31364	0.02423
657.02787	0.02419
655.74210	0.02417
654.45633	0.02417
653.17056	0.02417
651.88480	0.02421
650.59903	0.02426
649.31326	0.02432
648.02749	0.02435
646.74172	0.02432
645.45595	0.02421
644.17018	0.02405
642.88441	0.02389
641.59864	0.02375
640.31288	0.02368
639.02711	0.02368
637.74134	0.02375
636.45557	0.02388
635.16980	0.02400
633.88403	0.02396
632.59826	0.02361
631.31249	0.02368
630.02673	0.02703
628.74096	0.03215
627.45519	0.02836
626.16942	0.03439
624.88365	0.04701
623.59788	0.05870
622.31211	0.06618
621.02634	0.06794
619.74057	0.06395
618.45481	0.05601
617.16904	0.04682
615.88327	0.03886
614.59750	0.03393
613.31173	0.03311
612.02596	0.03651
610.74019	0.04294
609.45442	0.05006
608.16866	0.05556
606.88289	0.05854
605.59712	0.05952
604.31135	0.05943
603.02558	0.05868
601.73981	0.05713
600.45404	0.05465
599.16827	0.05158
597.88250	0.04857
596.59674	0.04610
595.31097	0.04427
594.02520	0.04293
592.73943	0.04184
591.45366	0.04090
590.16789	0.04011
588.88212	0.03957
587.59635	0.03935
586.31059	0.03948
585.02482	0.03996
583.73905	0.04072
582.45328	0.04168
581.16751	0.04272
579.88174	0.04371
578.59597	0.04459
577.31020	0.04531
576.02443	0.04589
574.73867	0.04641
573.45290	0.04700
572.16713	0.04781
570.88136	0.04891
569.59559	0.05026
568.30982	0.05166
567.02405	0.05280
565.73828	0.05342
564.45251	0.05351
563.16675	0.05320
561.88098	0.05269
560.59521	0.05204
559.30944	0.05126
558.02367	0.05035
556.73790	0.04941
555.45213	0.04851
554.16636	0.04771
552.88060	0.04698
551.59483	0.04626
550.30906	0.04548
549.02329	0.04467
547.73752	0.04391
546.45175	0.04327
545.16598	0.04278
543.88021	0.04236
542.59444	0.04191
541.30868	0.04138
540.02291	0.04079
538.73714	0.04021
537.45137	0.03968
536.16560	0.03924
534.87983	0.03892
533.59406	0.03866
532.30829	0.03841
531.02253	0.03811
529.73676	0.03781
528.45099	0.03759
527.16522	0.03745
525.87945	0.03730
524.59368	0.03702
523.30791	0.03657
522.02214	0.03605
520.73637	0.03560
519.45061	0.03529
518.16484	0.03502
516.87907	0.03466
515.59330	0.03420
514.30753	0.03371
513.02176	0.03328
511.73599	0.03295
510.45022	0.03270
509.16446	0.03248
507.87869	0.03223
506.59292	0.03193
505.30715	0.03161
504.02138	0.03128
502.73561	0.03095
501.44984	0.03059
500.16407	0.03024
498.87830	0.02991
497.59254	0.02964
496.30677	0.02943
495.02100	0.02924
493.73523	0.02905
492.44946	0.02887
491.16369	0.02875
489.87792	0.02868
488.59215	0.02859
487.30639	0.02843
486.02062	0.02822
484.73485	0.02797
483.44908	0.02766
482.16331	0.02727
480.87754	0.02683
479.59177	0.02647
478.30600	0.02630
477.02023	0.02630
475.73447	0.02636
474.44870	0.02642
473.16293	0.02651
471.87716	0.02665
470.59139	0.02679
469.30562	0.02687
468.01985	0.02681
466.73408	0.02663
465.44832	0.02637
464.16255	0.02607
462.87678	0.02576
461.59101	0.02551
460.30524	0.02533
459.01947	0.02518
457.73370	0.02501
456.44793	0.02476
455.16216	0.02445
453.87640	0.02414
452.59063	0.02387
451.30486	0.02363
450.01909	0.02340
448.73332	0.02316
447.44755	0.02296
446.16178	0.02283
444.87601	0.02272
443.59025	0.02259
442.30448	0.02241
441.01871	0.02220
439.73294	0.02201
438.44717	0.02187
437.16140	0.02181
435.87563	0.02182
434.58986	0.02185
433.30409	0.02185
432.01833	0.02178
430.73256	0.02165
429.44679	0.02150
428.16102	0.02138
426.87525	0.02127
425.58948	0.02118
424.30371	0.02107
423.01794	0.02096
421.73218	0.02084
420.44641	0.02071
419.16064	0.02063
417.87487	0.02062
416.58910	0.02063
415.30333	0.02058
414.01756	0.02045
412.73179	0.02028
411.44602	0.02011
410.16026	0.01996
408.87449	0.01984
407.58872	0.01977
406.30295	0.01976
405.01718	0.01977
403.73141	0.01975
402.44564	0.01965
401.15987	0.01949
399.87411	0.01931
