3997.45528	0.03280
3996.16951	0.03209
3994.88374	0.03147
3993.59798	0.03116
3992.31221	0.03119
3991.02644	0.03141
3989.74067	0.03171
3988.45490	0.03205
3987.16913	0.03234
3985.88336	0.03245
3984.59759	0.03228
3983.31183	0.03188
3982.02606	0.03150
3980.74029	0.03145
3979.45452	0.03182
3978.16875	0.03237
3976.88298	0.03275
3975.59721	0.03281
3974.31144	0.03268
3973.02567	0.03251
3971.73991	0.03239
3970.45414	0.03231
3969.16837	0.03232
3967.88260	0.03237
3966.59683	0.03236
3965.31106	0.03221
3964.02529	0.03192
3962.73952	0.03158
3961.45376	0.03127
3960.16799	0.03104
3958.88222	0.03098
3957.59645	0.03118
3956.31068	0.03152
3955.02491	0.03176
3953.73914	0.03173
3952.45337	0.03154
3951.16760	0.03139
3949.88184	0.03140
3948.59607	0.03149
3947.31030	0.03158
3946.02453	0.03172
3944.73876	0.03204
3943.45299	0.03260
3942.16722	0.03316
3940.88145	0.03333
3939.59569	0.03296
3938.30992	0.03224
3937.02415	0.03152
3935.73838	0.03105
3934.45261	0.03087
3933.16684	0.03090
3931.88107	0.03099
3930.59530	0.03101
3929.30953	0.03096
3928.02377	0.03094
3926.73800	0.03104
3925.45223	0.03120
3924.16646	0.03125
3922.88069	0.03114
3921.59492	0.03103
3920.30915	0.03103
3919.02338	0.03101
3917.73762	0.03075
3916.45185	0.03037
3915.16608	0.03024
3913.88031	0.03058
3912.59454	0.03115
3911.30877	0.03155
3910.02300	0.03158
3908.73723	0.03138
3907.45146	0.03123
3906.16570	0.03128
3904.87993	0.03143
3903.59416	0.03145
3902.30839	0.03108
3901.02262	0.03030
3899.73685	0.02938
3898.45108	0.02873
3897.16531	0.02866
3895.87955	0.02914
3894.59378	0.02990
3893.30801	0.03060
3892.02224	0.03102
3890.73647	0.03108
3889.45070	0.03083
3888.16493	0.03042
3886.87916	0.02998
3885.59339	0.02962
3884.30763	0.02948
3883.02186	0.02960
3881.73609	0.02986
3880.45032	0.02997
3879.16455	0.02976
3877.87878	0.02930
3876.59301	0.02895
3875.30724	0.02903
3874.02148	0.02950
3872.73571	0.03003
3871.44994	0.03030
3870.16417	0.03025
3868.87840	0.03006
3867.59263	0.02989
3866.30686	0.02979
3865.02109	0.02972
3863.73532	0.02974
3862.44956	0.02992
3861.16379	0.03023
3859.87802	0.03059
3858.59225	0.03085
3857.30648	0.03090
3856.02071	0.03067
3854.73494	0.03025
3853.44917	0.02982
3852.16341	0.02948
3850.87764	0.02923
3849.59187	0.02903
3848.30610	0.02898
3847.02033	0.02918
3845.73456	0.02955
3844.44879	0.02987
3843.16302	0.03001
3841.87725	0.02994
3840.59149	0.02974
3839.30572	0.02957
3838.01995	0.02959
3836.73418	0.02984
3835.44841	0.03020
3834.16264	0.03046
3832.87687	0.03045
3831.59110	0.03014
3830.30534	0.02972
3829.01957	0.02949
3827.73380	0.02970
3826.44803	0.03027
3825.16226	0.03074
3823.87649	0.03074
3822.59072	0.03032
3821.30495	0.02986
3820.01918	0.02967
3818.73342	0.02970
3817.44765	0.02976
3816.16188	0.02980
3814.87611	0.02988
3813.59034	0.03001
3812.30457	0.03005
3811.01880	0.02985
3809.73303	0.02940
3808.44726	0.02881
3807.16150	0.02833
3805.87573	0.02816
3804.58996	0.02837
3803.30419	0.02883
3802.01842	0.02934
3800.73265	0.02965
3799.44688	0.02962
3798.16111	0.02930
3796.87535	0.02896
3795.58958	0.02889
3794.30381	0.02904
3793.01804	0.02912
3791.73227	0.02889
3790.44650	0.02844
3789.16073	0.02808
3787.87496	0.02806
3786.58919	0.02834
3785.30343	0.02868
3784.01766	0.02883
3782.73189	0.02886
3781.44612	0.02906
3780.16035	0.02955
3778.87458	0.03013
3777.58881	0.03041
3776.30304	0.03026
3775.01728	0.02983
3773.73151	0.02936
3772.44574	0.02897
3771.15997	0.02862
3769.87420	0.02823
3768.58843	0.02793
3767.30266	0.02798
3766.01689	0.02848
3764.73112	0.02920
3763.44536	0.02969
3762.15959	0.02974
3760.87382	0.02948
3759.58805	0.02905
3758.30228	0.02847
3757.01651	0.02772
3755.73074	0.02702
3754.44497	0.02674
3753.15921	0.02711
3751.87344	0.02791
3750.58767	0.02857
3749.30190	0.02862
3748.01613	0.02807
3746.73036	0.02726
3745.44459	0.02657
3744.15882	0.02616
3742.87305	0.02600
3741.58729	0.02595
3740.30152	0.02593
3739.01575	0.02597
3737.72998	0.02621
3736.44421	0.02670
3735.15844	0.02734
3733.87267	0.02796
3732.58690	0.02848
3731.30114	0.02884
3730.01537	0.02892
3728.72960	0.02865
3727.44383	0.02809
3726.15806	0.02753
3724.87229	0.02724
3723.58652	0.02726
3722.30075	0.02736
3721.01498	0.02732
3719.72922	0.02713
3718.44345	0.02698
3717.15768	0.02699
3715.87191	0.02716
3714.58614	0.02744
3713.30037	0.02780
3712.01460	0.02826
3710.72883	0.02874
3709.44307	0.02907
3708.15730	0.02896
3706.87153	0.02828
3705.58576	0.02727
3704.29999	0.02641
3703.01422	0.02604
3701.72845	0.02610
3700.44268	0.02638
3699.15691	0.02674
3697.87115	0.02706
3696.58538	0.02714
3695.29961	0.02688
3694.01384	0.02644
3692.72807	0.02610
3691.44230	0.02608
3690.15653	0.02634
3688.87076	0.02657
3687.58500	0.02657
3686.29923	0.02641
3685.01346	0.02632
3683.72769	0.02636
3682.44192	0.02642
3681.15615	0.02631
3679.87038	0.02610
3678.58461	0.02595
3677.29884	0.02588
3676.01308	0.02578
3674.72731	0.02562
3673.44154	0.02552
3672.15577	0.02559
3670.87000	0.02584
3669.58423	0.02624
3668.29846	0.02673
3667.01269	0.02721
3665.72693	0.02763
3664.44116	0.02798
3663.15539	0.02823
3661.86962	0.02831
3660.58385	0.02833
3659.29808	0.02848
3658.01231	0.02885
3656.72654	0.02929
3655.44077	0.02951
3654.15501	0.02932
3652.86924	0.02873
3651.58347	0.02791
3650.29770	0.02709
3649.01193	0.02653
3647.72616	0.02645
3646.44039	0.02693
3645.15462	0.02779
3643.86886	0.02869
3642.58309	0.02942
3641.29732	0.02993
3640.01155	0.03024
3638.72578	0.03034
3637.44001	0.03025
3636.15424	0.03012
3634.86847	0.03019
3633.58270	0.03058
3632.29694	0.03122
3631.01117	0.03185
3629.72540	0.03223
3628.43963	0.03229
3627.15386	0.03214
3625.86809	0.03199
3624.58232	0.03198
3623.29655	0.03212
3622.01079	0.03230
3620.72502	0.03242
3619.43925	0.03241
3618.15348	0.03231
3616.86771	0.03219
3615.58194	0.03212
3614.29617	0.03213
3613.01040	0.03217
3611.72463	0.03212
3610.43887	0.03192
3609.15310	0.03168
3607.86733	0.03163
3606.58156	0.03196
3605.29579	0.03256
3604.01002	0.03316
3602.72425	0.03355
3601.43848	0.03379
3600.15272	0.03408
3598.86695	0.03455
3597.58118	0.03513
3596.29541	0.03567
3595.00964	0.03604
3593.72387	0.03628
3592.43810	0.03648
3591.15233	0.03658
3589.86656	0.03648
3588.58080	0.03620
3587.29503	0.03601
3586.00926	0.03621
3584.72349	0.03683
3583.43772	0.03747
3582.15195	0.03771
3580.86618	0.03747
3579.58041	0.03705
3578.29464	0.03686
3577.00888	0.03722
3575.72311	0.03810
3574.43734	0.03918
3573.15157	0.04003
3571.86580	0.04037
3570.58003	0.04025
3569.29426	0.03996
3568.00849	0.03983
3566.72273	0.03998
3565.43696	0.04037
3564.15119	0.04087
3562.86542	0.04131
3561.57965	0.04160
3560.29388	0.04174
3559.00811	0.04185
3557.72234	0.04204
3556.43657	0.04232
3555.15081	0.04263
3553.86504	0.04289
3552.57927	0.04306
3551.29350	0.04324
3550.00773	0.04357
3548.72196	0.04412
3547.43619	0.04478
3546.15042	0.04535
3544.86466	0.04565
3543.57889	0.04566
3542.29312	0.04542
3541.00735	0.04503
3539.72158	0.04466
3538.43581	0.04449
3537.15004	0.04466
3535.86427	0.04518
3534.57850	0.04597
3533.29274	0.04690
3532.00697	0.04780
3530.72120	0.04836
3529.43543	0.04838
3528.14966	0.04801
3526.86389	0.04774
3525.57812	0.04790
3524.29235	0.04838
3523.00659	0.04881
3521.72082	0.04899
3520.43505	0.04905
3519.14928	0.04921
3517.86351	0.04949
3516.57774	0.04970
3515.29197	0.04965
3514.00620	0.04941
3512.72043	0.04929
3511.43467	0.04959
3510.14890	0.05036
3508.86313	0.05130
3507.57736	0.05198
3506.29159	0.05216
3505.00582	0.05198
3503.72005	0.05177
3502.43428	0.05181
3501.14852	0.05211
3499.86275	0.05252
3498.57698	0.05288
3497.29121	0.05318
3496.00544	0.05348
3494.71967	0.05382
3493.43390	0.05416
3492.14813	0.05440
3490.86236	0.05453
3489.57660	0.05458
3488.29083	0.05466
3487.00506	0.05487
3485.71929	0.05528
3484.43352	0.05587
3483.14775	0.05646
3481.86198	0.05686
3480.57621	0.05700
3479.29045	0.05701
3478.00468	0.05709
3476.71891	0.05738
3475.43314	0.05779
3474.14737	0.05809
3472.86160	0.05804
3471.57583	0.05761
3470.29006	0.05704
3469.00429	0.05671
3467.71853	0.05676
3466.43276	0.05703
3465.14699	0.05727
3463.86122	0.05752
3462.57545	0.05797
3461.28968	0.05868
3460.00391	0.05944
3458.71814	0.05993
3457.43238	0.06005
3456.14661	0.06001
3454.86084	0.06001
3453.57507	0.06005
3452.28930	0.05998
3451.00353	0.05978
3449.71776	0.05969
3448.43199	0.05991
3447.14622	0.06035
3445.86046	0.06074
3444.57469	0.06094
3443.28892	0.06110
3442.00315	0.06143
3440.71738	0.06195
3439.43161	0.06248
3438.14584	0.06281
3436.86007	0.06278
3435.57431	0.06247
3434.28854	0.06213
3433.00277	0.06207
3431.71700	0.06231
3430.43123	0.06261
3429.14546	0.06283
3427.85969	0.06305
3426.57392	0.06342
3425.28815	0.06383
3424.00239	0.06404
3422.71662	0.06390
3421.43085	0.06360
3420.14508	0.06345
3418.85931	0.06368
3417.57354	0.06428
3416.28777	0.06509
3415.00200	0.06595
3413.71624	0.06673
3412.43047	0.06732
3411.14470	0.06763
3409.85893	0.06766
3408.57316	0.06754
3407.28739	0.06749
3406.00162	0.06765
3404.71585	0.06804
3403.43008	0.06853
3402.14432	0.06903
3400.85855	0.06944
3399.57278	0.06975
3398.28701	0.07001
3397.00124	0.07024
3395.71547	0.07038
3394.42970	0.07037
3393.14393	0.07024
3391.85817	0.07016
3390.57240	0.07032
3389.28663	0.07075
3388.00086	0.07140
3386.71509	0.07209
3385.42932	0.07264
3384.14355	0.07293
3382.85778	0.07299
3381.57201	0.07303
3380.28625	0.07322
3379.00048	0.07358
3377.71471	0.07394
3376.42894	0.07416
3375.14317	0.07418
3373.85740	0.07399
3372.57163	0.07376
3371.28586	0.07367
3370.00010	0.07386
3368.71433	0.07431
3367.42856	0.07490
3366.14279	0.07553
3364.85702	0.07612
3363.57125	0.07656
3362.28548	0.07678
3360.99971	0.07687
3359.71394	0.07704
3358.42818	0.07752
3357.14241	0.07836
3355.85664	0.07939
3354.57087	0.08033
3353.28510	0.08094
3351.99933	0.08117
3350.71356	0.08116
3349.42779	0.08113
3348.14202	0.08131
3346.85626	0.08173
3345.57049	0.08225
3344.28472	0.08274
3342.99895	0.08323
3341.71318	0.08382
3340.42741	0.08448
3339.14164	0.08503
3337.85587	0.08536
3336.57011	0.08559
3335.28434	0.08583
3333.99857	0.08608
3332.71280	0.08623
3331.42703	0.08630
3330.14126	0.08647
3328.85549	0.08689
3327.56972	0.08754
3326.28395	0.08821
3324.99819	0.08871
3323.71242	0.08898
3322.42665	0.08908
3321.14088	0.08913
3319.85511	0.08921
3318.56934	0.08939
3317.28357	0.08964
3315.99780	0.08989
3314.71204	0.09013
3313.42627	0.09039
3312.14050	0.09074
3310.85473	0.09117
3309.56896	0.09162
3308.28319	0.09208
3306.99742	0.09255
3305.71165	0.09304
3304.42588	0.09348
3303.14012	0.09384
3301.85435	0.09417
3300.56858	0.09447
3299.28281	0.09470
3297.99704	0.09478
3296.71127	0.09464
3295.42550	0.09430
3294.13973	0.09393
3292.85397	0.09374
3291.56820	0.09383
3290.28243	0.09417
3288.99666	0.09460
3287.71089	0.09504
3286.42512	0.09545
3285.13935	0.09578
3283.85358	0.09592
3282.56781	0.09573
3281.28205	0.09525
3279.99628	0.09472
3278.71051	0.09444
3277.42474	0.09451
3276.13897	0.09476
3274.85320	0.09499
3273.56743	0.09507
3272.28166	0.09496
3270.99590	0.09466
3269.71013	0.09427
3268.42436	0.09393
3267.13859	0.09372
3265.85282	0.09358
3264.56705	0.09337
3263.28128	0.09304
3261.99551	0.09261
3260.70974	0.09217
3259.42398	0.09182
3258.13821	0.09164
3256.85244	0.09156
3255.56667	0.09144
3254.28090	0.09117
3252.99513	0.09086
3251.70936	0.09071
3250.42359	0.09076
3249.13783	0.09086
3247.85206	0.09076
3246.56629	0.09036
3245.28052	0.08976
3243.99475	0.08919
3242.70898	0.08882
3241.42321	0.08867
3240.13744	0.08864
3238.85167	0.08854
3237.56591	0.08830
3236.28014	0.08793
3234.99437	0.08757
3233.70860	0.08727
3232.42283	0.08707
3231.13706	0.08691
3229.85129	0.08673
3228.56552	0.08653
3227.27976	0.08634
3225.99399	0.08618
3224.70822	0.08604
3223.42245	0.08592
3222.13668	0.08585
3220.85091	0.08591
3219.56514	0.08610
3218.27937	0.08622
3216.99360	0.08602
3215.70784	0.08551
3214.42207	0.08496
3213.13630	0.08465
3211.85053	0.08454
3210.56476	0.08443
3209.27899	0.08421
3207.99322	0.08384
3206.70745	0.08334
3205.42169	0.08280
3204.13592	0.08243
3202.85015	0.08249
3201.56438	0.08301
3200.27861	0.08365
3198.99284	0.08397
3197.70707	0.08379
3196.42130	0.08324
3195.13553	0.08257
3193.84977	0.08200
3192.56400	0.08163
3191.27823	0.08148
3189.99246	0.08143
3188.70669	0.08136
3187.42092	0.08111
3186.13515	0.08061
3184.84938	0.07987
3183.56362	0.07904
3182.27785	0.07840
3180.99208	0.07813
3179.70631	0.07823
3178.42054	0.07844
3177.13477	0.07845
3175.84900	0.07814
3174.56323	0.07771
3173.27746	0.07745
3171.99170	0.07742
3170.70593	0.07743
3169.42016	0.07719
3168.13439	0.07665
3166.84862	0.07602
3165.56285	0.07551
3164.27708	0.07520
3162.99131	0.07496
3161.70555	0.07471
3160.41978	0.07446
3159.13401	0.07427
3157.84824	0.07411
3156.56247	0.07393
3155.27670	0.07373
3153.99093	0.07355
3152.70516	0.07334
3151.41939	0.07303
3150.13363	0.07262
3148.84786	0.07230
3147.56209	0.07225
3146.27632	0.07239
3144.99055	0.07244
3143.70478	0.07224
3142.41901	0.07192
3141.13324	0.07166
3139.84748	0.07148
3138.56171	0.07127
3137.27594	0.07096
3135.99017	0.07058
3134.70440	0.07017
3133.41863	0.06974
3132.13286	0.06937
3130.84709	0.06913
3129.56132	0.06905
3128.27556	0.06906
3126.98979	0.06914
3125.70402	0.06926
3124.41825	0.06928
3123.13248	0.06906
3121.84671	0.06855
3120.56094	0.06785
3119.27517	0.06722
3117.98940	0.06694
3116.70364	0.06708
3115.41787	0.06745
3114.13210	0.06771
3112.84633	0.06766
3111.56056	0.06739
3110.27479	0.06717
3108.98902	0.06718
3107.70325	0.06740
3106.41749	0.06763
3105.13172	0.06767
3103.84595	0.06747
3102.56018	0.06715
3101.27441	0.06696
3099.98864	0.06708
3098.70287	0.06744
3097.41710	0.06780
3096.13133	0.06799
3094.84557	0.06801
3093.55980	0.06797
3092.27403	0.06799
3090.98826	0.06816
3089.70249	0.06858
3088.41672	0.06915
3087.13095	0.06959
3085.84518	0.06964
3084.55942	0.06932
3083.27365	0.06893
3081.98788	0.06879
3080.70211	0.06896
3079.41634	0.06928
3078.13057	0.06954
3076.84480	0.06965
3075.55903	0.06968
3074.27326	0.06975
3072.98750	0.06988
3071.70173	0.06999
3070.41596	0.07000
3069.13019	0.06989
3067.84442	0.06963
3066.55865	0.06925
3065.27288	0.06883
3063.98711	0.06856
3062.70135	0.06858
3061.41558	0.06892
3060.12981	0.06947
3058.84404	0.06997
3057.55827	0.07015
3056.27250	0.06999
3054.98673	0.06965
3053.70096	0.06934
3052.41519	0.06905
3051.12943	0.06864
3049.84366	0.06807
3048.55789	0.06746
3047.27212	0.06697
3045.98635	0.06666
3044.70058	0.06656
3043.41481	0.06660
3042.12904	0.06672
3040.84328	0.06678
3039.55751	0.06672
3038.27174	0.06653
3036.98597	0.06628
3035.70020	0.06603
3034.41443	0.06574
3033.12866	0.06534
3031.84289	0.06480
3030.55712	0.06417
3029.27136	0.06358
3027.98559	0.06319
3026.69982	0.06308
3025.41405	0.06315
3024.12828	0.06323
3022.84251	0.06318
3021.55674	0.06304
3020.27097	0.06291
3018.98521	0.06283
3017.69944	0.06273
3016.41367	0.06256
3015.12790	0.06232
3013.84213	0.06204
3012.55636	0.06176
3011.27059	0.06151
3009.98482	0.06128
3008.69905	0.06111
3007.41329	0.06096
3006.12752	0.06076
3004.84175	0.06046
3003.55598	0.06012
3002.27021	0.05989
3000.98444	0.05985
2999.69867	0.05996
2998.41290	0.06026
2997.12714	0.06052
2995.84137	0.06065
2994.55560	0.06069
2993.26983	0.06069
2991.98406	0.06066
2990.69829	0.06055
2989.41252	0.06040
2988.12675	0.06038
2986.84098	0.06068
2985.55522	0.06126
2984.26945	0.06195
2982.98368	0.06258
2981.69791	0.06307
2980.41214	0.06336
2979.12637	0.06346
2977.84060	0.06343
2976.55483	0.06349
2975.26907	0.06381
2973.98330	0.06436
2972.69753	0.06489
2971.41176	0.06520
2970.12599	0.06529
2968.84022	0.06532
2967.55445	0.06545
2966.26868	0.06579
2964.98291	0.06632
2963.69715	0.06692
2962.41138	0.06740
2961.12561	0.06762
2959.83984	0.06757
2958.55407	0.06744
2957.26830	0.06744
2955.98253	0.06757
2954.69676	0.06763
2953.41100	0.06752
2952.12523	0.06734
2950.83946	0.06733
2949.55369	0.06759
2948.26792	0.06804
2946.98215	0.06851
2945.69638	0.06887
2944.41061	0.06906
2943.12484	0.06914
2941.83908	0.06921
2940.55331	0.06934
2939.26754	0.06949
2937.98177	0.06962
2936.69600	0.06975
2935.41023	0.06992
2934.12446	0.07013
2932.83869	0.07036
2931.55293	0.07059
2930.26716	0.07080
2928.98139	0.07097
2927.69562	0.07105
2926.40985	0.07103
2925.12408	0.07095
2923.83831	0.07084
2922.55254	0.07072
2921.26677	0.07060
2919.98101	0.07044
2918.69524	0.07023
2917.40947	0.06992
2916.12370	0.06951
2914.83793	0.06900
2913.55216	0.06843
2912.26639	0.06778
2910.98062	0.06704
2909.69486	0.06624
2908.40909	0.06551
2907.12332	0.06494
2905.83755	0.06448
2904.55178	0.06405
2903.26601	0.06367
2901.98024	0.06344
2900.69447	0.06343
2899.40870	0.06356
2898.12294	0.06361
2896.83717	0.06342
2895.55140	0.06297
2894.26563	0.06242
2892.97986	0.06197
2891.69409	0.06176
2890.40832	0.06176
2889.12255	0.06186
2887.83678	0.06199
2886.55102	0.06215
2885.26525	0.06232
2883.97948	0.06239
2882.69371	0.06227
2881.40794	0.06200
2880.12217	0.06173
2878.83640	0.06163
2877.55063	0.06167
2876.26487	0.06174
2874.97910	0.06171
2873.69333	0.06161
2872.40756	0.06156
2871.12179	0.06161
2869.83602	0.06167
2868.55025	0.06158
2867.26448	0.06124
2865.97871	0.06077
2864.69295	0.06040
2863.40718	0.06030
2862.12141	0.06037
2860.83564	0.06033
2859.54987	0.06004
2858.26410	0.05960
2856.97833	0.05930
2855.69256	0.05934
2854.40680	0.05968
2853.12103	0.06009
2851.83526	0.06025
2850.54949	0.06001
2849.26372	0.05954
2847.97795	0.05908
2846.69218	0.05868
2845.40641	0.05818
2844.12064	0.05748
2842.83488	0.05675
2841.54911	0.05626
2840.26334	0.05606
2838.97757	0.05597
2837.69180	0.05579
2836.40603	0.05546
2835.12026	0.05508
2833.83449	0.05472
2832.54873	0.05442
2831.26296	0.05414
2829.97719	0.05388
2828.69142	0.05365
2827.40565	0.05347
2826.11988	0.05330
2824.83411	0.05310
2823.54834	0.05290
2822.26257	0.05280
2820.97681	0.05285
2819.69104	0.05299
2818.40527	0.05312
2817.11950	0.05313
2815.83373	0.05294
2814.54796	0.05254
2813.26219	0.05206
2811.97642	0.05173
2810.69066	0.05170
2809.40489	0.05190
2808.11912	0.05209
2806.83335	0.05212
2805.54758	0.05199
2804.26181	0.05180
2802.97604	0.05164
2801.69027	0.05152
2800.40450	0.05143
2799.11874	0.05130
2797.83297	0.05113
2796.54720	0.05091
2795.26143	0.05066
2793.97566	0.05043
2792.68989	0.05030
2791.40412	0.05031
2790.11835	0.05042
2788.83259	0.05051
2787.54682	0.05046
2786.26105	0.05030
2784.97528	0.05012
2783.68951	0.05003
2782.40374	0.05004
2781.11797	0.05008
2779.83220	0.05012
2778.54643	0.05012
2777.26067	0.05003
2775.97490	0.04986
2774.68913	0.04969
2773.40336	0.04958
2772.11759	0.04949
2770.83182	0.04936
2769.54605	0.04915
2768.26028	0.04892
2766.97452	0.04873
2765.68875	0.04859
2764.40298	0.04847
2763.11721	0.04831
2761.83144	0.04809
2760.54567	0.04787
2759.25990	0.04776
2757.97413	0.04776
2756.68836	0.04780
2755.40260	0.04778
2754.11683	0.04769
2752.83106	0.04758
2751.54529	0.04747
2750.25952	0.04737
2748.97375	0.04728
2747.68798	0.04719
2746.40221	0.04707
2745.11645	0.04690
2743.83068	0.04666
2742.54491	0.04640
2741.25914	0.04622
2739.97337	0.04613
2738.68760	0.04606
2737.40183	0.04593
2736.11606	0.04576
2734.83029	0.04568
2733.54453	0.04572
2732.25876	0.04586
2730.97299	0.04601
2729.68722	0.04610
2728.40145	0.04607
2727.11568	0.04588
2725.82991	0.04556
2724.54414	0.04521
2723.25838	0.04497
2721.97261	0.04486
2720.68684	0.04482
2719.40107	0.04479
2718.11530	0.04476
2716.82953	0.04477
2715.54376	0.04483
2714.25799	0.04486
2712.97222	0.04481
2711.68646	0.04467
2710.40069	0.04445
2709.11492	0.04422
2707.82915	0.04408
2706.54338	0.04408
2705.25761	0.04416
2703.97184	0.04418
2702.68607	0.04409
2701.40031	0.04392
2700.11454	0.04371
2698.82877	0.04349
2697.54300	0.04330
2696.25723	0.04320
2694.97146	0.04322
2693.68569	0.04327
2692.39992	0.04330
2691.11415	0.04327
2689.82839	0.04325
2688.54262	0.04332
2687.25685	0.04345
2685.97108	0.04355
2684.68531	0.04350
2683.39954	0.04331
2682.11377	0.04304
2680.82800	0.04279
2679.54224	0.04263
2678.25647	0.04257
2676.97070	0.04257
2675.68493	0.04258
2674.39916	0.04251
2673.11339	0.04236
2671.82762	0.04221
2670.54185	0.04219
2669.25608	0.04236
2667.97032	0.04259
2666.68455	0.04266
2665.39878	0.04248
2664.11301	0.04217
2662.82724	0.04191
2661.54147	0.04180
2660.25570	0.04181
2658.96993	0.04186
2657.68417	0.04193
2656.39840	0.04198
2655.11263	0.04201
2653.82686	0.04201
2652.54109	0.04195
2651.25532	0.04182
2649.96955	0.04159
2648.68378	0.04131
2647.39801	0.04108
2646.11225	0.04095
2644.82648	0.04095
2643.54071	0.04100
2642.25494	0.04100
2640.96917	0.04090
2639.68340	0.04072
2638.39763	0.04049
2637.11186	0.04025
2635.82609	0.04006
2634.54033	0.03991
2633.25456	0.03970
2631.96879	0.03933
2630.68302	0.03885
2629.39725	0.03850
2628.11148	0.03843
2626.82571	0.03858
2625.53994	0.03880
2624.25418	0.03898
2622.96841	0.03909
2621.68264	0.03912
2620.39687	0.03904
2619.11110	0.03888
2617.82533	0.03878
2616.53956	0.03879
2615.25379	0.03875
2613.96802	0.03843
2612.68226	0.03781
2611.39649	0.03720
2610.11072	0.03690
2608.82495	0.03697
2607.53918	0.03719
2606.25341	0.03736
2604.96764	0.03738
2603.68187	0.03729
2602.39611	0.03709
2601.11034	0.03679
2599.82457	0.03648
2598.53880	0.03633
2597.25303	0.03638
2595.96726	0.03649
2594.68149	0.03648
2593.39572	0.03635
2592.10995	0.03621
2590.82419	0.03610
2589.53842	0.03604
2588.25265	0.03604
2586.96688	0.03606
2585.68111	0.03598
2584.39534	0.03574
2583.10957	0.03540
2581.82380	0.03515
2580.53804	0.03512
2579.25227	0.03530
2577.96650	0.03558
2576.68073	0.03581
2575.39496	0.03590
2574.10919	0.03575
2572.82342	0.03530
2571.53765	0.03460
2570.25188	0.03390
2568.96612	0.03351
2567.68035	0.03357
2566.39458	0.03393
2565.10881	0.03429
2563.82304	0.03444
2562.53727	0.03442
2561.25150	0.03440
2559.96573	0.03445
2558.67997	0.03454
2557.39420	0.03458
2556.10843	0.03452
2554.82266	0.03430
2553.53689	0.03396
2552.25112	0.03366
2550.96535	0.03357
2549.67958	0.03366
2548.39381	0.03376
2547.10805	0.03369
2545.82228	0.03350
2544.53651	0.03336
2543.25074	0.03343
2541.96497	0.03370
2540.67920	0.03399
2539.39343	0.03420
2538.10766	0.03433
2536.82190	0.03438
2535.53613	0.03427
2534.25036	0.03388
2532.96459	0.03326
2531.67882	0.03257
2530.39305	0.03208
2529.10728	0.03199
2527.82151	0.03227
2526.53574	0.03270
2525.24998	0.03301
2523.96421	0.03301
2522.67844	0.03273
2521.39267	0.03238
2520.10690	0.03221
2518.82113	0.03241
2517.53536	0.03293
2516.24959	0.03353
2514.96383	0.03388
2513.67806	0.03377
2512.39229	0.03319
2511.10652	0.03243
2509.82075	0.03183
2508.53498	0.03156
2507.24921	0.03153
2505.96344	0.03155
2504.67767	0.03153
2503.39191	0.03151
2502.10614	0.03161
2500.82037	0.03189
2499.53460	0.03221
2498.24883	0.03235
2496.96306	0.03220
2495.67729	0.03191
2494.39152	0.03171
2493.10576	0.03176
2491.81999	0.03199
2490.53422	0.03219
2489.24845	0.03208
2487.96268	0.03154
2486.67691	0.03074
2485.39114	0.03007
2484.10537	0.02989
2482.81960	0.03021
2481.53384	0.03068
2480.24807	0.03103
2478.96230	0.03125
2477.67653	0.03147
2476.39076	0.03170
2475.10499	0.03182
2473.81922	0.03174
2472.53345	0.03152
2471.24769	0.03124
2469.96192	0.03101
2468.67615	0.03092
2467.39038	0.03104
2466.10461	0.03126
2464.81884	0.03137
2463.53307	0.03132
2462.24730	0.03130
2460.96153	0.03146
2459.67577	0.03170
2458.39000	0.03180
2457.10423	0.03168
2455.81846	0.03142
2454.53269	0.03119
2453.24692	0.03104
2451.96115	0.03094
2450.67538	0.03083
2449.38962	0.03070
2448.10385	0.03060
2446.81808	0.03054
2445.53231	0.03053
2444.24654	0.03055
2442.96077	0.03062
2441.67500	0.03079
2440.38923	0.03099
2439.10346	0.03108
2437.81770	0.03098
2436.53193	0.03072
2435.24616	0.03039
2433.96039	0.03007
2432.67462	0.02990
2431.38885	0.02997
2430.10308	0.03016
2428.81731	0.03023
2427.53155	0.03007
2426.24578	0.02983
2424.96001	0.02973
2423.67424	0.02985
2422.38847	0.03009
2421.10270	0.03028
2419.81693	0.03031
2418.53116	0.03021
2417.24539	0.03007
2415.95963	0.02987
2414.67386	0.02960
2413.38809	0.02932
2412.10232	0.02913
2410.81655	0.02905
2409.53078	0.02899
2408.24501	0.02889
2406.95924	0.02875
2405.67347	0.02868
2404.38771	0.02879
2403.10194	0.02910
2401.81617	0.02946
2400.53040	0.02964
2399.24463	0.02942
2397.95886	0.02897
2396.67309	0.02855
2395.38732	0.02838
2394.10156	0.02848
2392.81579	0.02869
2391.53002	0.02890
2390.24425	0.02909
2388.95848	0.02933
2387.67271	0.02959
2386.38694	0.02976
2385.10117	0.02977
2383.81540	0.02958
2382.52964	0.02927
2381.24387	0.02897
2379.95810	0.02884
2378.67233	0.02891
2377.38656	0.02909
2376.10079	0.02930
2374.81502	0.02951
2373.52925	0.02971
2372.24349	0.02988
2370.95772	0.02999
2369.67195	0.03009
2368.38618	0.03023
2367.10041	0.03041
2365.81464	0.03057
2364.52887	0.03072
2363.24310	0.03078
2361.95733	0.03071
2360.67157	0.03050
2359.38580	0.03037
2358.10003	0.03043
2356.81426	0.03061
2355.52849	0.03078
2354.24272	0.03088
2352.95695	0.03084
2351.67118	0.03059
2350.38542	0.03030
2349.09965	0.03023
2347.81388	0.03038
2346.52811	0.03043
2345.24234	0.03051
2343.95657	0.03096
2342.67080	0.03161
2341.38503	0.03163
2340.09926	0.03101
2338.81350	0.03082
2337.52773	0.03116
2336.24196	0.03082
2334.95619	0.03008
2333.67042	0.03028
2332.38465	0.03096
2331.09888	0.03071
2329.81311	0.03034
2328.52735	0.03078
2327.24158	0.03070
2325.95581	0.03029
2324.67004	0.03051
2323.38427	0.03045
2322.09850	0.02995
2320.81273	0.02996
2319.52696	0.02985
2318.24119	0.02951
2316.95543	0.02940
2315.66966	0.02908
2314.38389	0.02874
2313.09812	0.02873
2311.81235	0.02866
2310.52658	0.02857
2309.24081	0.02843
2307.95504	0.02821
2306.66928	0.02812
2305.38351	0.02798
2304.09774	0.02776
2302.81197	0.02754
2301.52620	0.02738
2300.24043	0.02733
2298.95466	0.02724
2297.66889	0.02713
2296.38312	0.02701
2295.09736	0.02688
2293.81159	0.02668
2292.52582	0.02636
2291.24005	0.02606
2289.95428	0.02589
2288.66851	0.02589
2287.38274	0.02596
2286.09697	0.02606
2284.81121	0.02616
2283.52544	0.02627
2282.23967	0.02633
2280.95390	0.02628
2279.66813	0.02609
2278.38236	0.02573
2277.09659	0.02531
2275.81082	0.02505
2274.52505	0.02507
2273.23929	0.02513
2271.95352	0.02485
2270.66775	0.02414
2269.38198	0.02331
2268.09621	0.02275
2266.81044	0.02257
2265.52467	0.02269
2264.23890	0.02301
2262.95314	0.02337
2261.66737	0.02355
2260.38160	0.02341
2259.09583	0.02305
2257.81006	0.02268
2256.52429	0.02252
2255.23852	0.02259
2253.95275	0.02270
2252.66698	0.02264
2251.38122	0.02229
2250.09545	0.02181
2248.80968	0.02149
2247.52391	0.02145
2246.23814	0.02168
2244.95237	0.02204
2243.66660	0.02245
2242.38083	0.02287
2241.09507	0.02315
2239.80930	0.02312
2238.52353	0.02284
2237.23776	0.02257
2235.95199	0.02251
2234.66622	0.02258
2233.38045	0.02247
2232.09468	0.02183
2230.80891	0.02069
2229.52315	0.01951
2228.23738	0.01884
2226.95161	0.01885
2225.66584	0.01923
2224.38007	0.01947
2223.09430	0.01926
2221.80853	0.01875
2220.52276	0.01843
2219.23700	0.01865
2217.95123	0.01923
2216.66546	0.01976
2215.37969	0.01999
2214.09392	0.01995
2212.80815	0.01970
2211.52238	0.01926
2210.23661	0.01878
2208.95084	0.01859
2207.66508	0.01885
2206.37931	0.01930
2205.09354	0.01946
2203.80777	0.01909
2202.52200	0.01848
2201.23623	0.01801
2199.95046	0.01774
2198.66469	0.01758
2197.37893	0.01742
2196.09316	0.01711
2194.80739	0.01639
2193.52162	0.01531
2192.23585	0.01446
2190.95008	0.01451
2189.66431	0.01552
2188.37854	0.01690
2187.09277	0.01810
2185.80701	0.01892
2184.52124	0.01933
2183.23547	0.01921
2181.94970	0.01867
2180.66393	0.01813
2179.37816	0.01787
2178.09239	0.01772
2176.80662	0.01734
2175.52085	0.01683
2174.23509	0.01664
2172.94932	0.01685
2171.66355	0.01702
2170.37778	0.01668
2169.09201	0.01587
2167.80624	0.01504
2166.52047	0.01459
2165.23470	0.01474
2163.94894	0.01543
2162.66317	0.01627
2161.37740	0.01653
2160.09163	0.01569
2158.80586	0.01411
2157.52009	0.01290
2156.23432	0.01278
2154.94855	0.01355
2153.66278	0.01465
2152.37702	0.01576
2151.09125	0.01663
2149.80548	0.01691
2148.51971	0.01653
2147.23394	0.01595
2145.94817	0.01580
2144.66240	0.01608
2143.37663	0.01618
2142.09087	0.01579
2140.80510	0.01535
2139.51933	0.01545
2138.23356	0.01605
2136.94779	0.01654
2135.66202	0.01655
2134.37625	0.01640
2133.09048	0.01664
2131.80471	0.01737
2130.51895	0.01821
2129.23318	0.01864
2127.94741	0.01853
2126.66164	0.01825
2125.37587	0.01825
2124.09010	0.01865
2122.80433	0.01909
2121.51856	0.01924
2120.23280	0.01913
2118.94703	0.01908
2117.66126	0.01936
2116.37549	0.01984
2115.08972	0.02026
2113.80395	0.02045
2112.51818	0.02040
2111.23241	0.02013
2109.94664	0.01960
2108.66088	0.01892
2107.37511	0.01842
2106.08934	0.01837
2104.80357	0.01866
2103.51780	0.01897
2102.23203	0.01911
2100.94626	0.01935
2099.66049	0.02289
2098.37473	0.02482
2097.08896	0.02488
2095.80319	0.02408
2094.51742	0.02280
2093.23165	0.02139
2091.94588	0.02026
2090.66011	0.01957
2089.37434	0.01925
2088.08857	0.01912
2086.80281	0.01910
2085.51704	0.01919
2084.23127	0.01945
2082.94550	0.01983
2081.65973	0.02025
2080.37396	0.02075
2079.08819	0.02143
2077.80242	0.02230
2076.51666	0.02310
2075.23089	0.02347
2073.94512	0.02322
2072.65935	0.02254
2071.37358	0.02185
2070.08781	0.02134
2068.80204	0.02088
2067.51627	0.02031
2066.23050	0.01972
2064.94474	0.01936
2063.65897	0.01936
2062.37320	0.01955
2061.08743	0.01954
2059.80166	0.01898
2058.51589	0.01787
2057.23012	0.01657
2055.94435	0.01552
2054.65859	0.01500
2053.37282	0.01514
2052.08705	0.01604
2050.80128	0.01755
2049.51551	0.01913
2048.22974	0.02019
2046.94397	0.02058
2045.65820	0.02061
2044.37243	0.02059
2043.08667	0.02044
2041.80090	0.01997
2040.51513	0.01938
2039.22936	0.01923
2037.94359	0.01992
2036.65782	0.02122
2035.37205	0.02244
2034.08628	0.02299
2032.80052	0.02279
2031.51475	0.02213
2030.22898	0.02122
2028.94321	0.02007
2027.65744	0.01868
2026.37167	0.01720
2025.08590	0.01593
2023.80013	0.01522
2022.51436	0.01520
2021.22860	0.01563
2019.94283	0.01600
2018.65706	0.01589
2017.37129	0.01540
2016.08552	0.01501
2014.79975	0.01522
2013.51398	0.01618
2012.22821	0.01759
2010.94245	0.01906
2009.65668	0.02035
2008.37091	0.02134
2007.08514	0.02179
2005.79937	0.02139
2004.51360	0.02006
2003.22783	0.01818
2001.94206	0.01644
2000.65629	0.01539
1999.37053	0.01515
1998.08476	0.01548
1996.79899	0.01605
1995.51322	0.01655
1994.22745	0.01675
1992.94168	0.01640
1991.65591	0.01534
1990.37014	0.01378
1989.08438	0.01233
1987.79861	0.01170
1986.51284	0.01217
1985.22707	0.01345
1983.94130	0.01507
1982.65553	0.01680
1981.36976	0.01870
1980.08399	0.02089
1978.79822	0.02315
1977.51246	0.02480
1976.22669	0.02516
1974.94092	0.02425
1973.65515	0.02281
1972.36938	0.02158
1971.08361	0.02061
1969.79784	0.01945
1968.51207	0.01786
1967.22631	0.01632
1965.94054	0.01557
1964.65477	0.01603
1963.36900	0.01734
1962.08323	0.01872
1960.79746	0.01943
1959.51169	0.01916
1958.22592	0.01805
1956.94015	0.01657
1955.65439	0.01536
1954.36862	0.01495
1953.08285	0.01546
1951.79708	0.01651
1950.51131	0.01748
1949.22554	0.01796
1947.93977	0.01803
1946.65400	0.01800
1945.36823	0.01808
1944.08247	0.01831
1942.79670	0.01868
1941.51093	0.01918
1940.22516	0.01969
1938.93939	0.02002
1937.65362	0.02015
1936.36785	0.02022
1935.08208	0.02027
1933.79632	0.02014
1932.51055	0.01972
1931.22478	0.01910
1929.93901	0.01845
1928.65324	0.01785
1927.36747	0.01737
1926.08170	0.01715
1924.79593	0.01730
1923.51016	0.01773
1922.22440	0.01824
1920.93863	0.01867
1919.65286	0.01901
1918.36709	0.01931
1917.08132	0.01956
1915.79555	0.01969
1914.50978	0.01967
1913.22401	0.01956
1911.93825	0.01947
1910.65248	0.01948
1909.36671	0.01957
1908.08094	0.01967
1906.79517	0.01971
1905.50940	0.01970
1904.22363	0.01967
1902.93786	0.01966
1901.65209	0.01969
1900.36633	0.01976
1899.08056	0.01977
1897.79479	0.01962
1896.50902	0.01939
1895.22325	0.01923
1893.93748	0.01919
1892.65171	0.01915
1891.36594	0.01898
1890.08018	0.01873
1888.79441	0.01852
1887.50864	0.01851
1886.22287	0.01872
1884.93710	0.01910
1883.65133	0.01950
1882.36556	0.01973
1881.07979	0.01965
1879.79402	0.01929
1878.50826	0.01887
1877.22249	0.01861
1875.93672	0.01853
1874.65095	0.01857
1873.36518	0.01863
1872.07941	0.01864
1870.79364	0.01853
1869.50787	0.01830
1868.22211	0.01806
1866.93634	0.01800
1865.65057	0.01820
1864.36480	0.01855
1863.07903	0.01885
1861.79326	0.01898
1860.50749	0.01895
1859.22172	0.01877
1857.93595	0.01848
1856.65019	0.01813
1855.36442	0.01782
1854.07865	0.01765
1852.79288	0.01760
1851.50711	0.01761
1850.22134	0.01766
1848.93557	0.01774
1847.64980	0.01782
1846.36404	0.01787
1845.07827	0.01788
1843.79250	0.01787
1842.50673	0.01777
1841.22096	0.01756
1839.93519	0.01730
1838.64942	0.01709
1837.36365	0.01698
1836.07788	0.01691
1834.79212	0.01681
1833.50635	0.01670
1832.22058	0.01669
1830.93481	0.01686
1829.64904	0.01717
1828.36327	0.01748
1827.07750	0.01774
1825.79173	0.01798
1824.50597	0.01830
1823.22020	0.01873
1821.93443	0.01920
1820.64866	0.01954
1819.36289	0.01953
1818.07712	0.01906
1816.79135	0.01821
1815.50558	0.01726
1814.21981	0.01648
1812.93405	0.01597
1811.64828	0.01566
1810.36251	0.01549
1809.07674	0.01545
1807.79097	0.01551
1806.50520	0.01566
1805.21943	0.01584
1803.93366	0.01602
1802.64790	0.01619
1801.36213	0.01630
1800.07636	0.01633
1798.79059	0.01631
1797.50482	0.01630
1796.21905	0.01632
1794.93328	0.01631
1793.64751	0.01623
1792.36174	0.01615
1791.07598	0.01616
1789.79021	0.01631
1788.50444	0.01654
1787.21867	0.01675
1785.93290	0.01682
1784.64713	0.01677
1783.36136	0.01667
1782.07559	0.01659
1780.78983	0.01655
1779.50406	0.01651
1778.21829	0.01641
1776.93252	0.01621
1775.64675	0.01593
1774.36098	0.01564
1773.07521	0.01542
1771.78944	0.01531
1770.50367	0.01528
1769.21791	0.01527
1767.93214	0.01525
1766.64637	0.01523
1765.36060	0.01522
1764.07483	0.01523
1762.78906	0.01524
1761.50329	0.01522
1760.21752	0.01518
1758.93176	0.01519
1757.64599	0.01528
1756.36022	0.01540
1755.07445	0.01547
1753.78868	0.01549
1752.50291	0.01549
1751.21714	0.01556
1749.93137	0.01571
1748.64560	0.01589
1747.35984	0.01607
1746.07407	0.01628
1744.78830	0.01652
1743.50253	0.01675
1742.21676	0.01695
1740.93099	0.01715
1739.64522	0.01738
1738.35945	0.01762
1737.07369	0.01778
1735.78792	0.01785
1734.50215	0.01793
1733.21638	0.01809
1731.93061	0.01833
1730.64484	0.01855
1729.35907	0.01869
1728.07330	0.01880
1726.78753	0.01894
1725.50177	0.01913
1724.21600	0.01934
1722.93023	0.01954
1721.64446	0.01973
1720.35869	0.01992
1719.07292	0.02015
1717.78715	0.02044
1716.50138	0.02078
1715.21561	0.02117
1713.92985	0.02162
1712.64408	0.02213
1711.35831	0.02273
1710.07254	0.02342
1708.78677	0.02418
1707.50100	0.02501
1706.21523	0.02588
1704.92946	0.02683
1703.64370	0.02786
1702.35793	0.02902
1701.07216	0.03033
1699.78639	0.03177
1698.50062	0.03326
1697.21485	0.03479
1695.92908	0.03635
1694.64331	0.03794
1693.35754	0.03956
1692.07178	0.04115
1690.78601	0.04273
1689.50024	0.04430
1688.21447	0.04586
1686.92870	0.04741
1685.64293	0.04900
1684.35716	0.05065
1683.07139	0.05234
1681.78563	0.05407
1680.49986	0.05583
1679.21409	0.05768
1677.92832	0.05962
1676.64255	0.06166
1675.35678	0.06376
1674.07101	0.06586
1672.78524	0.06792
1671.49947	0.06992
1670.21371	0.07188
1668.92794	0.07384
1667.64217	0.07584
1666.35640	0.07788
1665.07063	0.07992
1663.78486	0.08192
1662.49909	0.08389
1661.21332	0.08583
1659.92756	0.08770
1658.64179	0.08942
1657.35602	0.09094
1656.07025	0.09228
1654.78448	0.09355
1653.49871	0.09480
1652.21294	0.09603
1650.92717	0.09716
1649.64140	0.09815
1648.35564	0.09904
1647.06987	0.09989
1645.78410	0.10075
1644.49833	0.10158
1643.21256	0.10232
1641.92679	0.10295
1640.64102	0.10349
1639.35525	0.10396
1638.06949	0.10440
1636.78372	0.10483
1635.49795	0.10526
1634.21218	0.10564
1632.92641	0.10590
1631.64064	0.10597
1630.35487	0.10582
1629.06910	0.10545
1627.78333	0.10488
1626.49757	0.10415
1625.21180	0.10324
1623.92603	0.10212
1622.64026	0.10074
1621.35449	0.09916
1620.06872	0.09745
1618.78295	0.09567
1617.49718	0.09383
1616.21142	0.09195
1614.92565	0.09005
1613.63988	0.08813
1612.35411	0.08618
1611.06834	0.08419
1609.78257	0.08219
1608.49680	0.08024
1607.21103	0.07835
1605.92526	0.07651
1604.63950	0.07472
1603.35373	0.07300
1602.06796	0.07138
1600.78219	0.06986
1599.49642	0.06845
1598.21065	0.06713
1596.92488	0.06590
1595.63911	0.06476
1594.35335	0.06374
1593.06758	0.06284
1591.78181	0.06204
1590.49604	0.06133
1589.21027	0.06070
1587.92450	0.06020
1586.63873	0.05984
1585.35296	0.05957
1584.06719	0.05935
1582.78143	0.05916
1581.49566	0.05901
1580.20989	0.05892
1578.92412	0.05892
1577.63835	0.05908
1576.35258	0.05943
1575.06681	0.06000
1573.78104	0.06073
1572.49528	0.06154
1571.20951	0.06240
1569.92374	0.06332
1568.63797	0.06432
1567.35220	0.06538
1566.06643	0.06648
1564.78066	0.06758
1563.49489	0.06865
1562.20912	0.06969
1560.92336	0.07073
1559.63759	0.07183
1558.35182	0.07305
1557.06605	0.07435
1555.78028	0.07566
1554.49451	0.07692
1553.20874	0.07811
1551.92297	0.07926
1550.63721	0.08037
1549.35144	0.08142
1548.06567	0.08240
1546.77990	0.08329
1545.49413	0.08410
1544.20836	0.08484
1542.92259	0.08548
1541.63682	0.08603
1540.35105	0.08648
1539.06529	0.08690
1537.77952	0.08731
1536.49375	0.08771
1535.20798	0.08809
1533.92221	0.08840
1532.63644	0.08862
1531.35067	0.08873
1530.06490	0.08874
1528.77914	0.08868
1527.49337	0.08862
1526.20760	0.08858
1524.92183	0.08853
1523.63606	0.08844
1522.35029	0.08832
1521.06452	0.08820
1519.77875	0.08809
1518.49298	0.08798
1517.20722	0.08780
1515.92145	0.08751
1514.63568	0.08708
1513.34991	0.08650
1512.06414	0.08578
1510.77837	0.08491
1509.49260	0.08388
1508.20683	0.08270
1506.92107	0.08144
1505.63530	0.08019
1504.34953	0.07898
1503.06376	0.07777
1501.77799	0.07648
1500.49222	0.07510
1499.20645	0.07368
1497.92068	0.07223
1496.63491	0.07076
1495.34915	0.06929
1494.06338	0.06781
1492.77761	0.06634
1491.49184	0.06487
1490.20607	0.06344
1488.92030	0.06205
1487.63453	0.06073
1486.34876	0.05952
1485.06299	0.05842
1483.77723	0.05746
1482.49146	0.05664
1481.20569	0.05597
1479.91992	0.05545
1478.63415	0.05510
1477.34838	0.05490
1476.06261	0.05485
1474.77684	0.05493
1473.49108	0.05512
1472.20531	0.05538
1470.91954	0.05572
1469.63377	0.05613
1468.34800	0.05662
1467.06223	0.05716
1465.77646	0.05773
1464.49069	0.05830
1463.20492	0.05890
1461.91916	0.05953
1460.63339	0.06021
1459.34762	0.06090
1458.06185	0.06158
1456.77608	0.06226
1455.49031	0.06292
1454.20454	0.06356
1452.91877	0.06412
1451.63301	0.06453
1450.34724	0.06477
1449.06147	0.06486
1447.77570	0.06485
1446.48993	0.06475
1445.20416	0.06456
1443.91839	0.06428
1442.63262	0.06393
1441.34685	0.06353
1440.06109	0.06306
1438.77532	0.06252
1437.48955	0.06190
1436.20378	0.06123
1434.91801	0.06055
1433.63224	0.05988
1432.34647	0.05925
1431.06070	0.05867
1429.77494	0.05814
1428.48917	0.05768
1427.20340	0.05730
1425.91763	0.05700
1424.63186	0.05676
1423.34609	0.05656
1422.06032	0.05640
1420.77455	0.05627
1419.48878	0.05619
1418.20302	0.05618
1416.91725	0.05624
1415.63148	0.05636
1414.34571	0.05649
1413.05994	0.05660
1411.77417	0.05671
1410.48840	0.05682
1409.20263	0.05696
1407.91687	0.05709
1406.63110	0.05720
1405.34533	0.05729
1404.05956	0.05738
1402.77379	0.05746
1401.48802	0.05749
1400.20225	0.05748
1398.91648	0.05743
1397.63071	0.05736
1396.34495	0.05729
1395.05918	0.05722
1393.77341	0.05719
1392.48764	0.05721
1391.20187	0.05726
1389.91610	0.05732
1388.63033	0.05734
1387.34456	0.05733
1386.05880	0.05730
1384.77303	0.05726
1383.48726	0.05720
1382.20149	0.05709
1380.91572	0.05694
1379.62995	0.05675
1378.34418	0.05652
1377.05841	0.05623
1375.77264	0.05587
1374.48688	0.05547
1373.20111	0.05505
1371.91534	0.05466
1370.62957	0.05429
1369.34380	0.05392
1368.05803	0.05352
1366.77226	0.05307
1365.48649	0.05257
1364.20073	0.05206
1362.91496	0.05154
1361.62919	0.05105
1360.34342	0.05062
1359.05765	0.05028
1357.77188	0.05003
1356.48611	0.04982
1355.20034	0.04966
1353.91457	0.04954
1352.62881	0.04945
1351.34304	0.04939
1350.05727	0.04936
1348.77150	0.04942
1347.48573	0.04959
1346.19996	0.04984
1344.91419	0.05012
1343.62842	0.05038
1342.34266	0.05060
1341.05689	0.05079
1339.77112	0.05096
1338.48535	0.05109
1337.19958	0.05119
1335.91381	0.05125
1334.62804	0.05128
1333.34227	0.05126
1332.05650	0.05115
1330.77074	0.05094
1329.48497	0.05064
1328.19920	0.05031
1326.91343	0.04999
1325.62766	0.04971
1324.34189	0.04948
1323.05612	0.04929
1321.77035	0.04913
1320.48459	0.04902
1319.19882	0.04897
1317.91305	0.04897
1316.62728	0.04900
1315.34151	0.04899
1314.05574	0.04893
1312.76997	0.04882
1311.48420	0.04869
1310.19843	0.04856
1308.91267	0.04845
1307.62690	0.04836
1306.34113	0.04826
1305.05536	0.04812
1303.76959	0.04795
1302.48382	0.04774
1301.19805	0.04755
1299.91228	0.04741
1298.62652	0.04731
1297.34075	0.04726
1296.05498	0.04723
1294.76921	0.04724
1293.48344	0.04729
1292.19767	0.04738
1290.91190	0.04749
1289.62613	0.04764
1288.34036	0.04782
1287.05460	0.04805
1285.76883	0.04828
1284.48306	0.04846
1283.19729	0.04858
1281.91152	0.04867
1280.62575	0.04877
1279.33998	0.04888
1278.05421	0.04900
1276.76845	0.04909
1275.48268	0.04916
1274.19691	0.04921
1272.91114	0.04927
1271.62537	0.04935
1270.33960	0.04946
1269.05383	0.04960
1267.76806	0.04980
1266.48229	0.05005
1265.19653	0.05033
1263.91076	0.05062
1262.62499	0.05087
1261.33922	0.05110
1260.05345	0.05131
1258.76768	0.05152
1257.48191	0.05177
1256.19614	0.05206
1254.91037	0.05239
1253.62461	0.05277
1252.33884	0.05318
1251.05307	0.05361
1249.76730	0.05406
1248.48153	0.05453
1247.19576	0.05505
1245.90999	0.05560
1244.62422	0.05616
1243.33846	0.05669
1242.05269	0.05717
1240.76692	0.05759
1239.48115	0.05796
1238.19538	0.05831
1236.90961	0.05865
1235.62384	0.05897
1234.33807	0.05922
1233.05230	0.05941
1231.76654	0.05951
1230.48077	0.05953
1229.19500	0.05944
1227.90923	0.05923
1226.62346	0.05892
1225.33769	0.05851
1224.05192	0.05800
1222.76615	0.05743
1221.48039	0.05684
1220.19462	0.05627
1218.90885	0.05577
1217.62308	0.05531
1216.33731	0.05489
1215.05154	0.05451
1213.76577	0.05420
1212.48000	0.05399
1211.19423	0.05387
1209.90847	0.05382
1208.62270	0.05380
1207.33693	0.05381
1206.05116	0.05384
1204.76539	0.05387
1203.47962	0.05391
1202.19385	0.05388
1200.90808	0.05356
1199.62232	0.05285
1198.33655	0.05251
1197.05078	0.05210
1195.76501	0.05163
1194.47924	0.05115
1193.19347	0.05070
1191.90770	0.05031
1190.62193	0.04994
1189.33616	0.04957
1188.05040	0.04919
1186.76463	0.04883
1185.47886	0.04852
1184.19309	0.04828
1182.90732	0.04807
1181.62155	0.04791
1180.33578	0.04779
1179.05001	0.04772
1177.76425	0.04767
1176.47848	0.04763
1175.19271	0.04759
1173.90694	0.04753
1172.62117	0.04741
1171.33540	0.04727
1170.04963	0.04718
1168.76386	0.04718
1167.47809	0.04723
1166.19233	0.04726
1164.90656	0.04723
1163.62079	0.04714
1162.33502	0.04703
1161.04925	0.04693
1159.76348	0.04687
1158.47771	0.04683
1157.19194	0.04675
1155.90618	0.04659
1154.62041	0.04634
1153.33464	0.04604
1152.04887	0.04570
1150.76310	0.04535
1149.47733	0.04499
1148.19156	0.04464
1146.90579	0.04430
1145.62002	0.04393
1144.33426	0.04352
1143.04849	0.04308
1141.76272	0.04266
1140.47695	0.04229
1139.19118	0.04201
1137.90541	0.04180
1136.61964	0.04166
1135.33387	0.04156
1134.04811	0.04148
1132.76234	0.04138
1131.47657	0.04123
1130.19080	0.04108
1128.90503	0.04100
1127.61926	0.04104
1126.33349	0.04112
1125.04772	0.04117
1123.76195	0.04117
1122.47619	0.04111
1121.19042	0.04102
1119.90465	0.04093
1118.61888	0.04086
1117.33311	0.04086
1116.04734	0.04094
1114.76157	0.04106
1113.47580	0.04116
1112.19004	0.04119
1110.90427	0.04119
1109.61850	0.04121
1108.33273	0.04125
1107.04696	0.04134
1105.76119	0.04146
1104.47542	0.04162
1103.18965	0.04180
1101.90388	0.04199
1100.61812	0.04215
1099.33235	0.04232
1098.04658	0.04252
1096.76081	0.04275
1095.47504	0.04300
1094.18927	0.04325
1092.90350	0.04349
1091.61773	0.04374
1090.33197	0.04407
1089.04620	0.04451
1087.76043	0.04499
1086.47466	0.04538
1085.18889	0.04563
1083.90312	0.04587
1082.61735	0.04623
1081.33158	0.04670
1080.04581	0.04714
1078.76005	0.04743
1077.47428	0.04757
1076.18851	0.04759
1074.90274	0.04754
1073.61697	0.04743
1072.33120	0.04732
1071.04543	0.04723
1069.75966	0.04717
1068.47390	0.04713
1067.18813	0.04713
1065.90236	0.04716
1064.61659	0.04721
1063.33082	0.04729
1062.04505	0.04739
1060.75928	0.04750
1059.47351	0.04757
1058.18774	0.04751
1056.90198	0.04734
1055.61621	0.04714
1054.33044	0.04699
1053.04467	0.04687
1051.75890	0.04675
1050.47313	0.04658
1049.18736	0.04639
1047.90159	0.04624
1046.61583	0.04616
1045.33006	0.04613
1044.04429	0.04612
1042.75852	0.04612
1041.47275	0.04609
1040.18698	0.04603
1038.90121	0.04596
1037.61544	0.04593
1036.32967	0.04597
1035.04391	0.04609
1033.75814	0.04623
1032.47237	0.04635
1031.18660	0.04639
1029.90083	0.04634
1028.61506	0.04617
1027.32929	0.04589
1026.04352	0.04552
1024.75775	0.04507
1023.47199	0.04462
1022.18622	0.04423
1020.90045	0.04392
1019.61468	0.04368
1018.32891	0.04344
1017.04314	0.04316
1015.75737	0.04285
1014.47160	0.04253
1013.18584	0.04221
1011.90007	0.04189
1010.61430	0.04154
1009.32853	0.04117
1008.04276	0.04080
1006.75699	0.04044
1005.47122	0.04012
1004.18545	0.03985
1002.89968	0.03961
1001.61392	0.03937
1000.32815	0.03908
999.04238	0.03874
997.75661	0.03838
996.47084	0.03803
995.18507	0.03771
993.89930	0.03739
992.61353	0.03710
991.32777	0.03685
990.04200	0.03668
988.75623	0.03656
987.47046	0.03643
986.18469	0.03624
984.89892	0.03603
983.61315	0.03588
982.32738	0.03580
981.04161	0.03578
979.75585	0.03578
978.47008	0.03579
977.18431	0.03581
975.89854	0.03579
974.61277	0.03567
973.32700	0.03542
972.04123	0.03512
970.75546	0.03489
969.46970	0.03478
968.18393	0.03476
966.89816	0.03473
965.61239	0.03462
964.32662	0.03443
963.04085	0.03423
961.75508	0.03409
960.46931	0.03401
959.18354	0.03392
957.89778	0.03376
956.61201	0.03353
955.32624	0.03327
954.04047	0.03304
952.75470	0.03287
951.46893	0.03276
950.18316	0.03267
948.89739	0.03258
947.61163	0.03249
946.32586	0.03244
945.04009	0.03241
943.75432	0.03234
942.46855	0.03221
941.18278	0.03209
939.89701	0.03204
938.61124	0.03206
937.32547	0.03209
936.03971	0.03209
934.75394	0.03204
933.46817	0.03196
932.18240	0.03187
930.89663	0.03180
929.61086	0.03175
928.32509	0.03170
927.03932	0.03163
925.75356	0.03156
924.46779	0.03157
923.18202	0.03163
921.89625	0.03163
920.61048	0.03148
919.32471	0.03122
918.03894	0.03093
916.75317	0.03067
915.46740	0.03043
914.18164	0.03019
912.89587	0.02998
911.61010	0.02983
910.32433	0.02974
909.03856	0.02966
907.75279	0.02962
906.46702	0.02965
905.18125	0.02972
903.89549	0.02972
902.60972	0.02956
901.32395	0.02929
900.03818	0.02906
898.75241	0.02893
897.46664	0.02887
896.18087	0.02876
894.89510	0.02857
893.60933	0.02839
892.32357	0.02833
891.03780	0.02842
889.75203	0.02856
888.46626	0.02857
887.18049	0.02836
885.89472	0.02805
884.60895	0.02783
883.32318	0.02784
882.03742	0.02800
880.75165	0.02818
879.46588	0.02829
878.18011	0.02831
876.89434	0.02824
875.60857	0.02808
874.32280	0.02789
873.03703	0.02772
871.75126	0.02758
870.46550	0.02749
869.17973	0.02739
867.89396	0.02726
866.60819	0.02714
865.32242	0.02705
864.03665	0.02701
862.75088	0.02696
861.46511	0.02686
860.17935	0.02672
858.89358	0.02659
857.60781	0.02654
856.32204	0.02657
855.03627	0.02668
853.75050	0.02681
852.46473	0.02693
851.17896	0.02700
849.89319	0.02700
848.60743	0.02694
847.32166	0.02682
846.03589	0.02664
844.75012	0.02645
843.46435	0.02628
842.17858	0.02616
840.89281	0.02607
839.60704	0.02603
838.32128	0.02604
837.03551	0.02611
835.74974	0.02618
834.46397	0.02620
833.17820	0.02613
831.89243	0.02606
830.60666	0.02604
829.32089	0.02611
828.03512	0.02621
826.74936	0.02627
825.46359	0.02626
824.17782	0.02625
822.89205	0.02630
821.60628	0.02643
820.32051	0.02658
819.03474	0.02671
817.74897	0.02681
816.46321	0.02689
815.17744	0.02694
813.89167	0.02696
812.60590	0.02696
811.32013	0.02697
810.03436	0.02700
808.74859	0.02705
807.46282	0.02710
806.17705	0.02714
804.89129	0.02717
803.60552	0.02720
802.31975	0.02725
801.03398	0.02736
799.74821	0.02751
798.46244	0.02767
797.17667	0.02779
795.89090	0.02782
794.60513	0.02781
793.31937	0.02780
792.03360	0.02787
790.74783	0.02796
789.46206	0.02802
788.17629	0.02804
786.89052	0.02803
785.60475	0.02801
784.31898	0.02801
783.03322	0.02806
781.74745	0.02816
780.46168	0.02828
779.17591	0.02839
777.89014	0.02851
776.60437	0.02861
775.31860	0.02869
774.03283	0.02870
772.74706	0.02866
771.46130	0.02862
770.17553	0.02868
768.88976	0.02886
767.60399	0.02911
766.31822	0.02932
765.03245	0.02946
763.74668	0.02958
762.46091	0.02971
761.17515	0.02982
759.88938	0.02986
758.60361	0.02985
757.31784	0.02981
756.03207	0.02979
754.74630	0.02984
753.46053	0.02999
752.17476	0.03021
750.88899	0.03045
749.60323	0.03062
748.31746	0.03070
747.03169	0.03070
745.74592	0.03069
744.46015	0.03071
743.17438	0.03083
741.88861	0.03105
740.60284	0.03126
739.31708	0.03135
738.03131	0.03131
736.74554	0.03126
735.45977	0.03127
734.17400	0.03134
732.88823	0.03146
731.60246	0.03163
730.31669	0.03181
729.03092	0.03194
727.74516	0.03199
726.45939	0.03198
725.17362	0.03194
723.88785	0.03189
722.60208	0.03194
721.31631	0.03212
720.03054	0.03240
718.74477	0.03271
717.45901	0.03297
716.17324	0.03311
714.88747	0.03315
713.60170	0.03317
712.31593	0.03324
711.03016	0.03337
709.74439	0.03355
708.45862	0.03372
707.17285	0.03387
705.88709	0.03401
704.60132	0.03413
703.31555	0.03424
702.02978	0.03436
700.74401	0.03451
699.45824	0.03467
698.17247	0.03481
696.88670	0.03491
695.60094	0.03497
694.31517	0.03501
693.02940	0.03503
691.74363	0.03505
690.45786	0.03503
689.17209	0.03502
687.88632	0.03503
686.60055	0.03508
685.31478	0.03517
684.02902	0.03526
682.74325	0.03536
681.45748	0.03546
680.17171	0.03558
678.88594	0.03566
677.60017	0.03570
676.31440	0.03572
675.02863	0.03579
673.74287	0.03591
672.45710	0.03603
671.17133	0.03610
669.88556	0.03613
668.59979	0.03619
667.31402	0.03630
666.02825	0.03639
664.74248	0.03652
663.45671	0.03666
662.17095	0.03678
660.88518	0.03684
659.59941	0.03683
658.31364	0.03681
657.02787	0.03688
655.74210	0.03707
654.45633	0.03730
653.17056	0.03747
651.88480	0.03753
650.59903	0.03753
649.31326	0.03755
648.02749	0.03761
646.74172	0.03768
645.45595	0.03770
644.17018	0.03764
642.88441	0.03754
641.59864	0.03747
640.31288	0.03748
639.02711	0.03754
637.74134	0.03763
636.45557	0.03771
635.16980	0.03780
633.88403	0.03785
632.59826	0.03777
631.31249	0.03794
630.02673	0.04026
628.74096	0.04384
627.45519	0.04121
626.16942	0.04498
624.88365	0.05287
623.59788	0.05986
622.31211	0.06399
621.02634	0.06444
619.74057	0.06130
618.45481	0.05594
617.16904	0.05028
615.88327	0.04564
614.59750	0.04245
613.31173	0.04082
612.02596	0.04088
610.74019	0.04261
609.45442	0.04546
608.16866	0.04848
606.88289	0.05077
605.59712	0.05188
604.31135	0.05177
603.02558	0.05076
601.73981	0.04932
600.45404	0.04784
599.16827	0.04652
597.88250	0.04543
596.59674	0.04460
595.31097	0.04398
594.02520	0.04348
592.73943	0.04304
591.45366	0.04266
590.16789	0.04243
588.88212	0.04241
587.59635	0.04257
586.31059	0.04281
585.02482	0.04304
583.73905	0.04323
582.45328	0.04335
581.16751	0.04336
579.88174	0.04325
578.59597	0.04304
577.31020	0.04281
576.02443	0.04269
574.73867	0.04277
573.45290	0.04310
572.16713	0.04366
570.88136	0.04432
569.59559	0.04496
568.30982	0.04547
567.02405	0.04573
565.73828	0.04572
564.45251	0.04548
563.16675	0.04515
561.88098	0.04481
560.59521	0.04448
559.30944	0.04412
558.02367	0.04377
556.73790	0.04346
555.45213	0.04322
554.16636	0.04297
552.88060	0.04267
551.59483	0.04235
550.30906	0.04208
549.02329	0.04194
547.73752	0.04195
546.45175	0.04210
545.16598	0.04232
543.88021	0.04247
542.59444	0.04243
541.30868	0.04218
540.02291	0.04183
538.73714	0.04153
537.45137	0.04136
536.16560	0.04126
534.87983	0.04120
533.59406	0.04119
532.30829	0.04123
531.02253	0.04132
529.73676	0.04144
528.45099	0.04158
527.16522	0.04171
525.87945	0.04177
524.59368	0.04170
523.30791	0.04148
522.02214	0.04121
520.73637	0.04101
519.45061	0.04091
518.16484	0.04085
516.87907	0.04076
515.59330	0.04063
514.30753	0.04048
513.02176	0.04031
511.73599	0.04012
510.45022	0.03993
509.16446	0.03979
507.87869	0.03971
506.59292	0.03967
505.30715	0.03960
504.02138	0.03942
502.73561	0.03914
501.44984	0.03885
500.16407	0.03864
498.87830	0.03845
497.59254	0.03819
496.30677	0.03784
495.02100	0.03747
493.73523	0.03721
492.44946	0.03716
491.16369	0.03728
489.87792	0.03745
488.59215	0.03749
487.30639	0.03733
486.02062	0.03702
484.73485	0.03671
483.44908	0.03648
482.16331	0.03632
480.87754	0.03622
479.59177	0.03617
478.30600	0.03614
477.02023	0.03609
475.73447	0.03597
474.44870	0.03576
473.16293	0.03551
471.87716	0.03528
470.59139	0.03512
469.30562	0.03506
468.01985	0.03504
466.73408	0.03500
465.44832	0.03487
464.16255	0.03468
462.87678	0.03450
461.59101	0.03437
460.30524	0.03428
459.01947	0.03420
457.73370	0.03409
456.44793	0.03397
455.16216	0.03386
453.87640	0.03376
452.59063	0.03362
451.30486	0.03339
450.01909	0.03309
448.73332	0.03282
447.44755	0.03264
446.16178	0.03252
444.87601	0.03241
443.59025	0.03228
442.30448	0.03213
441.01871	0.03200
439.73294	0.03190
438.44717	0.03184
437.16140	0.03182
435.87563	0.03185
434.58986	0.03190
433.30409	0.03191
432.01833	0.03184
430.73256	0.03167
429.44679	0.03144
428.16102	0.03124
426.87525	0.03107
425.58948	0.03094
424.30371	0.03083
423.01794	0.03071
421.73218	0.03059
420.44641	0.03047
419.16064	0.03034
417.87487	0.03022
416.58910	0.03012
415.30333	0.03000
414.01756	0.02988
412.73179	0.02976
411.44602	0.02965
410.16026	0.02952
408.87449	0.02938
407.58872	0.02925
406.30295	0.02917
405.01718	0.02910
403.73141	0.02903
402.44564	0.02891
401.15987	0.02877
399.87411	0.02862
