3997.45528	0.02532
3996.16951	0.02479
3994.88374	0.02395
3993.59798	0.02290
3992.31221	0.02211
3991.02644	0.02193
3989.74067	0.02229
3988.45490	0.02282
3987.16913	0.02320
3985.88336	0.02350
3984.59759	0.02395
3983.31183	0.02450
3982.02606	0.02481
3980.74029	0.02473
3979.45452	0.02459
3978.16875	0.02483
3976.88298	0.02540
3975.59721	0.02578
3974.31144	0.02547
3973.02567	0.02442
3971.73991	0.02300
3970.45414	0.02170
3969.16837	0.02092
3967.88260	0.02080
3966.59683	0.02121
3965.31106	0.02177
3964.02529	0.02210
3962.73952	0.02211
3961.45376	0.02209
3960.16799	0.02241
3958.88222	0.02303
3957.59645	0.02357
3956.31068	0.02367
3955.02491	0.02332
3953.73914	0.02275
3952.45337	0.02216
3951.16760	0.02165
3949.88184	0.02132
3948.59607	0.02134
3947.31030	0.02179
3946.02453	0.02241
3944.73876	0.02275
3943.45299	0.02262
3942.16722	0.02234
3940.88145	0.02233
3939.59569	0.02266
3938.30992	0.02308
3937.02415	0.02338
3935.73838	0.02352
3934.45261	0.02351
3933.16684	0.02335
3931.88107	0.02311
3930.59530	0.02296
3929.30953	0.02307
3928.02377	0.02336
3926.73800	0.02354
3925.45223	0.02338
3924.16646	0.02292
3922.88069	0.02246
3921.59492	0.02222
3920.30915	0.02214
3919.02338	0.02201
3917.73762	0.02170
3916.45185	0.02132
3915.16608	0.02108
3913.88031	0.02105
3912.59454	0.02122
3911.30877	0.02153
3910.02300	0.02191
3908.73723	0.02211
3907.45146	0.02190
3906.16570	0.02125
3904.87993	0.02056
3903.59416	0.02036
3902.30839	0.02087
3901.02262	0.02179
3899.73685	0.02262
3898.45108	0.02299
3897.16531	0.02288
3895.87955	0.02256
3894.59378	0.02224
3893.30801	0.02194
3892.02224	0.02173
3890.73647	0.02192
3889.45070	0.02263
3888.16493	0.02343
3886.87916	0.02374
3885.59339	0.02349
3884.30763	0.02310
3883.02186	0.02293
3881.73609	0.02297
3880.45032	0.02299
3879.16455	0.02290
3877.87878	0.02283
3876.59301	0.02298
3875.30724	0.02341
3874.02148	0.02393
3872.73571	0.02416
3871.44994	0.02382
3870.16417	0.02317
3868.87840	0.02280
3867.59263	0.02295
3866.30686	0.02335
3865.02109	0.02366
3863.73532	0.02371
3862.44956	0.02351
3861.16379	0.02319
3859.87802	0.02295
3858.59225	0.02295
3857.30648	0.02308
3856.02071	0.02303
3854.73494	0.02265
3853.44917	0.02221
3852.16341	0.02203
3850.87764	0.02209
3849.59187	0.02223
3848.30610	0.02237
3847.02033	0.02240
3845.73456	0.02224
3844.44879	0.02196
3843.16302	0.02183
3841.87725	0.02197
3840.59149	0.02209
3839.30572	0.02187
3838.01995	0.02141
3836.73418	0.02112
3835.44841	0.02121
3834.16264	0.02156
3832.87687	0.02193
3831.59110	0.02208
3830.30534	0.02181
3829.01957	0.02119
3827.73380	0.02059
3826.44803	0.02041
3825.16226	0.02051
3823.87649	0.02028
3822.59072	0.01942
3821.30495	0.01841
3820.01918	0.01795
3818.73342	0.01810
3817.44765	0.01846
3816.16188	0.01889
3814.87611	0.01944
3813.59034	0.02008
3812.30457	0.02079
3811.01880	0.02151
3809.73303	0.02197
3808.44726	0.02193
3807.16150	0.02158
3805.87573	0.02125
3804.58996	0.02079
3803.30419	0.01993
3802.01842	0.01898
3800.73265	0.01871
3799.44688	0.01937
3798.16111	0.02039
3796.87535	0.02100
3795.58958	0.02095
3794.30381	0.02042
3793.01804	0.01984
3791.73227	0.01948
3790.44650	0.01941
3789.16073	0.01959
3787.87496	0.02000
3786.58919	0.02048
3785.30343	0.02073
3784.01766	0.02061
3782.73189	0.02030
3781.44612	0.02019
3780.16035	0.02055
3778.87458	0.02125
3777.58881	0.02178
3776.30304	0.02176
3775.01728	0.02124
3773.73151	0.02065
3772.44574	0.02032
3771.15997	0.02032
3769.87420	0.02050
3768.58843	0.02068
3767.30266	0.02071
3766.01689	0.02060
3764.73112	0.02046
3763.44536	0.02047
3762.15959	0.02069
3760.87382	0.02101
3759.58805	0.02119
3758.30228	0.02118
3757.01651	0.02126
3755.73074	0.02164
3754.44497	0.02198
3753.15921	0.02176
3751.87344	0.02097
3750.58767	0.02019
3749.30190	0.02000
3748.01613	0.02038
3746.73036	0.02059
3745.44459	0.02022
3744.15882	0.01970
3742.87305	0.01946
3741.58729	0.01939
3740.30152	0.01929
3739.01575	0.01917
3737.72998	0.01908
3736.44421	0.01902
3735.15844	0.01897
3733.87267	0.01887
3732.58690	0.01878
3731.30114	0.01899
3730.01537	0.01957
3728.72960	0.02017
3727.44383	0.02044
3726.15806	0.02042
3724.87229	0.02040
3723.58652	0.02053
3722.30075	0.02073
3721.01498	0.02083
3719.72922	0.02070
3718.44345	0.02034
3717.15768	0.01990
3715.87191	0.01962
3714.58614	0.01955
3713.30037	0.01951
3712.01460	0.01930
3710.72883	0.01893
3709.44307	0.01862
3708.15730	0.01863
3706.87153	0.01899
3705.58576	0.01950
3704.29999	0.02003
3703.01422	0.02048
3701.72845	0.02080
3700.44268	0.02097
3699.15691	0.02094
3697.87115	0.02060
3696.58538	0.02004
3695.29961	0.01970
3694.01384	0.01989
3692.72807	0.02045
3691.44230	0.02084
3690.15653	0.02065
3688.87076	0.01998
3687.58500	0.01925
3686.29923	0.01881
3685.01346	0.01857
3683.72769	0.01842
3682.44192	0.01841
3681.15615	0.01866
3679.87038	0.01918
3678.58461	0.01967
3677.29884	0.01975
3676.01308	0.01964
3674.72731	0.01990
3673.44154	0.02060
3672.15577	0.02110
3670.87000	0.02096
3669.58423	0.02037
3668.29846	0.01970
3667.01269	0.01915
3665.72693	0.01889
3664.44116	0.01912
3663.15539	0.01989
3661.86962	0.02089
3660.58385	0.02160
3659.29808	0.02170
3658.01231	0.02132
3656.72654	0.02086
3655.44077	0.02056
3654.15501	0.02024
3652.86924	0.01965
3651.58347	0.01894
3650.29770	0.01859
3649.01193	0.01880
3647.72616	0.01935
3646.44039	0.01990
3645.15462	0.02037
3643.86886	0.02086
3642.58309	0.02144
3641.29732	0.02213
3640.01155	0.02284
3638.72578	0.02336
3637.44001	0.02347
3636.15424	0.02324
3634.86847	0.02305
3633.58270	0.02327
3632.29694	0.02377
3631.01117	0.02403
3629.72540	0.02389
3628.43963	0.02377
3627.15386	0.02408
3625.86809	0.02471
3624.58232	0.02527
3623.29655	0.02548
3622.01079	0.02532
3620.72502	0.02493
3619.43925	0.02453
3618.15348	0.02430
3616.86771	0.02422
3615.58194	0.02420
3614.29617	0.02428
3613.01040	0.02460
3611.72463	0.02513
3610.43887	0.02568
3609.15310	0.02620
3607.86733	0.02691
3606.58156	0.02782
3605.29579	0.02862
3604.01002	0.02903
3602.72425	0.02913
3601.43848	0.02923
3600.15272	0.02938
3598.86695	0.02939
3597.58118	0.02899
3596.29541	0.02820
3595.00964	0.02737
3593.72387	0.02698
3592.43810	0.02707
3591.15233	0.02729
3589.86656	0.02732
3588.58080	0.02719
3587.29503	0.02714
3586.00926	0.02736
3584.72349	0.02781
3583.43772	0.02832
3582.15195	0.02884
3580.86618	0.02948
3579.58041	0.03031
3578.29464	0.03131
3577.00888	0.03233
3575.72311	0.03310
3574.43734	0.03341
3573.15157	0.03329
3571.86580	0.03304
3570.58003	0.03292
3569.29426	0.03298
3568.00849	0.03316
3566.72273	0.03341
3565.43696	0.03369
3564.15119	0.03392
3562.86542	0.03404
3561.57965	0.03399
3560.29388	0.03382
3559.00811	0.03358
3557.72234	0.03330
3556.43657	0.03302
3555.15081	0.03281
3553.86504	0.03275
3552.57927	0.03290
3551.29350	0.03323
3550.00773	0.03367
3548.72196	0.03414
3547.43619	0.03467
3546.15042	0.03531
3544.86466	0.03605
3543.57889	0.03678
3542.29312	0.03737
3541.00735	0.03780
3539.72158	0.03814
3538.43581	0.03841
3537.15004	0.03851
3535.86427	0.03849
3534.57850	0.03849
3533.29274	0.03865
3532.00697	0.03890
3530.72120	0.03910
3529.43543	0.03923
3528.14966	0.03937
3526.86389	0.03957
3525.57812	0.03977
3524.29235	0.03985
3523.00659	0.03972
3521.72082	0.03949
3520.43505	0.03938
3519.14928	0.03945
3517.86351	0.03952
3516.57774	0.03941
3515.29197	0.03920
3514.00620	0.03912
3512.72043	0.03928
3511.43467	0.03957
3510.14890	0.03989
3508.86313	0.04022
3507.57736	0.04050
3506.29159	0.04053
3505.00582	0.04032
3503.72005	0.04020
3502.43428	0.04048
3501.14852	0.04103
3499.86275	0.04143
3498.57698	0.04146
3497.29121	0.04138
3496.00544	0.04156
3494.71967	0.04206
3493.43390	0.04260
3492.14813	0.04291
3490.86236	0.04296
3489.57660	0.04287
3488.29083	0.04281
3487.00506	0.04284
3485.71929	0.04301
3484.43352	0.04338
3483.14775	0.04403
3481.86198	0.04488
3480.57621	0.04578
3479.29045	0.04653
3478.00468	0.04703
3476.71891	0.04724
3475.43314	0.04716
3474.14737	0.04680
3472.86160	0.04628
3471.57583	0.04587
3470.29006	0.04580
3469.00429	0.04608
3467.71853	0.04655
3466.43276	0.04702
3465.14699	0.04742
3463.86122	0.04774
3462.57545	0.04803
3461.28968	0.04835
3460.00391	0.04866
3458.71814	0.04872
3457.43238	0.04835
3456.14661	0.04769
3454.86084	0.04719
3453.57507	0.04725
3452.28930	0.04785
3451.00353	0.04862
3449.71776	0.04916
3448.43199	0.04928
3447.14622	0.04909
3445.86046	0.04892
3444.57469	0.04903
3443.28892	0.04942
3442.00315	0.04981
3440.71738	0.04994
3439.43161	0.04983
3438.14584	0.04973
3436.86007	0.04982
3435.57431	0.05012
3434.28854	0.05048
3433.00277	0.05077
3431.71700	0.05086
3430.43123	0.05072
3429.14546	0.05044
3427.85969	0.05025
3426.57392	0.05035
3425.28815	0.05071
3424.00239	0.05115
3422.71662	0.05152
3421.43085	0.05181
3420.14508	0.05208
3418.85931	0.05222
3417.57354	0.05205
3416.28777	0.05158
3415.00200	0.05121
3413.71624	0.05134
3412.43047	0.05200
3411.14470	0.05274
3409.85893	0.05320
3408.57316	0.05333
3407.28739	0.05330
3406.00162	0.05326
3404.71585	0.05332
3403.43008	0.05358
3402.14432	0.05404
3400.85855	0.05456
3399.57278	0.05489
3398.28701	0.05497
3397.00124	0.05504
3395.71547	0.05531
3394.42970	0.05578
3393.14393	0.05630
3391.85817	0.05665
3390.57240	0.05667
3389.28663	0.05638
3388.00086	0.05594
3386.71509	0.05559
3385.42932	0.05544
3384.14355	0.05550
3382.85778	0.05573
3381.57201	0.05604
3380.28625	0.05627
3379.00048	0.05623
3377.71471	0.05590
3376.42894	0.05547
3375.14317	0.05518
3373.85740	0.05518
3372.57163	0.05547
3371.28586	0.05603
3370.00010	0.05681
3368.71433	0.05771
3367.42856	0.05849
3366.14279	0.05887
3364.85702	0.05876
3363.57125	0.05836
3362.28548	0.05807
3360.99971	0.05818
3359.71394	0.05865
3358.42818	0.05921
3357.14241	0.05967
3355.85664	0.06008
3354.57087	0.06060
3353.28510	0.06123
3351.99933	0.06182
3350.71356	0.06226
3349.42779	0.06254
3348.14202	0.06264
3346.85626	0.06256
3345.57049	0.06247
3344.28472	0.06254
3342.99895	0.06275
3341.71318	0.06295
3340.42741	0.06304
3339.14164	0.06307
3337.85587	0.06311
3336.57011	0.06314
3335.28434	0.06311
3333.99857	0.06307
3332.71280	0.06306
3331.42703	0.06314
3330.14126	0.06337
3328.85549	0.06379
3327.56972	0.06442
3326.28395	0.06511
3324.99819	0.06563
3323.71242	0.06583
3322.42665	0.06577
3321.14088	0.06568
3319.85511	0.06573
3318.56934	0.06589
3317.28357	0.06603
3315.99780	0.06614
3314.71204	0.06633
3313.42627	0.06667
3312.14050	0.06698
3310.85473	0.06699
3309.56896	0.06672
3308.28319	0.06652
3306.99742	0.06669
3305.71165	0.06719
3304.42588	0.06774
3303.14012	0.06811
3301.85435	0.06824
3300.56858	0.06809
3299.28281	0.06762
3297.99704	0.06701
3296.71127	0.06666
3295.42550	0.06685
3294.13973	0.06747
3292.85397	0.06809
3291.56820	0.06834
3290.28243	0.06816
3288.99666	0.06783
3287.71089	0.06776
3286.42512	0.06808
3285.13935	0.06856
3283.85358	0.06882
3282.56781	0.06866
3281.28205	0.06824
3279.99628	0.06791
3278.71051	0.06787
3277.42474	0.06807
3276.13897	0.06827
3274.85320	0.06828
3273.56743	0.06818
3272.28166	0.06819
3270.99590	0.06849
3269.71013	0.06891
3268.42436	0.06913
3267.13859	0.06893
3265.85282	0.06837
3264.56705	0.06775
3263.28128	0.06735
3261.99551	0.06725
3260.70974	0.06734
3259.42398	0.06740
3258.13821	0.06723
3256.85244	0.06683
3255.56667	0.06639
3254.28090	0.06617
3252.99513	0.06621
3251.70936	0.06632
3250.42359	0.06618
3249.13783	0.06577
3247.85206	0.06535
3246.56629	0.06523
3245.28052	0.06542
3243.99475	0.06568
3242.70898	0.06575
3241.42321	0.06558
3240.13744	0.06533
3238.85167	0.06518
3237.56591	0.06515
3236.28014	0.06512
3234.99437	0.06500
3233.70860	0.06485
3232.42283	0.06479
3231.13706	0.06482
3229.85129	0.06485
3228.56552	0.06480
3227.27976	0.06471
3225.99399	0.06464
3224.70822	0.06460
3223.42245	0.06457
3222.13668	0.06450
3220.85091	0.06432
3219.56514	0.06398
3218.27937	0.06356
3216.99360	0.06316
3215.70784	0.06287
3214.42207	0.06271
3213.13630	0.06266
3211.85053	0.06265
3210.56476	0.06260
3209.27899	0.06249
3207.99322	0.06239
3206.70745	0.06237
3205.42169	0.06247
3204.13592	0.06259
3202.85015	0.06264
3201.56438	0.06258
3200.27861	0.06253
3198.99284	0.06259
3197.70707	0.06266
3196.42130	0.06257
3195.13553	0.06227
3193.84977	0.06190
3192.56400	0.06157
3191.27823	0.06125
3189.99246	0.06087
3188.70669	0.06051
3187.42092	0.06034
3186.13515	0.06045
3184.84938	0.06071
3183.56362	0.06090
3182.27785	0.06090
3180.99208	0.06076
3179.70631	0.06061
3178.42054	0.06046
3177.13477	0.06018
3175.84900	0.05968
3174.56323	0.05905
3173.27746	0.05859
3171.99170	0.05843
3170.70593	0.05839
3169.42016	0.05822
3168.13439	0.05789
3166.84862	0.05759
3165.56285	0.05739
3164.27708	0.05718
3162.99131	0.05692
3161.70555	0.05670
3160.41978	0.05658
3159.13401	0.05646
3157.84824	0.05622
3156.56247	0.05596
3155.27670	0.05586
3153.99093	0.05592
3152.70516	0.05591
3151.41939	0.05572
3150.13363	0.05544
3148.84786	0.05524
3147.56209	0.05509
3146.27632	0.05489
3144.99055	0.05464
3143.70478	0.05440
3142.41901	0.05415
3141.13324	0.05381
3139.84748	0.05342
3138.56171	0.05320
3137.27594	0.05328
3135.99017	0.05355
3134.70440	0.05369
3133.41863	0.05349
3132.13286	0.05304
3130.84709	0.05264
3129.56132	0.05247
3128.27556	0.05245
3126.98979	0.05240
3125.70402	0.05229
3124.41825	0.05221
3123.13248	0.05219
3121.84671	0.05221
3120.56094	0.05221
3119.27517	0.05223
3117.98940	0.05225
3116.70364	0.05225
3115.41787	0.05215
3114.13210	0.05196
3112.84633	0.05170
3111.56056	0.05146
3110.27479	0.05130
3108.98902	0.05125
3107.70325	0.05128
3106.41749	0.05130
3105.13172	0.05127
3103.84595	0.05128
3102.56018	0.05148
3101.27441	0.05192
3099.98864	0.05238
3098.70287	0.05256
3097.41710	0.05242
3096.13133	0.05218
3094.84557	0.05220
3093.55980	0.05259
3092.27403	0.05315
3090.98826	0.05352
3089.70249	0.05353
3088.41672	0.05329
3087.13095	0.05309
3085.84518	0.05309
3084.55942	0.05326
3083.27365	0.05347
3081.98788	0.05360
3080.70211	0.05358
3079.41634	0.05337
3078.13057	0.05303
3076.84480	0.05278
3075.55903	0.05276
3074.27326	0.05293
3072.98750	0.05307
3071.70173	0.05300
3070.41596	0.05279
3069.13019	0.05268
3067.84442	0.05280
3066.55865	0.05305
3065.27288	0.05320
3063.98711	0.05312
3062.70135	0.05288
3061.41558	0.05261
3060.12981	0.05241
3058.84404	0.05234
3057.55827	0.05243
3056.27250	0.05258
3054.98673	0.05261
3053.70096	0.05241
3052.41519	0.05212
3051.12943	0.05195
3049.84366	0.05200
3048.55789	0.05213
3047.27212	0.05218
3045.98635	0.05210
3044.70058	0.05196
3043.41481	0.05182
3042.12904	0.05157
3040.84328	0.05109
3039.55751	0.05039
3038.27174	0.04978
3036.98597	0.04957
3035.70020	0.04980
3034.41443	0.05018
3033.12866	0.05038
3031.84289	0.05028
3030.55712	0.04999
3029.27136	0.04969
3027.98559	0.04941
3026.69982	0.04910
3025.41405	0.04872
3024.12828	0.04839
3022.84251	0.04827
3021.55674	0.04837
3020.27097	0.04843
3018.98521	0.04827
3017.69944	0.04796
3016.41367	0.04768
3015.12790	0.04758
3013.84213	0.04762
3012.55636	0.04767
3011.27059	0.04761
3009.98482	0.04735
3008.69905	0.04695
3007.41329	0.04658
3006.12752	0.04645
3004.84175	0.04659
3003.55598	0.04684
3002.27021	0.04702
3000.98444	0.04709
2999.69867	0.04710
2998.41290	0.04721
2997.12714	0.04732
2995.84137	0.04736
2994.55560	0.04729
2993.26983	0.04719
2991.98406	0.04716
2990.69829	0.04726
2989.41252	0.04749
2988.12675	0.04776
2986.84098	0.04797
2985.55522	0.04810
2984.26945	0.04820
2982.98368	0.04837
2981.69791	0.04869
2980.41214	0.04913
2979.12637	0.04951
2977.84060	0.04965
2976.55483	0.04958
2975.26907	0.04953
2973.98330	0.04971
2972.69753	0.05015
2971.41176	0.05060
2970.12599	0.05082
2968.84022	0.05081
2967.55445	0.05081
2966.26868	0.05101
2964.98291	0.05137
2963.69715	0.05171
2962.41138	0.05190
2961.12561	0.05194
2959.83984	0.05195
2958.55407	0.05201
2957.26830	0.05217
2955.98253	0.05235
2954.69676	0.05246
2953.41100	0.05239
2952.12523	0.05216
2950.83946	0.05187
2949.55369	0.05162
2948.26792	0.05146
2946.98215	0.05138
2945.69638	0.05142
2944.41061	0.05158
2943.12484	0.05185
2941.83908	0.05221
2940.55331	0.05265
2939.26754	0.05307
2937.98177	0.05331
2936.69600	0.05327
2935.41023	0.05304
2934.12446	0.05285
2932.83869	0.05286
2931.55293	0.05308
2930.26716	0.05341
2928.98139	0.05371
2927.69562	0.05395
2926.40985	0.05408
2925.12408	0.05409
2923.83831	0.05394
2922.55254	0.05367
2921.26677	0.05340
2919.98101	0.05323
2918.69524	0.05315
2917.40947	0.05305
2916.12370	0.05284
2914.83793	0.05244
2913.55216	0.05191
2912.26639	0.05136
2910.98062	0.05091
2909.69486	0.05061
2908.40909	0.05042
2907.12332	0.05028
2905.83755	0.05013
2904.55178	0.04987
2903.26601	0.04943
2901.98024	0.04888
2900.69447	0.04839
2899.40870	0.04808
2898.12294	0.04796
2896.83717	0.04796
2895.55140	0.04806
2894.26563	0.04821
2892.97986	0.04831
2891.69409	0.04835
2890.40832	0.04835
2889.12255	0.04835
2887.83678	0.04830
2886.55102	0.04810
2885.26525	0.04771
2883.97948	0.04726
2882.69371	0.04694
2881.40794	0.04686
2880.12217	0.04696
2878.83640	0.04707
2877.55063	0.04713
2876.26487	0.04721
2874.97910	0.04738
2873.69333	0.04758
2872.40756	0.04770
2871.12179	0.04772
2869.83602	0.04769
2868.55025	0.04760
2867.26448	0.04740
2865.97871	0.04714
2864.69295	0.04690
2863.40718	0.04672
2862.12141	0.04651
2860.83564	0.04627
2859.54987	0.04608
2858.26410	0.04602
2856.97833	0.04601
2855.69256	0.04593
2854.40680	0.04570
2853.12103	0.04545
2851.83526	0.04534
2850.54949	0.04545
2849.26372	0.04564
2847.97795	0.04563
2846.69218	0.04527
2845.40641	0.04468
2844.12064	0.04416
2842.83488	0.04387
2841.54911	0.04376
2840.26334	0.04362
2838.97757	0.04333
2837.69180	0.04294
2836.40603	0.04260
2835.12026	0.04233
2833.83449	0.04212
2832.54873	0.04193
2831.26296	0.04177
2829.97719	0.04169
2828.69142	0.04165
2827.40565	0.04163
2826.11988	0.04161
2824.83411	0.04158
2823.54834	0.04152
2822.26257	0.04135
2820.97681	0.04106
2819.69104	0.04073
2818.40527	0.04046
2817.11950	0.04029
2815.83373	0.04022
2814.54796	0.04027
2813.26219	0.04036
2811.97642	0.04037
2810.69066	0.04024
2809.40489	0.04006
2808.11912	0.03994
2806.83335	0.03991
2805.54758	0.03993
2804.26181	0.03994
2802.97604	0.03987
2801.69027	0.03973
2800.40450	0.03957
2799.11874	0.03946
2797.83297	0.03944
2796.54720	0.03947
2795.26143	0.03948
2793.97566	0.03943
2792.68989	0.03936
2791.40412	0.03933
2790.11835	0.03931
2788.83259	0.03930
2787.54682	0.03932
2786.26105	0.03938
2784.97528	0.03945
2783.68951	0.03949
2782.40374	0.03941
2781.11797	0.03919
2779.83220	0.03886
2778.54643	0.03852
2777.26067	0.03829
2775.97490	0.03818
2774.68913	0.03817
2773.40336	0.03822
2772.11759	0.03828
2770.83182	0.03825
2769.54605	0.03808
2768.26028	0.03786
2766.97452	0.03774
2765.68875	0.03777
2764.40298	0.03788
2763.11721	0.03793
2761.83144	0.03784
2760.54567	0.03761
2759.25990	0.03730
2757.97413	0.03698
2756.68836	0.03678
2755.40260	0.03676
2754.11683	0.03685
2752.83106	0.03692
2751.54529	0.03686
2750.25952	0.03668
2748.97375	0.03655
2747.68798	0.03656
2746.40221	0.03665
2745.11645	0.03669
2743.83068	0.03657
2742.54491	0.03635
2741.25914	0.03614
2739.97337	0.03601
2738.68760	0.03594
2737.40183	0.03588
2736.11606	0.03582
2734.83029	0.03577
2733.54453	0.03570
2732.25876	0.03557
2730.97299	0.03537
2729.68722	0.03514
2728.40145	0.03496
2727.11568	0.03494
2725.82991	0.03511
2724.54414	0.03543
2723.25838	0.03576
2721.97261	0.03595
2720.68684	0.03590
2719.40107	0.03566
2718.11530	0.03533
2716.82953	0.03501
2715.54376	0.03473
2714.25799	0.03446
2712.97222	0.03423
2711.68646	0.03412
2710.40069	0.03417
2709.11492	0.03432
2707.82915	0.03445
2706.54338	0.03449
2705.25761	0.03443
2703.97184	0.03428
2702.68607	0.03406
2701.40031	0.03383
2700.11454	0.03368
2698.82877	0.03363
2697.54300	0.03364
2696.25723	0.03369
2694.97146	0.03376
2693.68569	0.03383
2692.39992	0.03381
2691.11415	0.03365
2689.82839	0.03341
2688.54262	0.03319
2687.25685	0.03304
2685.97108	0.03294
2684.68531	0.03285
2683.39954	0.03275
2682.11377	0.03266
2680.82800	0.03257
2679.54224	0.03249
2678.25647	0.03245
2676.97070	0.03243
2675.68493	0.03241
2674.39916	0.03237
2673.11339	0.03232
2671.82762	0.03230
2670.54185	0.03234
2669.25608	0.03245
2667.97032	0.03258
2666.68455	0.03266
2665.39878	0.03266
2664.11301	0.03260
2662.82724	0.03258
2661.54147	0.03266
2660.25570	0.03282
2658.96993	0.03297
2657.68417	0.03300
2656.39840	0.03290
2655.11263	0.03279
2653.82686	0.03277
2652.54109	0.03281
2651.25532	0.03277
2649.96955	0.03259
2648.68378	0.03234
2647.39801	0.03211
2646.11225	0.03193
2644.82648	0.03176
2643.54071	0.03165
2642.25494	0.03167
2640.96917	0.03182
2639.68340	0.03192
2638.39763	0.03177
2637.11186	0.03135
2635.82609	0.03083
2634.54033	0.03046
2633.25456	0.03031
2631.96879	0.03032
2630.68302	0.03035
2629.39725	0.03033
2628.11148	0.03023
2626.82571	0.03009
2625.53994	0.02997
2624.25418	0.02985
2622.96841	0.02976
2621.68264	0.02974
2620.39687	0.02986
2619.11110	0.03010
2617.82533	0.03037
2616.53956	0.03051
2615.25379	0.03041
2613.96802	0.03008
2612.68226	0.02963
2611.39649	0.02921
2610.11072	0.02890
2608.82495	0.02870
2607.53918	0.02860
2606.25341	0.02856
2604.96764	0.02848
2603.68187	0.02831
2602.39611	0.02807
2601.11034	0.02780
2599.82457	0.02759
2598.53880	0.02749
2597.25303	0.02751
2595.96726	0.02759
2594.68149	0.02755
2593.39572	0.02730
2592.10995	0.02690
2590.82419	0.02659
2589.53842	0.02656
2588.25265	0.02685
2586.96688	0.02723
2585.68111	0.02750
2584.39534	0.02756
2583.10957	0.02746
2581.82380	0.02722
2580.53804	0.02691
2579.25227	0.02665
2577.96650	0.02655
2576.68073	0.02655
2575.39496	0.02647
2574.10919	0.02621
2572.82342	0.02589
2571.53765	0.02574
2570.25188	0.02580
2568.96612	0.02586
2567.68035	0.02574
2566.39458	0.02549
2565.10881	0.02521
2563.82304	0.02489
2562.53727	0.02455
2561.25150	0.02433
2559.96573	0.02425
2558.67997	0.02424
2557.39420	0.02428
2556.10843	0.02446
2554.82266	0.02476
2553.53689	0.02500
2552.25112	0.02509
2550.96535	0.02518
2549.67958	0.02544
2548.39381	0.02586
2547.10805	0.02615
2545.82228	0.02608
2544.53651	0.02568
2543.25074	0.02525
2541.96497	0.02508
2540.67920	0.02522
2539.39343	0.02546
2538.10766	0.02556
2536.82190	0.02542
2535.53613	0.02508
2534.25036	0.02473
2532.96459	0.02447
2531.67882	0.02426
2530.39305	0.02398
2529.10728	0.02364
2527.82151	0.02346
2526.53574	0.02366
2525.24998	0.02423
2523.96421	0.02485
2522.67844	0.02522
2521.39267	0.02525
2520.10690	0.02506
2518.82113	0.02475
2517.53536	0.02441
2516.24959	0.02416
2514.96383	0.02405
2513.67806	0.02399
2512.39229	0.02385
2511.10652	0.02369
2509.82075	0.02368
2508.53498	0.02392
2507.24921	0.02424
2505.96344	0.02441
2504.67767	0.02432
2503.39191	0.02405
2502.10614	0.02380
2500.82037	0.02375
2499.53460	0.02390
2498.24883	0.02411
2496.96306	0.02421
2495.67729	0.02411
2494.39152	0.02385
2493.10576	0.02352
2491.81999	0.02333
2490.53422	0.02345
2489.24845	0.02386
2487.96268	0.02428
2486.67691	0.02441
2485.39114	0.02419
2484.10537	0.02381
2482.81960	0.02347
2481.53384	0.02334
2480.24807	0.02352
2478.96230	0.02389
2477.67653	0.02418
2476.39076	0.02417
2475.10499	0.02388
2473.81922	0.02353
2472.53345	0.02332
2471.24769	0.02326
2469.96192	0.02321
2468.67615	0.02307
2467.39038	0.02291
2466.10461	0.02288
2464.81884	0.02307
2463.53307	0.02335
2462.24730	0.02354
2460.96153	0.02367
2459.67577	0.02388
2458.39000	0.02419
2457.10423	0.02435
2455.81846	0.02411
2454.53269	0.02351
2453.24692	0.02292
2451.96115	0.02272
2450.67538	0.02296
2449.38962	0.02335
2448.10385	0.02356
2446.81808	0.02351
2445.53231	0.02340
2444.24654	0.02341
2442.96077	0.02345
2441.67500	0.02332
2440.38923	0.02293
2439.10346	0.02248
2437.81770	0.02226
2436.53193	0.02241
2435.24616	0.02277
2433.96039	0.02306
2432.67462	0.02312
2431.38885	0.02296
2430.10308	0.02270
2428.81731	0.02242
2427.53155	0.02230
2426.24578	0.02246
2424.96001	0.02286
2423.67424	0.02323
2422.38847	0.02333
2421.10270	0.02316
2419.81693	0.02294
2418.53116	0.02285
2417.24539	0.02280
2415.95963	0.02266
2414.67386	0.02242
2413.38809	0.02229
2412.10232	0.02241
2410.81655	0.02276
2409.53078	0.02311
2408.24501	0.02322
2406.95924	0.02307
2405.67347	0.02279
2404.38771	0.02256
2403.10194	0.02249
2401.81617	0.02250
2400.53040	0.02247
2399.24463	0.02239
2397.95886	0.02215
2396.67309	0.02200
2395.38732	0.02200
2394.10156	0.02204
2392.81579	0.02209
2391.53002	0.02216
2390.24425	0.02230
2388.95848	0.02248
2387.67271	0.02258
2386.38694	0.02252
2385.10117	0.02236
2383.81540	0.02224
2382.52964	0.02233
2381.24387	0.02265
2379.95810	0.02309
2378.67233	0.02325
2377.38656	0.02319
2376.10079	0.02324
2374.81502	0.02344
2373.52925	0.02315
2372.24349	0.02241
2370.95772	0.02182
2369.67195	0.02167
2368.38618	0.02189
2367.10041	0.02214
2365.81464	0.02246
2364.52887	0.02276
2363.24310	0.02300
2361.95733	0.02303
2360.67157	0.02266
2359.38580	0.02234
2358.10003	0.02237
2356.81426	0.02276
2355.52849	0.02343
2354.24272	0.02429
2352.95695	0.02495
2351.67118	0.02473
2350.38542	0.02415
2349.09965	0.02396
2347.81388	0.02386
2346.52811	0.02326
2345.24234	0.02292
2343.95657	0.02378
2342.67080	0.02551
2341.38503	0.02530
2340.09926	0.02353
2338.81350	0.02340
2337.52773	0.02473
2336.24196	0.02414
2334.95619	0.02275
2333.67042	0.02340
2332.38465	0.02518
2331.09888	0.02424
2329.81311	0.02377
2328.52735	0.02508
2327.24158	0.02527
2325.95581	0.02512
2324.67004	0.02597
2323.38427	0.02679
2322.09850	0.02631
2320.81273	0.02608
2319.52696	0.02547
2318.24119	0.02465
2316.95543	0.02434
2315.66966	0.02407
2314.38389	0.02403
2313.09812	0.02417
2311.81235	0.02393
2310.52658	0.02372
2309.24081	0.02352
2307.95504	0.02315
2306.66928	0.02298
2305.38351	0.02294
2304.09774	0.02307
2302.81197	0.02324
2301.52620	0.02323
2300.24043	0.02312
2298.95466	0.02287
2297.66889	0.02250
2296.38312	0.02212
2295.09736	0.02193
2293.81159	0.02210
2292.52582	0.02248
2291.24005	0.02274
2289.95428	0.02263
2288.66851	0.02224
2287.38274	0.02185
2286.09697	0.02170
2284.81121	0.02177
2283.52544	0.02188
2282.23967	0.02192
2280.95390	0.02191
2279.66813	0.02186
2278.38236	0.02170
2277.09659	0.02133
2275.81082	0.02065
2274.52505	0.01983
2273.23929	0.01924
2271.95352	0.01924
2270.66775	0.01982
2269.38198	0.02058
2268.09621	0.02101
2266.81044	0.02093
2265.52467	0.02044
2264.23890	0.01984
2262.95314	0.01926
2261.66737	0.01878
2260.38160	0.01849
2259.09583	0.01838
2257.81006	0.01830
2256.52429	0.01802
2255.23852	0.01751
2253.95275	0.01694
2252.66698	0.01654
2251.38122	0.01638
2250.09545	0.01637
2248.80968	0.01648
2247.52391	0.01628
2246.23814	0.01610
2244.95237	0.01601
2243.66660	0.01600
2242.38083	0.01609
2241.09507	0.01638
2239.80930	0.01681
2238.52353	0.01715
2237.23776	0.01726
2235.95199	0.01733
2234.66622	0.01761
2233.38045	0.01798
2232.09468	0.01807
2230.80891	0.01759
2229.52315	0.01657
2228.23738	0.01539
2226.95161	0.01454
2225.66584	0.01439
2224.38007	0.01495
2223.09430	0.01587
2221.80853	0.01663
2220.52276	0.01683
2219.23700	0.01651
2217.95123	0.01608
2216.66546	0.01595
2215.37969	0.01618
2214.09392	0.01651
2212.80815	0.01668
2211.52238	0.01640
2210.23661	0.01536
2208.95084	0.01367
2207.66508	0.01198
2206.37931	0.01106
2205.09354	0.01110
2203.80777	0.01173
2202.52200	0.01245
2201.23623	0.01287
2199.95046	0.01280
2198.66469	0.01243
2197.37893	0.01226
2196.09316	0.01257
2194.80739	0.01302
2193.52162	0.01317
2192.23585	0.01307
2190.95008	0.01307
2189.66431	0.01309
2188.37854	0.01270
2187.09277	0.01183
2185.80701	0.01098
2184.52124	0.01048
2183.23547	0.01014
2181.94970	0.00968
2180.66393	0.00924
2179.37816	0.00902
2178.09239	0.00886
2176.80662	0.00856
2175.52085	0.00833
2174.23509	0.00857
2172.94932	0.00933
2171.66355	0.01029
2170.37778	0.01136
2169.09201	0.01280
2167.80624	0.01462
2166.52047	0.01614
2165.23470	0.01636
2163.94894	0.01498
2162.66317	0.01273
2161.37740	0.01054
2160.09163	0.00881
2158.80586	0.00759
2157.52009	0.00685
2156.23432	0.00654
2154.94855	0.00652
2153.66278	0.00674
2152.37702	0.00728
2151.09125	0.00823
2149.80548	0.00949
2148.51971	0.01062
2147.23394	0.01100
2145.94817	0.01024
2144.66240	0.00885
2143.37663	0.00790
2142.09087	0.00800
2140.80510	0.00887
2139.51933	0.00986
2138.23356	0.01068
2136.94779	0.01136
2135.66202	0.01191
2134.37625	0.01221
2133.09048	0.01216
2131.80471	0.01182
2130.51895	0.01143
2129.23318	0.01127
2127.94741	0.01142
2126.66164	0.01169
2125.37587	0.01191
2124.09010	0.01203
2122.80433	0.01218
2121.51856	0.01244
2120.23280	0.01280
2118.94703	0.01319
2117.66126	0.01362
2116.37549	0.01418
2115.08972	0.01489
2113.80395	0.01552
2112.51818	0.01574
2111.23241	0.01541
2109.94664	0.01475
2108.66088	0.01424
2107.37511	0.01427
2106.08934	0.01481
2104.80357	0.01541
2103.51780	0.01557
2102.23203	0.01521
2100.94626	0.01451
2099.66049	0.01292
2098.37473	0.01173
2097.08896	0.01107
2095.80319	0.01100
2094.51742	0.01166
2093.23165	0.01273
2091.94588	0.01357
2090.66011	0.01370
2089.37434	0.01328
2088.08857	0.01279
2086.80281	0.01252
2085.51704	0.01235
2084.23127	0.01201
2082.94550	0.01155
2081.65973	0.01126
2080.37396	0.01137
2079.08819	0.01173
2077.80242	0.01197
2076.51666	0.01181
2075.23089	0.01135
2073.94512	0.01095
2072.65935	0.01095
2071.37358	0.01139
2070.08781	0.01201
2068.80204	0.01248
2067.51627	0.01258
2066.23050	0.01229
2064.94474	0.01174
2063.65897	0.01112
2062.37320	0.01065
2061.08743	0.01049
2059.80166	0.01061
2058.51589	0.01082
2057.23012	0.01095
2055.94435	0.01110
2054.65859	0.01158
2053.37282	0.01247
2052.08705	0.01329
2050.80128	0.01335
2049.51551	0.01230
2048.22974	0.01056
2046.94397	0.00893
2045.65820	0.00795
2044.37243	0.00751
2043.08667	0.00712
2041.80090	0.00648
2040.51513	0.00571
2039.22936	0.00507
2037.94359	0.00461
2036.65782	0.00425
2035.37205	0.00414
2034.08628	0.00454
2032.80052	0.00536
2031.51475	0.00606
2030.22898	0.00617
2028.94321	0.00580
2027.65744	0.00536
2026.37167	0.00498
2025.08590	0.00446
2023.80013	0.00378
2022.51436	0.00327
2021.22860	0.00331
2019.94283	0.00389
2018.65706	0.00465
2017.37129	0.00527
2016.08552	0.00565
2014.79975	0.00585
2013.51398	0.00600
2012.22821	0.00620
2010.94245	0.00641
2009.65668	0.00629
2008.37091	0.00558
2007.08514	0.00445
2005.79937	0.00348
2004.51360	0.00320
2003.22783	0.00366
2001.94206	0.00460
2000.65629	0.00581
1999.37053	0.00720
1998.08476	0.00868
1996.79899	0.01009
1995.51322	0.01123
1994.22745	0.01189
1992.94168	0.01187
1991.65591	0.01116
1990.37014	0.01012
1989.08438	0.00931
1987.79861	0.00910
1986.51284	0.00934
1985.22707	0.00958
1983.94130	0.00946
1982.65553	0.00896
1981.36976	0.00824
1980.08399	0.00745
1978.79822	0.00669
1977.51246	0.00608
1976.22669	0.00575
1974.94092	0.00566
1973.65515	0.00566
1972.36938	0.00562
1971.08361	0.00565
1969.79784	0.00590
1968.51207	0.00624
1967.22631	0.00628
1965.94054	0.00589
1964.65477	0.00536
1963.36900	0.00514
1962.08323	0.00543
1960.79746	0.00609
1959.51169	0.00689
1958.22592	0.00767
1956.94015	0.00829
1955.65439	0.00865
1954.36862	0.00873
1953.08285	0.00863
1951.79708	0.00847
1950.51131	0.00829
1949.22554	0.00812
1947.93977	0.00803
1946.65400	0.00804
1945.36823	0.00807
1944.08247	0.00804
1942.79670	0.00799
1941.51093	0.00804
1940.22516	0.00825
1938.93939	0.00848
1937.65362	0.00862
1936.36785	0.00872
1935.08208	0.00889
1933.79632	0.00920
1932.51055	0.00955
1931.22478	0.00974
1929.93901	0.00966
1928.65324	0.00940
1927.36747	0.00914
1926.08170	0.00902
1924.79593	0.00900
1923.51016	0.00901
1922.22440	0.00902
1920.93863	0.00904
1919.65286	0.00905
1918.36709	0.00903
1917.08132	0.00904
1915.79555	0.00918
1914.50978	0.00956
1913.22401	0.01018
1911.93825	0.01085
1910.65248	0.01128
1909.36671	0.01133
1908.08094	0.01113
1906.79517	0.01088
1905.50940	0.01068
1904.22363	0.01052
1902.93786	0.01043
1901.65209	0.01041
1900.36633	0.01037
1899.08056	0.01024
1897.79479	0.01011
1896.50902	0.01009
1895.22325	0.01021
1893.93748	0.01031
1892.65171	0.01032
1891.36594	0.01034
1890.08018	0.01050
1888.79441	0.01083
1887.50864	0.01115
1886.22287	0.01128
1884.93710	0.01123
1883.65133	0.01110
1882.36556	0.01100
1881.07979	0.01101
1879.79402	0.01111
1878.50826	0.01122
1877.22249	0.01128
1875.93672	0.01133
1874.65095	0.01148
1873.36518	0.01175
1872.07941	0.01197
1870.79364	0.01191
1869.50787	0.01157
1868.22211	0.01118
1866.93634	0.01103
1865.65057	0.01116
1864.36480	0.01138
1863.07903	0.01149
1861.79326	0.01140
1860.50749	0.01120
1859.22172	0.01099
1857.93595	0.01083
1856.65019	0.01075
1855.36442	0.01079
1854.07865	0.01099
1852.79288	0.01130
1851.50711	0.01156
1850.22134	0.01168
1848.93557	0.01170
1847.64980	0.01166
1846.36404	0.01152
1845.07827	0.01128
1843.79250	0.01105
1842.50673	0.01094
1841.22096	0.01094
1839.93519	0.01103
1838.64942	0.01118
1837.36365	0.01136
1836.07788	0.01148
1834.79212	0.01152
1833.50635	0.01152
1832.22058	0.01155
1830.93481	0.01162
1829.64904	0.01167
1828.36327	0.01159
1827.07750	0.01134
1825.79173	0.01104
1824.50597	0.01083
1823.22020	0.01074
1821.93443	0.01063
1820.64866	0.01043
1819.36289	0.01018
1818.07712	0.01003
1816.79135	0.01012
1815.50558	0.01047
1814.21981	0.01098
1812.93405	0.01147
1811.64828	0.01178
1810.36251	0.01189
1809.07674	0.01192
1807.79097	0.01198
1806.50520	0.01212
1805.21943	0.01225
1803.93366	0.01223
1802.64790	0.01202
1801.36213	0.01174
1800.07636	0.01157
1798.79059	0.01161
1797.50482	0.01186
1796.21905	0.01218
1794.93328	0.01239
1793.64751	0.01240
1792.36174	0.01227
1791.07598	0.01212
1789.79021	0.01202
1788.50444	0.01198
1787.21867	0.01198
1785.93290	0.01200
1784.64713	0.01200
1783.36136	0.01200
1782.07559	0.01204
1780.78983	0.01213
1779.50406	0.01225
1778.21829	0.01232
1776.93252	0.01230
1775.64675	0.01219
1774.36098	0.01202
1773.07521	0.01185
1771.78944	0.01178
1770.50367	0.01179
1769.21791	0.01180
1767.93214	0.01183
1766.64637	0.01194
1765.36060	0.01211
1764.07483	0.01225
1762.78906	0.01231
1761.50329	0.01232
1760.21752	0.01235
1758.93176	0.01240
1757.64599	0.01250
1756.36022	0.01267
1755.07445	0.01284
1753.78868	0.01286
1752.50291	0.01271
1751.21714	0.01251
1749.93137	0.01245
1748.64560	0.01255
1747.35984	0.01278
1746.07407	0.01305
1744.78830	0.01330
1743.50253	0.01349
1742.21676	0.01362
1740.93099	0.01375
1739.64522	0.01393
1738.35945	0.01416
1737.07369	0.01430
1735.78792	0.01422
1734.50215	0.01405
1733.21638	0.01403
1731.93061	0.01422
1730.64484	0.01447
1729.35907	0.01469
1728.07330	0.01491
1726.78753	0.01512
1725.50177	0.01532
1724.21600	0.01550
1722.93023	0.01570
1721.64446	0.01590
1720.35869	0.01604
1719.07292	0.01605
1717.78715	0.01604
1716.50138	0.01615
1715.21561	0.01644
1713.92985	0.01687
1712.64408	0.01738
1711.35831	0.01792
1710.07254	0.01847
1708.78677	0.01901
1707.50100	0.01957
1706.21523	0.02019
1704.92946	0.02087
1703.64370	0.02156
1702.35793	0.02219
1701.07216	0.02287
1699.78639	0.02381
1698.50062	0.02495
1697.21485	0.02603
1695.92908	0.02702
1694.64331	0.02810
1693.35754	0.02923
1692.07178	0.03030
1690.78601	0.03132
1689.50024	0.03238
1688.21447	0.03342
1686.92870	0.03430
1685.64293	0.03504
1684.35716	0.03589
1683.07139	0.03700
1681.78563	0.03828
1680.49986	0.03957
1679.21409	0.04084
1677.92832	0.04204
1676.64255	0.04313
1675.35678	0.04417
1674.07101	0.04528
1672.78524	0.04647
1671.49947	0.04762
1670.21371	0.04875
1668.92794	0.04993
1667.64217	0.05120
1666.35640	0.05250
1665.07063	0.05374
1663.78486	0.05492
1662.49909	0.05610
1661.21332	0.05728
1659.92756	0.05840
1658.64179	0.05944
1657.35602	0.06036
1656.07025	0.06108
1654.78448	0.06156
1653.49871	0.06201
1652.21294	0.06274
1650.92717	0.06371
1649.64140	0.06458
1648.35564	0.06513
1647.06987	0.06547
1645.78410	0.06584
1644.49833	0.06631
1643.21256	0.06680
1641.92679	0.06724
1640.64102	0.06761
1639.35525	0.06788
1638.06949	0.06797
1636.78372	0.06788
1635.49795	0.06775
1634.21218	0.06773
1632.92641	0.06778
1631.64064	0.06778
1630.35487	0.06762
1629.06910	0.06729
1627.78333	0.06679
1626.49757	0.06617
1625.21180	0.06542
1623.92603	0.06460
1622.64026	0.06376
1621.35449	0.06291
1620.06872	0.06197
1618.78295	0.06081
1617.49718	0.05951
1616.21142	0.05824
1614.92565	0.05712
1613.63988	0.05605
1612.35411	0.05497
1611.06834	0.05384
1609.78257	0.05269
1608.49680	0.05153
1607.21103	0.05041
1605.92526	0.04934
1604.63950	0.04832
1603.35373	0.04737
1602.06796	0.04646
1600.78219	0.04560
1599.49642	0.04479
1598.21065	0.04405
1596.92488	0.04336
1595.63911	0.04271
1594.35335	0.04211
1593.06758	0.04156
1591.78181	0.04109
1590.49604	0.04073
1589.21027	0.04049
1587.92450	0.04034
1586.63873	0.04024
1585.35296	0.04017
1584.06719	0.04013
1582.78143	0.04014
1581.49566	0.04022
1580.20989	0.04033
1578.92412	0.04040
1577.63835	0.04040
1576.35258	0.04049
1575.06681	0.04084
1573.78104	0.04138
1572.49528	0.04192
1571.20951	0.04236
1569.92374	0.04276
1568.63797	0.04325
1567.35220	0.04383
1566.06643	0.04448
1564.78066	0.04518
1563.49489	0.04590
1562.20912	0.04650
1560.92336	0.04693
1559.63759	0.04736
1558.35182	0.04801
1557.06605	0.04889
1555.78028	0.04977
1554.49451	0.05053
1553.20874	0.05120
1551.92297	0.05180
1550.63721	0.05233
1549.35144	0.05279
1548.06567	0.05321
1546.77990	0.05357
1545.49413	0.05388
1544.20836	0.05418
1542.92259	0.05443
1541.63682	0.05457
1540.35105	0.05468
1539.06529	0.05489
1537.77952	0.05527
1536.49375	0.05565
1535.20798	0.05588
1533.92221	0.05596
1532.63644	0.05598
1531.35067	0.05598
1530.06490	0.05593
1528.77914	0.05585
1527.49337	0.05577
1526.20760	0.05569
1524.92183	0.05562
1523.63606	0.05549
1522.35029	0.05531
1521.06452	0.05516
1519.77875	0.05504
1518.49298	0.05486
1517.20722	0.05460
1515.92145	0.05431
1514.63568	0.05400
1513.34991	0.05364
1512.06414	0.05320
1510.77837	0.05269
1509.49260	0.05208
1508.20683	0.05130
1506.92107	0.05047
1505.63530	0.04976
1504.34953	0.04917
1503.06376	0.04858
1501.77799	0.04789
1500.49222	0.04710
1499.20645	0.04623
1497.92068	0.04528
1496.63491	0.04432
1495.34915	0.04343
1494.06338	0.04263
1492.77761	0.04182
1491.49184	0.04097
1490.20607	0.04014
1488.92030	0.03937
1487.63453	0.03869
1486.34876	0.03807
1485.06299	0.03750
1483.77723	0.03697
1482.49146	0.03654
1481.20569	0.03626
1479.91992	0.03615
1478.63415	0.03614
1477.34838	0.03615
1476.06261	0.03615
1474.77684	0.03615
1473.49108	0.03620
1472.20531	0.03642
1470.91954	0.03680
1469.63377	0.03725
1468.34800	0.03763
1467.06223	0.03789
1465.77646	0.03811
1464.49069	0.03840
1463.20492	0.03879
1461.91916	0.03925
1460.63339	0.03964
1459.34762	0.03990
1458.06185	0.04004
1456.77608	0.04020
1455.49031	0.04050
1454.20454	0.04083
1452.91877	0.04108
1451.63301	0.04121
1450.34724	0.04125
1449.06147	0.04124
1447.77570	0.04120
1446.48993	0.04116
1445.20416	0.04108
1443.91839	0.04096
1442.63262	0.04080
1441.34685	0.04064
1440.06109	0.04046
1438.77532	0.04022
1437.48955	0.03997
1436.20378	0.03982
1434.91801	0.03977
1433.63224	0.03969
1432.34647	0.03949
1431.06070	0.03920
1429.77494	0.03888
1428.48917	0.03859
1427.20340	0.03834
1425.91763	0.03815
1424.63186	0.03806
1423.34609	0.03805
1422.06032	0.03805
1420.77455	0.03797
1419.48878	0.03785
1418.20302	0.03776
1416.91725	0.03769
1415.63148	0.03760
1414.34571	0.03748
1413.05994	0.03738
1411.77417	0.03734
1410.48840	0.03737
1409.20263	0.03744
1407.91687	0.03748
1406.63110	0.03747
1405.34533	0.03742
1404.05956	0.03736
1402.77379	0.03732
1401.48802	0.03728
1400.20225	0.03722
1398.91648	0.03715
1397.63071	0.03708
1396.34495	0.03701
1395.05918	0.03696
1393.77341	0.03693
1392.48764	0.03689
1391.20187	0.03678
1389.91610	0.03660
1388.63033	0.03638
1387.34456	0.03620
1386.05880	0.03609
1384.77303	0.03601
1383.48726	0.03594
1382.20149	0.03584
1380.91572	0.03572
1379.62995	0.03556
1378.34418	0.03537
1377.05841	0.03514
1375.77264	0.03485
1374.48688	0.03452
1373.20111	0.03421
1371.91534	0.03395
1370.62957	0.03373
1369.34380	0.03350
1368.05803	0.03321
1366.77226	0.03287
1365.48649	0.03251
1364.20073	0.03217
1362.91496	0.03184
1361.62919	0.03154
1360.34342	0.03132
1359.05765	0.03119
1357.77188	0.03114
1356.48611	0.03112
1355.20034	0.03108
1353.91457	0.03102
1352.62881	0.03100
1351.34304	0.03104
1350.05727	0.03113
1348.77150	0.03121
1347.48573	0.03128
1346.19996	0.03137
1344.91419	0.03152
1343.62842	0.03172
1342.34266	0.03193
1341.05689	0.03207
1339.77112	0.03214
1338.48535	0.03216
1337.19958	0.03218
1335.91381	0.03220
1334.62804	0.03218
1333.34227	0.03212
1332.05650	0.03203
1330.77074	0.03192
1329.48497	0.03180
1328.19920	0.03168
1326.91343	0.03158
1325.62766	0.03153
1324.34189	0.03150
1323.05612	0.03147
1321.77035	0.03142
1320.48459	0.03133
1319.19882	0.03123
1317.91305	0.03117
1316.62728	0.03113
1315.34151	0.03110
1314.05574	0.03107
1312.76997	0.03103
1311.48420	0.03099
1310.19843	0.03093
1308.91267	0.03082
1307.62690	0.03066
1306.34113	0.03046
1305.05536	0.03029
1303.76959	0.03020
1302.48382	0.03021
1301.19805	0.03028
1299.91228	0.03036
1298.62652	0.03040
1297.34075	0.03040
1296.05498	0.03035
1294.76921	0.03028
1293.48344	0.03023
1292.19767	0.03024
1290.91190	0.03034
1289.62613	0.03049
1288.34036	0.03066
1287.05460	0.03080
1285.76883	0.03092
1284.48306	0.03104
1283.19729	0.03116
1281.91152	0.03130
1280.62575	0.03145
1279.33998	0.03161
1278.05421	0.03174
1276.76845	0.03184
1275.48268	0.03191
1274.19691	0.03199
1272.91114	0.03208
1271.62537	0.03219
1270.33960	0.03230
1269.05383	0.03242
1267.76806	0.03257
1266.48229	0.03273
1265.19653	0.03290
1263.91076	0.03307
1262.62499	0.03324
1261.33922	0.03338
1260.05345	0.03347
1258.76768	0.03355
1257.48191	0.03369
1256.19614	0.03392
1254.91037	0.03421
1253.62461	0.03449
1252.33884	0.03475
1251.05307	0.03501
1249.76730	0.03532
1248.48153	0.03566
1247.19576	0.03598
1245.90999	0.03628
1244.62422	0.03655
1243.33846	0.03681
1242.05269	0.03705
1240.76692	0.03723
1239.48115	0.03739
1238.19538	0.03757
1236.90961	0.03780
1235.62384	0.03804
1234.33807	0.03818
1233.05230	0.03819
1231.76654	0.03810
1230.48077	0.03797
1229.19500	0.03784
1227.90923	0.03770
1226.62346	0.03752
1225.33769	0.03730
1224.05192	0.03706
1222.76615	0.03683
1221.48039	0.03660
1220.19462	0.03636
1218.90885	0.03612
1217.62308	0.03591
1216.33731	0.03573
1215.05154	0.03555
1213.76577	0.03535
1212.48000	0.03512
1211.19423	0.03492
1209.90847	0.03477
1208.62270	0.03472
1207.33693	0.03473
1206.05116	0.03474
1204.76539	0.03471
1203.47962	0.03463
1202.19385	0.03452
1200.90808	0.03448
1199.62232	0.03454
1198.33655	0.03445
1197.05078	0.03428
1195.76501	0.03403
1194.47924	0.03374
1193.19347	0.03348
1191.90770	0.03330
1190.62193	0.03320
1189.33616	0.03316
1188.05040	0.03313
1186.76463	0.03308
1185.47886	0.03300
1184.19309	0.03291
1182.90732	0.03283
1181.62155	0.03281
1180.33578	0.03283
1179.05001	0.03286
1177.76425	0.03287
1176.47848	0.03282
1175.19271	0.03275
1173.90694	0.03273
1172.62117	0.03281
1171.33540	0.03301
1170.04963	0.03328
1168.76386	0.03357
1167.47809	0.03381
1166.19233	0.03400
1164.90656	0.03415
1163.62079	0.03427
1162.33502	0.03437
1161.04925	0.03451
1159.76348	0.03470
1158.47771	0.03490
1157.19194	0.03504
1155.90618	0.03512
1154.62041	0.03516
1153.33464	0.03518
1152.04887	0.03520
1150.76310	0.03525
1149.47733	0.03528
1148.19156	0.03529
1146.90579	0.03526
1145.62002	0.03520
1144.33426	0.03516
1143.04849	0.03514
1141.76272	0.03514
1140.47695	0.03516
1139.19118	0.03520
1137.90541	0.03527
1136.61964	0.03537
1135.33387	0.03550
1134.04811	0.03567
1132.76234	0.03595
1131.47657	0.03635
1130.19080	0.03685
1128.90503	0.03737
1127.61926	0.03786
1126.33349	0.03834
1125.04772	0.03889
1123.76195	0.03957
1122.47619	0.04037
1121.19042	0.04123
1119.90465	0.04208
1118.61888	0.04293
1117.33311	0.04376
1116.04734	0.04458
1114.76157	0.04540
1113.47580	0.04626
1112.19004	0.04716
1110.90427	0.04807
1109.61850	0.04894
1108.33273	0.04975
1107.04696	0.05050
1105.76119	0.05121
1104.47542	0.05190
1103.18965	0.05257
1101.90388	0.05323
1100.61812	0.05388
1099.33235	0.05448
1098.04658	0.05501
1096.76081	0.05547
1095.47504	0.05582
1094.18927	0.05608
1092.90350	0.05624
1091.61773	0.05629
1090.33197	0.05626
1089.04620	0.05619
1087.76043	0.05614
1086.47466	0.05616
1085.18889	0.05630
1083.90312	0.05661
1082.61735	0.05710
1081.33158	0.05773
1080.04581	0.05840
1078.76005	0.05908
1077.47428	0.05977
1076.18851	0.06047
1074.90274	0.06113
1073.61697	0.06171
1072.33120	0.06221
1071.04543	0.06267
1069.75966	0.06314
1068.47390	0.06363
1067.18813	0.06413
1065.90236	0.06464
1064.61659	0.06513
1063.33082	0.06561
1062.04505	0.06610
1060.75928	0.06663
1059.47351	0.06719
1058.18774	0.06774
1056.90198	0.06826
1055.61621	0.06877
1054.33044	0.06930
1053.04467	0.06986
1051.75890	0.07043
1050.47313	0.07096
1049.18736	0.07147
1047.90159	0.07203
1046.61583	0.07269
1045.33006	0.07343
1044.04429	0.07418
1042.75852	0.07491
1041.47275	0.07561
1040.18698	0.07631
1038.90121	0.07700
1037.61544	0.07769
1036.32967	0.07841
1035.04391	0.07915
1033.75814	0.07992
1032.47237	0.08065
1031.18660	0.08127
1029.90083	0.08169
1028.61506	0.08183
1027.32929	0.08166
1026.04352	0.08125
1024.75775	0.08069
1023.47199	0.08000
1022.18622	0.07916
1020.90045	0.07811
1019.61468	0.07688
1018.32891	0.07554
1017.04314	0.07414
1015.75737	0.07271
1014.47160	0.07132
1013.18584	0.07002
1011.90007	0.06878
1010.61430	0.06756
1009.32853	0.06633
1008.04276	0.06509
1006.75699	0.06385
1005.47122	0.06267
1004.18545	0.06155
1002.89968	0.06050
1001.61392	0.05951
1000.32815	0.05856
999.04238	0.05767
997.75661	0.05684
996.47084	0.05603
995.18507	0.05523
993.89930	0.05449
992.61353	0.05381
991.32777	0.05316
990.04200	0.05249
988.75623	0.05182
987.47046	0.05118
986.18469	0.05059
984.89892	0.05006
983.61315	0.04962
982.32738	0.04924
981.04161	0.04888
979.75585	0.04846
978.47008	0.04799
977.18431	0.04753
975.89854	0.04716
974.61277	0.04688
973.32700	0.04664
972.04123	0.04643
970.75546	0.04635
969.46970	0.04649
968.18393	0.04686
966.89816	0.04728
965.61239	0.04754
964.32662	0.04750
963.04085	0.04717
961.75508	0.04668
960.46931	0.04620
959.18354	0.04582
957.89778	0.04552
956.61201	0.04524
955.32624	0.04489
954.04047	0.04447
952.75470	0.04399
951.46893	0.04348
950.18316	0.04297
948.89739	0.04250
947.61163	0.04214
946.32586	0.04191
945.04009	0.04178
943.75432	0.04163
942.46855	0.04137
941.18278	0.04104
939.89701	0.04070
938.61124	0.04040
937.32547	0.04006
936.03971	0.03965
934.75394	0.03917
933.46817	0.03873
932.18240	0.03840
930.89663	0.03816
929.61086	0.03794
928.32509	0.03764
927.03932	0.03725
925.75356	0.03681
924.46779	0.03636
923.18202	0.03597
921.89625	0.03569
920.61048	0.03550
919.32471	0.03535
918.03894	0.03515
916.75317	0.03486
915.46740	0.03455
914.18164	0.03425
912.89587	0.03396
911.61010	0.03367
910.32433	0.03340
909.03856	0.03315
907.75279	0.03292
906.46702	0.03269
905.18125	0.03246
903.89549	0.03222
902.60972	0.03196
901.32395	0.03171
900.03818	0.03156
898.75241	0.03156
897.46664	0.03162
896.18087	0.03158
894.89510	0.03139
893.60933	0.03113
892.32357	0.03090
891.03780	0.03074
889.75203	0.03061
888.46626	0.03047
887.18049	0.03037
885.89472	0.03037
884.60895	0.03048
883.32318	0.03060
882.03742	0.03063
880.75165	0.03058
879.46588	0.03053
878.18011	0.03051
876.89434	0.03050
875.60857	0.03048
874.32280	0.03042
873.03703	0.03034
871.75126	0.03028
870.46550	0.03028
869.17973	0.03034
867.89396	0.03037
866.60819	0.03028
865.32242	0.03005
864.03665	0.02982
862.75088	0.02973
861.46511	0.02969
860.17935	0.02957
858.89358	0.02931
857.60781	0.02902
856.32204	0.02883
855.03627	0.02876
853.75050	0.02872
852.46473	0.02865
851.17896	0.02854
849.89319	0.02839
848.60743	0.02818
847.32166	0.02791
846.03589	0.02762
844.75012	0.02736
843.46435	0.02716
842.17858	0.02703
840.89281	0.02694
839.60704	0.02683
838.32128	0.02667
837.03551	0.02646
835.74974	0.02627
834.46397	0.02616
833.17820	0.02610
831.89243	0.02606
830.60666	0.02604
829.32089	0.02600
828.03512	0.02593
826.74936	0.02585
825.46359	0.02579
824.17782	0.02576
822.89205	0.02572
821.60628	0.02564
820.32051	0.02555
819.03474	0.02545
817.74897	0.02532
816.46321	0.02514
815.17744	0.02496
813.89167	0.02487
812.60590	0.02489
811.32013	0.02496
810.03436	0.02500
808.74859	0.02496
807.46282	0.02489
806.17705	0.02486
804.89129	0.02489
803.60552	0.02498
802.31975	0.02509
801.03398	0.02518
799.74821	0.02519
798.46244	0.02509
797.17667	0.02492
795.89090	0.02477
794.60513	0.02469
793.31937	0.02466
792.03360	0.02463
790.74783	0.02457
789.46206	0.02449
788.17629	0.02445
786.89052	0.02449
785.60475	0.02460
784.31898	0.02470
783.03322	0.02472
781.74745	0.02468
780.46168	0.02466
779.17591	0.02468
777.89014	0.02470
776.60437	0.02468
775.31860	0.02464
774.03283	0.02462
772.74706	0.02463
771.46130	0.02469
770.17553	0.02478
768.88976	0.02489
767.60399	0.02497
766.31822	0.02500
765.03245	0.02502
763.74668	0.02505
762.46091	0.02512
761.17515	0.02522
759.88938	0.02530
758.60361	0.02537
757.31784	0.02543
756.03207	0.02549
754.74630	0.02552
753.46053	0.02551
752.17476	0.02546
750.88899	0.02543
749.60323	0.02542
748.31746	0.02543
747.03169	0.02544
745.74592	0.02542
744.46015	0.02538
743.17438	0.02535
741.88861	0.02536
740.60284	0.02538
739.31708	0.02539
738.03131	0.02539
736.74554	0.02543
735.45977	0.02550
734.17400	0.02549
732.88823	0.02539
731.60246	0.02527
730.31669	0.02525
729.03092	0.02539
727.74516	0.02561
726.45939	0.02583
725.17362	0.02598
723.88785	0.02606
722.60208	0.02612
721.31631	0.02619
720.03054	0.02623
718.74477	0.02618
717.45901	0.02604
716.17324	0.02586
714.88747	0.02570
713.60170	0.02562
712.31593	0.02563
711.03016	0.02573
709.74439	0.02587
708.45862	0.02602
707.17285	0.02614
705.88709	0.02624
704.60132	0.02631
703.31555	0.02638
702.02978	0.02643
700.74401	0.02646
699.45824	0.02650
698.17247	0.02654
696.88670	0.02659
695.60094	0.02663
694.31517	0.02664
693.02940	0.02661
691.74363	0.02655
690.45786	0.02647
689.17209	0.02638
687.88632	0.02633
686.60055	0.02632
685.31478	0.02635
684.02902	0.02640
682.74325	0.02638
681.45748	0.02632
680.17171	0.02622
678.88594	0.02614
677.60017	0.02616
676.31440	0.02623
675.02863	0.02634
673.74287	0.02643
672.45710	0.02648
671.17133	0.02648
669.88556	0.02647
668.59979	0.02647
667.31402	0.02655
666.02825	0.02655
664.74248	0.02654
663.45671	0.02657
662.17095	0.02664
660.88518	0.02672
659.59941	0.02680
658.31364	0.02683
657.02787	0.02684
655.74210	0.02685
654.45633	0.02686
653.17056	0.02685
651.88480	0.02683
650.59903	0.02678
649.31326	0.02672
648.02749	0.02667
646.74172	0.02662
645.45595	0.02656
644.17018	0.02650
642.88441	0.02647
641.59864	0.02646
640.31288	0.02646
639.02711	0.02646
637.74134	0.02644
636.45557	0.02639
635.16980	0.02635
633.88403	0.02636
632.59826	0.02646
631.31249	0.02647
630.02673	0.02590
628.74096	0.02516
627.45519	0.02594
626.16942	0.02488
624.88365	0.02253
623.59788	0.02047
622.31211	0.01962
621.02634	0.02007
619.74057	0.02100
618.45481	0.02164
617.16904	0.02200
615.88327	0.02266
614.59750	0.02397
613.31173	0.02587
612.02596	0.02824
610.74019	0.03102
609.45442	0.03395
608.16866	0.03629
606.88289	0.03735
605.59712	0.03721
604.31135	0.03663
603.02558	0.03638
601.73981	0.03663
600.45404	0.03701
599.16827	0.03710
597.88250	0.03681
596.59674	0.03633
595.31097	0.03589
594.02520	0.03558
592.73943	0.03542
591.45366	0.03532
590.16789	0.03520
588.88212	0.03498
587.59635	0.03474
586.31059	0.03464
585.02482	0.03484
583.73905	0.03538
582.45328	0.03620
581.16751	0.03723
579.88174	0.03834
578.59597	0.03936
577.31020	0.04011
576.02443	0.04057
574.73867	0.04080
573.45290	0.04091
572.16713	0.04100
570.88136	0.04121
569.59559	0.04163
568.30982	0.04227
567.02405	0.04303
565.73828	0.04372
564.45251	0.04421
563.16675	0.04444
561.88098	0.04447
560.59521	0.04434
559.30944	0.04407
558.02367	0.04364
556.73790	0.04309
555.45213	0.04249
554.16636	0.04194
552.88060	0.04145
551.59483	0.04101
550.30906	0.04058
549.02329	0.04015
547.73752	0.03976
546.45175	0.03946
545.16598	0.03922
543.88021	0.03898
542.59444	0.03874
541.30868	0.03855
540.02291	0.03847
538.73714	0.03842
537.45137	0.03831
536.16560	0.03807
534.87983	0.03777
533.59406	0.03749
532.30829	0.03729
531.02253	0.03717
529.73676	0.03713
528.45099	0.03715
527.16522	0.03717
525.87945	0.03712
524.59368	0.03697
523.30791	0.03676
522.02214	0.03657
520.73637	0.03640
519.45061	0.03621
518.16484	0.03596
516.87907	0.03564
515.59330	0.03535
514.30753	0.03515
513.02176	0.03508
511.73599	0.03509
510.45022	0.03515
509.16446	0.03516
507.87869	0.03501
506.59292	0.03461
505.30715	0.03402
504.02138	0.03345
502.73561	0.03303
501.44984	0.03280
500.16407	0.03271
498.87830	0.03266
497.59254	0.03255
496.30677	0.03237
495.02100	0.03213
493.73523	0.03188
492.44946	0.03163
491.16369	0.03137
489.87792	0.03107
488.59215	0.03079
487.30639	0.03056
486.02062	0.03038
484.73485	0.03022
483.44908	0.03003
482.16331	0.02983
480.87754	0.02965
479.59177	0.02952
478.30600	0.02942
477.02023	0.02935
475.73447	0.02931
474.44870	0.02932
473.16293	0.02932
471.87716	0.02927
470.59139	0.02913
469.30562	0.02896
468.01985	0.02881
466.73408	0.02867
465.44832	0.02849
464.16255	0.02824
462.87678	0.02795
461.59101	0.02769
460.30524	0.02750
459.01947	0.02736
457.73370	0.02726
456.44793	0.02716
455.16216	0.02702
453.87640	0.02685
452.59063	0.02665
451.30486	0.02645
450.01909	0.02625
448.73332	0.02607
447.44755	0.02591
446.16178	0.02576
444.87601	0.02562
443.59025	0.02550
442.30448	0.02541
441.01871	0.02533
439.73294	0.02521
438.44717	0.02506
437.16140	0.02491
435.87563	0.02482
434.58986	0.02477
433.30409	0.02472
432.01833	0.02466
430.73256	0.02459
429.44679	0.02449
428.16102	0.02436
426.87525	0.02417
425.58948	0.02395
424.30371	0.02373
423.01794	0.02356
421.73218	0.02344
420.44641	0.02337
419.16064	0.02332
417.87487	0.02330
416.58910	0.02327
415.30333	0.02321
414.01756	0.02311
412.73179	0.02296
411.44602	0.02277
410.16026	0.02259
408.87449	0.02244
407.58872	0.02232
406.30295	0.02223
405.01718	0.02216
403.73141	0.02210
402.44564	0.02207
401.15987	0.02203
399.87411	0.02198
