3997.45528	0.02549
3996.16951	0.02494
3994.88374	0.02431
3993.59798	0.02376
3992.31221	0.02345
3991.02644	0.02336
3989.74067	0.02350
3988.45490	0.02398
3987.16913	0.02489
3985.88336	0.02603
3984.59759	0.02700
3983.31183	0.02744
3982.02606	0.02724
3980.74029	0.02662
3979.45452	0.02594
3978.16875	0.02549
3976.88298	0.02533
3975.59721	0.02538
3974.31144	0.02551
3973.02567	0.02562
3971.73991	0.02568
3970.45414	0.02566
3969.16837	0.02559
3967.88260	0.02551
3966.59683	0.02543
3965.31106	0.02528
3964.02529	0.02511
3962.73952	0.02506
3961.45376	0.02528
3960.16799	0.02567
3958.88222	0.02590
3957.59645	0.02571
3956.31068	0.02515
3955.02491	0.02451
3953.73914	0.02406
3952.45337	0.02387
3951.16760	0.02391
3949.88184	0.02424
3948.59607	0.02491
3947.31030	0.02575
3946.02453	0.02634
3944.73876	0.02632
3943.45299	0.02573
3942.16722	0.02501
3940.88145	0.02454
3939.59569	0.02437
3938.30992	0.02430
3937.02415	0.02409
3935.73838	0.02372
3934.45261	0.02328
3933.16684	0.02297
3931.88107	0.02290
3930.59530	0.02312
3929.30953	0.02348
3928.02377	0.02375
3926.73800	0.02386
3925.45223	0.02384
3924.16646	0.02376
3922.88069	0.02360
3921.59492	0.02340
3920.30915	0.02327
3919.02338	0.02330
3917.73762	0.02345
3916.45185	0.02365
3915.16608	0.02389
3913.88031	0.02417
3912.59454	0.02456
3911.30877	0.02510
3910.02300	0.02561
3908.73723	0.02579
3907.45146	0.02554
3906.16570	0.02504
3904.87993	0.02450
3903.59416	0.02403
3902.30839	0.02361
3901.02262	0.02321
3899.73685	0.02293
3898.45108	0.02284
3897.16531	0.02301
3895.87955	0.02349
3894.59378	0.02416
3893.30801	0.02464
3892.02224	0.02452
3890.73647	0.02381
3889.45070	0.02290
3888.16493	0.02220
3886.87916	0.02205
3885.59339	0.02254
3884.30763	0.02336
3883.02186	0.02399
3881.73609	0.02418
3880.45032	0.02418
3879.16455	0.02425
3877.87878	0.02436
3876.59301	0.02436
3875.30724	0.02432
3874.02148	0.02433
3872.73571	0.02428
3871.44994	0.02398
3870.16417	0.02346
3868.87840	0.02282
3867.59263	0.02208
3866.30686	0.02135
3865.02109	0.02097
3863.73532	0.02117
3862.44956	0.02174
3861.16379	0.02237
3859.87802	0.02293
3858.59225	0.02333
3857.30648	0.02336
3856.02071	0.02282
3854.73494	0.02198
3853.44917	0.02144
3852.16341	0.02146
3850.87764	0.02171
3849.59187	0.02183
3848.30610	0.02190
3847.02033	0.02214
3845.73456	0.02261
3844.44879	0.02323
3843.16302	0.02382
3841.87725	0.02424
3840.59149	0.02436
3839.30572	0.02414
3838.01995	0.02363
3836.73418	0.02293
3835.44841	0.02215
3834.16264	0.02153
3832.87687	0.02138
3831.59110	0.02180
3830.30534	0.02244
3829.01957	0.02284
3827.73380	0.02296
3826.44803	0.02316
3825.16226	0.02369
3823.87649	0.02427
3822.59072	0.02451
3821.30495	0.02439
3820.01918	0.02418
3818.73342	0.02393
3817.44765	0.02363
3816.16188	0.02345
3814.87611	0.02353
3813.59034	0.02367
3812.30457	0.02364
3811.01880	0.02352
3809.73303	0.02346
3808.44726	0.02349
3807.16150	0.02370
3805.87573	0.02406
3804.58996	0.02425
3803.30419	0.02393
3802.01842	0.02323
3800.73265	0.02261
3799.44688	0.02227
3798.16111	0.02213
3796.87535	0.02215
3795.58958	0.02238
3794.30381	0.02267
3793.01804	0.02284
3791.73227	0.02283
3790.44650	0.02276
3789.16073	0.02269
3787.87496	0.02257
3786.58919	0.02236
3785.30343	0.02221
3784.01766	0.02238
3782.73189	0.02289
3781.44612	0.02348
3780.16035	0.02380
3778.87458	0.02367
3777.58881	0.02319
3776.30304	0.02260
3775.01728	0.02218
3773.73151	0.02200
3772.44574	0.02200
3771.15997	0.02202
3769.87420	0.02206
3768.58843	0.02210
3767.30266	0.02207
3766.01689	0.02193
3764.73112	0.02169
3763.44536	0.02141
3762.15959	0.02119
3760.87382	0.02115
3759.58805	0.02126
3758.30228	0.02130
3757.01651	0.02123
3755.73074	0.02121
3754.44497	0.02126
3753.15921	0.02123
3751.87344	0.02099
3750.58767	0.02061
3749.30190	0.02031
3748.01613	0.02013
3746.73036	0.01979
3745.44459	0.01923
3744.15882	0.01893
3742.87305	0.01908
3741.58729	0.01933
3740.30152	0.01945
3739.01575	0.01952
3737.72998	0.01962
3736.44421	0.01972
3735.15844	0.01972
3733.87267	0.01959
3732.58690	0.01952
3731.30114	0.01980
3730.01537	0.02028
3728.72960	0.02058
3727.44383	0.02064
3726.15806	0.02072
3724.87229	0.02099
3723.58652	0.02128
3722.30075	0.02135
3721.01498	0.02115
3719.72922	0.02078
3718.44345	0.02048
3717.15768	0.02052
3715.87191	0.02086
3714.58614	0.02117
3713.30037	0.02117
3712.01460	0.02094
3710.72883	0.02085
3709.44307	0.02108
3708.15730	0.02152
3706.87153	0.02190
3705.58576	0.02196
3704.29999	0.02162
3703.01422	0.02113
3701.72845	0.02086
3700.44268	0.02097
3699.15691	0.02134
3697.87115	0.02182
3696.58538	0.02223
3695.29961	0.02219
3694.01384	0.02153
3692.72807	0.02064
3691.44230	0.02004
3690.15653	0.01985
3688.87076	0.01999
3687.58500	0.02034
3686.29923	0.02068
3685.01346	0.02091
3683.72769	0.02111
3682.44192	0.02134
3681.15615	0.02157
3679.87038	0.02169
3678.58461	0.02160
3677.29884	0.02135
3676.01308	0.02123
3674.72731	0.02142
3673.44154	0.02158
3672.15577	0.02128
3670.87000	0.02076
3669.58423	0.02064
3668.29846	0.02103
3667.01269	0.02150
3665.72693	0.02170
3664.44116	0.02164
3663.15539	0.02150
3661.86962	0.02140
3660.58385	0.02143
3659.29808	0.02154
3658.01231	0.02171
3656.72654	0.02192
3655.44077	0.02218
3654.15501	0.02223
3652.86924	0.02178
3651.58347	0.02085
3650.29770	0.01988
3649.01193	0.01931
3647.72616	0.01925
3646.44039	0.01949
3645.15462	0.01978
3643.86886	0.01995
3642.58309	0.01993
3641.29732	0.01981
3640.01155	0.01985
3638.72578	0.02030
3637.44001	0.02111
3636.15424	0.02195
3634.86847	0.02249
3633.58270	0.02260
3632.29694	0.02227
3631.01117	0.02166
3629.72540	0.02113
3628.43963	0.02101
3627.15386	0.02116
3625.86809	0.02110
3624.58232	0.02067
3623.29655	0.02021
3622.01079	0.02009
3620.72502	0.02040
3619.43925	0.02096
3618.15348	0.02156
3616.86771	0.02212
3615.58194	0.02260
3614.29617	0.02291
3613.01040	0.02288
3611.72463	0.02251
3610.43887	0.02201
3609.15310	0.02172
3607.86733	0.02182
3606.58156	0.02222
3605.29579	0.02266
3604.01002	0.02290
3602.72425	0.02291
3601.43848	0.02282
3600.15272	0.02288
3598.86695	0.02320
3597.58118	0.02378
3596.29541	0.02449
3595.00964	0.02512
3593.72387	0.02540
3592.43810	0.02526
3591.15233	0.02480
3589.86656	0.02417
3588.58080	0.02368
3587.29503	0.02374
3586.00926	0.02446
3584.72349	0.02545
3583.43772	0.02615
3582.15195	0.02619
3580.86618	0.02571
3579.58041	0.02523
3578.29464	0.02517
3577.00888	0.02549
3575.72311	0.02584
3574.43734	0.02598
3573.15157	0.02598
3571.86580	0.02607
3570.58003	0.02631
3569.29426	0.02658
3568.00849	0.02677
3566.72273	0.02686
3565.43696	0.02684
3564.15119	0.02675
3562.86542	0.02673
3561.57965	0.02698
3560.29388	0.02753
3559.00811	0.02824
3557.72234	0.02886
3556.43657	0.02927
3555.15081	0.02940
3553.86504	0.02926
3552.57927	0.02895
3551.29350	0.02864
3550.00773	0.02845
3548.72196	0.02838
3547.43619	0.02844
3546.15042	0.02864
3544.86466	0.02894
3543.57889	0.02917
3542.29312	0.02919
3541.00735	0.02902
3539.72158	0.02888
3538.43581	0.02897
3537.15004	0.02935
3535.86427	0.02989
3534.57850	0.03036
3533.29274	0.03054
3532.00697	0.03043
3530.72120	0.03021
3529.43543	0.03006
3528.14966	0.03004
3526.86389	0.03021
3525.57812	0.03057
3524.29235	0.03104
3523.00659	0.03137
3521.72082	0.03141
3520.43505	0.03131
3519.14928	0.03136
3517.86351	0.03170
3516.57774	0.03215
3515.29197	0.03240
3514.00620	0.03235
3512.72043	0.03221
3511.43467	0.03221
3510.14890	0.03238
3508.86313	0.03261
3507.57736	0.03278
3506.29159	0.03290
3505.00582	0.03305
3503.72005	0.03327
3502.43428	0.03350
3501.14852	0.03360
3499.86275	0.03352
3498.57698	0.03331
3497.29121	0.03313
3496.00544	0.03315
3494.71967	0.03342
3493.43390	0.03386
3492.14813	0.03432
3490.86236	0.03462
3489.57660	0.03467
3488.29083	0.03448
3487.00506	0.03419
3485.71929	0.03399
3484.43352	0.03395
3483.14775	0.03400
3481.86198	0.03396
3480.57621	0.03373
3479.29045	0.03337
3478.00468	0.03312
3476.71891	0.03316
3475.43314	0.03348
3474.14737	0.03395
3472.86160	0.03443
3471.57583	0.03484
3470.29006	0.03512
3469.00429	0.03521
3467.71853	0.03509
3466.43276	0.03482
3465.14699	0.03460
3463.86122	0.03459
3462.57545	0.03479
3461.28968	0.03511
3460.00391	0.03544
3458.71814	0.03577
3457.43238	0.03612
3456.14661	0.03643
3454.86084	0.03656
3453.57507	0.03643
3452.28930	0.03612
3451.00353	0.03583
3449.71776	0.03566
3448.43199	0.03560
3447.14622	0.03556
3445.86046	0.03551
3444.57469	0.03544
3443.28892	0.03546
3442.00315	0.03571
3440.71738	0.03628
3439.43161	0.03709
3438.14584	0.03791
3436.86007	0.03851
3435.57431	0.03878
3434.28854	0.03877
3433.00277	0.03863
3431.71700	0.03843
3430.43123	0.03813
3429.14546	0.03776
3427.85969	0.03752
3426.57392	0.03765
3425.28815	0.03810
3424.00239	0.03857
3422.71662	0.03883
3421.43085	0.03898
3420.14508	0.03921
3418.85931	0.03953
3417.57354	0.03970
3416.28777	0.03956
3415.00200	0.03919
3413.71624	0.03881
3412.43047	0.03859
3411.14470	0.03862
3409.85893	0.03885
3408.57316	0.03917
3407.28739	0.03947
3406.00162	0.03978
3404.71585	0.04017
3403.43008	0.04059
3402.14432	0.04090
3400.85855	0.04106
3399.57278	0.04118
3398.28701	0.04128
3397.00124	0.04141
3395.71547	0.04155
3394.42970	0.04166
3393.14393	0.04172
3391.85817	0.04171
3390.57240	0.04166
3389.28663	0.04164
3388.00086	0.04164
3386.71509	0.04160
3385.42932	0.04152
3384.14355	0.04148
3382.85778	0.04154
3381.57201	0.04174
3380.28625	0.04208
3379.00048	0.04256
3377.71471	0.04311
3376.42894	0.04357
3375.14317	0.04383
3373.85740	0.04394
3372.57163	0.04402
3371.28586	0.04409
3370.00010	0.04406
3368.71433	0.04384
3367.42856	0.04354
3366.14279	0.04343
3364.85702	0.04367
3363.57125	0.04420
3362.28548	0.04478
3360.99971	0.04525
3359.71394	0.04559
3358.42818	0.04595
3357.14241	0.04643
3355.85664	0.04693
3354.57087	0.04724
3353.28510	0.04728
3351.99933	0.04711
3350.71356	0.04689
3349.42779	0.04682
3348.14202	0.04705
3346.85626	0.04762
3345.57049	0.04832
3344.28472	0.04887
3342.99895	0.04916
3341.71318	0.04926
3340.42741	0.04931
3339.14164	0.04941
3337.85587	0.04960
3336.57011	0.04977
3335.28434	0.04985
3333.99857	0.04990
3332.71280	0.05007
3331.42703	0.05040
3330.14126	0.05071
3328.85549	0.05077
3327.56972	0.05056
3326.28395	0.05030
3324.99819	0.05027
3323.71242	0.05061
3322.42665	0.05124
3321.14088	0.05183
3319.85511	0.05207
3318.56934	0.05190
3317.28357	0.05164
3315.99780	0.05164
3314.71204	0.05198
3313.42627	0.05247
3312.14050	0.05293
3310.85473	0.05330
3309.56896	0.05361
3308.28319	0.05383
3306.99742	0.05386
3305.71165	0.05363
3304.42588	0.05322
3303.14012	0.05283
3301.85435	0.05272
3300.56858	0.05291
3299.28281	0.05320
3297.99704	0.05332
3296.71127	0.05320
3295.42550	0.05298
3294.13973	0.05291
3292.85397	0.05317
3291.56820	0.05368
3290.28243	0.05416
3288.99666	0.05432
3287.71089	0.05413
3286.42512	0.05381
3285.13935	0.05364
3283.85358	0.05373
3282.56781	0.05398
3281.28205	0.05420
3279.99628	0.05421
3278.71051	0.05399
3277.42474	0.05364
3276.13897	0.05335
3274.85320	0.05319
3273.56743	0.05311
3272.28166	0.05302
3270.99590	0.05293
3269.71013	0.05285
3268.42436	0.05275
3267.13859	0.05266
3265.85282	0.05266
3264.56705	0.05277
3263.28128	0.05286
3261.99551	0.05284
3260.70974	0.05283
3259.42398	0.05301
3258.13821	0.05336
3256.85244	0.05362
3255.56667	0.05363
3254.28090	0.05346
3252.99513	0.05327
3251.70936	0.05313
3250.42359	0.05303
3249.13783	0.05293
3247.85206	0.05280
3246.56629	0.05255
3245.28052	0.05213
3243.99475	0.05154
3242.70898	0.05082
3241.42321	0.05008
3240.13744	0.04949
3238.85167	0.04928
3237.56591	0.04944
3236.28014	0.04977
3234.99437	0.04996
3233.70860	0.04995
3232.42283	0.04986
3231.13706	0.04989
3229.85129	0.05003
3228.56552	0.05018
3227.27976	0.05024
3225.99399	0.05024
3224.70822	0.05027
3223.42245	0.05034
3222.13668	0.05035
3220.85091	0.05025
3219.56514	0.05011
3218.27937	0.04998
3216.99360	0.04981
3215.70784	0.04953
3214.42207	0.04921
3213.13630	0.04902
3211.85053	0.04896
3210.56476	0.04884
3209.27899	0.04846
3207.99322	0.04790
3206.70745	0.04746
3205.42169	0.04734
3204.13592	0.04749
3202.85015	0.04765
3201.56438	0.04769
3200.27861	0.04766
3198.99284	0.04769
3197.70707	0.04778
3196.42130	0.04782
3195.13553	0.04763
3193.84977	0.04716
3192.56400	0.04669
3191.27823	0.04657
3189.99246	0.04693
3188.70669	0.04752
3187.42092	0.04789
3186.13515	0.04778
3184.84938	0.04730
3183.56362	0.04678
3182.27785	0.04642
3180.99208	0.04621
3179.70631	0.04607
3178.42054	0.04600
3177.13477	0.04604
3175.84900	0.04612
3174.56323	0.04607
3173.27746	0.04577
3171.99170	0.04524
3170.70593	0.04474
3169.42016	0.04450
3168.13439	0.04459
3166.84862	0.04483
3165.56285	0.04503
3164.27708	0.04518
3162.99131	0.04538
3161.70555	0.04558
3160.41978	0.04560
3159.13401	0.04533
3157.84824	0.04491
3156.56247	0.04456
3155.27670	0.04438
3153.99093	0.04429
3152.70516	0.04416
3151.41939	0.04390
3150.13363	0.04352
3148.84786	0.04312
3147.56209	0.04283
3146.27632	0.04267
3144.99055	0.04253
3143.70478	0.04231
3142.41901	0.04208
3141.13324	0.04192
3139.84748	0.04186
3138.56171	0.04181
3137.27594	0.04174
3135.99017	0.04164
3134.70440	0.04153
3133.41863	0.04146
3132.13286	0.04146
3130.84709	0.04147
3129.56132	0.04140
3128.27556	0.04124
3126.98979	0.04113
3125.70402	0.04126
3124.41825	0.04158
3123.13248	0.04186
3121.84671	0.04190
3120.56094	0.04177
3119.27517	0.04168
3117.98940	0.04175
3116.70364	0.04189
3115.41787	0.04192
3114.13210	0.04165
3112.84633	0.04112
3111.56056	0.04058
3110.27479	0.04033
3108.98902	0.04045
3107.70325	0.04076
3106.41749	0.04100
3105.13172	0.04108
3103.84595	0.04107
3102.56018	0.04109
3101.27441	0.04120
3099.98864	0.04134
3098.70287	0.04141
3097.41710	0.04138
3096.13133	0.04131
3094.84557	0.04126
3093.55980	0.04117
3092.27403	0.04103
3090.98826	0.04095
3089.70249	0.04106
3088.41672	0.04130
3087.13095	0.04148
3085.84518	0.04144
3084.55942	0.04121
3083.27365	0.04098
3081.98788	0.04089
3080.70211	0.04098
3079.41634	0.04120
3078.13057	0.04146
3076.84480	0.04167
3075.55903	0.04175
3074.27326	0.04171
3072.98750	0.04158
3071.70173	0.04148
3070.41596	0.04144
3069.13019	0.04142
3067.84442	0.04135
3066.55865	0.04129
3065.27288	0.04135
3063.98711	0.04154
3062.70135	0.04170
3061.41558	0.04173
3060.12981	0.04162
3058.84404	0.04146
3057.55827	0.04130
3056.27250	0.04116
3054.98673	0.04107
3053.70096	0.04103
3052.41519	0.04103
3051.12943	0.04101
3049.84366	0.04099
3048.55789	0.04096
3047.27212	0.04086
3045.98635	0.04062
3044.70058	0.04035
3043.41481	0.04022
3042.12904	0.04030
3040.84328	0.04044
3039.55751	0.04039
3038.27174	0.04013
3036.98597	0.03977
3035.70020	0.03941
3034.41443	0.03911
3033.12866	0.03895
3031.84289	0.03898
3030.55712	0.03912
3029.27136	0.03919
3027.98559	0.03906
3026.69982	0.03880
3025.41405	0.03850
3024.12828	0.03823
3022.84251	0.03800
3021.55674	0.03791
3020.27097	0.03803
3018.98521	0.03832
3017.69944	0.03860
3016.41367	0.03876
3015.12790	0.03883
3013.84213	0.03880
3012.55636	0.03862
3011.27059	0.03826
3009.98482	0.03783
3008.69905	0.03751
3007.41329	0.03736
3006.12752	0.03736
3004.84175	0.03738
3003.55598	0.03737
3002.27021	0.03734
3000.98444	0.03732
2999.69867	0.03735
2998.41290	0.03754
2997.12714	0.03773
2995.84137	0.03790
2994.55560	0.03802
2993.26983	0.03801
2991.98406	0.03784
2990.69829	0.03758
2989.41252	0.03738
2988.12675	0.03738
2986.84098	0.03762
2985.55522	0.03807
2984.26945	0.03854
2982.98368	0.03883
2981.69791	0.03884
2980.41214	0.03869
2979.12637	0.03860
2977.84060	0.03868
2976.55483	0.03887
2975.26907	0.03907
2973.98330	0.03919
2972.69753	0.03926
2971.41176	0.03930
2970.12599	0.03936
2968.84022	0.03944
2967.55445	0.03952
2966.26868	0.03965
2964.98291	0.03988
2963.69715	0.04024
2962.41138	0.04062
2961.12561	0.04091
2959.83984	0.04107
2958.55407	0.04124
2957.26830	0.04143
2955.98253	0.04151
2954.69676	0.04136
2953.41100	0.04106
2952.12523	0.04082
2950.83946	0.04080
2949.55369	0.04093
2948.26792	0.04103
2946.98215	0.04095
2945.69638	0.04073
2944.41061	0.04053
2943.12484	0.04052
2941.83908	0.04075
2940.55331	0.04115
2939.26754	0.04157
2937.98177	0.04190
2936.69600	0.04206
2935.41023	0.04208
2934.12446	0.04198
2932.83869	0.04179
2931.55293	0.04158
2930.26716	0.04149
2928.98139	0.04156
2927.69562	0.04165
2926.40985	0.04155
2925.12408	0.04121
2923.83831	0.04085
2922.55254	0.04072
2921.26677	0.04089
2919.98101	0.04121
2918.69524	0.04149
2917.40947	0.04162
2916.12370	0.04154
2914.83793	0.04130
2913.55216	0.04102
2912.26639	0.04081
2910.98062	0.04061
2909.69486	0.04035
2908.40909	0.04002
2907.12332	0.03971
2905.83755	0.03953
2904.55178	0.03949
2903.26601	0.03948
2901.98024	0.03940
2900.69447	0.03923
2899.40870	0.03902
2898.12294	0.03878
2896.83717	0.03847
2895.55140	0.03814
2894.26563	0.03794
2892.97986	0.03803
2891.69409	0.03832
2890.40832	0.03861
2889.12255	0.03878
2887.83678	0.03882
2886.55102	0.03878
2885.26525	0.03867
2883.97948	0.03857
2882.69371	0.03852
2881.40794	0.03850
2880.12217	0.03845
2878.83640	0.03837
2877.55063	0.03835
2876.26487	0.03841
2874.97910	0.03854
2873.69333	0.03866
2872.40756	0.03876
2871.12179	0.03885
2869.83602	0.03891
2868.55025	0.03892
2867.26448	0.03886
2865.97871	0.03874
2864.69295	0.03858
2863.40718	0.03834
2862.12141	0.03800
2860.83564	0.03757
2859.54987	0.03712
2858.26410	0.03674
2856.97833	0.03648
2855.69256	0.03634
2854.40680	0.03638
2853.12103	0.03664
2851.83526	0.03712
2850.54949	0.03770
2849.26372	0.03814
2847.97795	0.03831
2846.69218	0.03820
2845.40641	0.03789
2844.12064	0.03746
2842.83488	0.03693
2841.54911	0.03640
2840.26334	0.03600
2838.97757	0.03577
2837.69180	0.03557
2836.40603	0.03532
2835.12026	0.03508
2833.83449	0.03494
2832.54873	0.03489
2831.26296	0.03481
2829.97719	0.03461
2828.69142	0.03428
2827.40565	0.03390
2826.11988	0.03358
2824.83411	0.03343
2823.54834	0.03352
2822.26257	0.03381
2820.97681	0.03414
2819.69104	0.03437
2818.40527	0.03443
2817.11950	0.03437
2815.83373	0.03428
2814.54796	0.03423
2813.26219	0.03423
2811.97642	0.03425
2810.69066	0.03425
2809.40489	0.03425
2808.11912	0.03422
2806.83335	0.03414
2805.54758	0.03403
2804.26181	0.03395
2802.97604	0.03391
2801.69027	0.03385
2800.40450	0.03373
2799.11874	0.03363
2797.83297	0.03361
2796.54720	0.03366
2795.26143	0.03366
2793.97566	0.03356
2792.68989	0.03339
2791.40412	0.03328
2790.11835	0.03325
2788.83259	0.03323
2787.54682	0.03313
2786.26105	0.03299
2784.97528	0.03288
2783.68951	0.03279
2782.40374	0.03267
2781.11797	0.03250
2779.83220	0.03233
2778.54643	0.03221
2777.26067	0.03218
2775.97490	0.03220
2774.68913	0.03220
2773.40336	0.03216
2772.11759	0.03210
2770.83182	0.03206
2769.54605	0.03215
2768.26028	0.03238
2766.97452	0.03261
2765.68875	0.03259
2764.40298	0.03220
2763.11721	0.03168
2761.83144	0.03136
2760.54567	0.03134
2759.25990	0.03150
2757.97413	0.03165
2756.68836	0.03178
2755.40260	0.03187
2754.11683	0.03192
2752.83106	0.03192
2751.54529	0.03196
2750.25952	0.03209
2748.97375	0.03224
2747.68798	0.03223
2746.40221	0.03196
2745.11645	0.03148
2743.83068	0.03098
2742.54491	0.03066
2741.25914	0.03068
2739.97337	0.03098
2738.68760	0.03134
2737.40183	0.03150
2736.11606	0.03139
2734.83029	0.03112
2733.54453	0.03088
2732.25876	0.03076
2730.97299	0.03077
2729.68722	0.03084
2728.40145	0.03094
2727.11568	0.03099
2725.82991	0.03089
2724.54414	0.03064
2723.25838	0.03031
2721.97261	0.03003
2720.68684	0.02988
2719.40107	0.02990
2718.11530	0.03002
2716.82953	0.03015
2715.54376	0.03018
2714.25799	0.03005
2712.97222	0.02985
2711.68646	0.02970
2710.40069	0.02967
2709.11492	0.02972
2707.82915	0.02978
2706.54338	0.02984
2705.25761	0.02986
2703.97184	0.02983
2702.68607	0.02978
2701.40031	0.02976
2700.11454	0.02976
2698.82877	0.02973
2697.54300	0.02966
2696.25723	0.02954
2694.97146	0.02940
2693.68569	0.02934
2692.39992	0.02944
2691.11415	0.02965
2689.82839	0.02980
2688.54262	0.02976
2687.25685	0.02959
2685.97108	0.02941
2684.68531	0.02925
2683.39954	0.02914
2682.11377	0.02906
2680.82800	0.02899
2679.54224	0.02891
2678.25647	0.02885
2676.97070	0.02886
2675.68493	0.02897
2674.39916	0.02905
2673.11339	0.02897
2671.82762	0.02873
2670.54185	0.02849
2669.25608	0.02839
2667.97032	0.02846
2666.68455	0.02860
2665.39878	0.02870
2664.11301	0.02877
2662.82724	0.02887
2661.54147	0.02901
2660.25570	0.02913
2658.96993	0.02921
2657.68417	0.02929
2656.39840	0.02935
2655.11263	0.02934
2653.82686	0.02921
2652.54109	0.02896
2651.25532	0.02864
2649.96955	0.02833
2648.68378	0.02804
2647.39801	0.02780
2646.11225	0.02761
2644.82648	0.02748
2643.54071	0.02739
2642.25494	0.02733
2640.96917	0.02728
2639.68340	0.02715
2638.39763	0.02689
2637.11186	0.02653
2635.82609	0.02622
2634.54033	0.02613
2633.25456	0.02626
2631.96879	0.02652
2630.68302	0.02675
2629.39725	0.02686
2628.11148	0.02680
2626.82571	0.02661
2625.53994	0.02640
2624.25418	0.02626
2622.96841	0.02623
2621.68264	0.02621
2620.39687	0.02611
2619.11110	0.02593
2617.82533	0.02567
2616.53956	0.02538
2615.25379	0.02513
2613.96802	0.02504
2612.68226	0.02518
2611.39649	0.02546
2610.11072	0.02566
2608.82495	0.02565
2607.53918	0.02541
2606.25341	0.02505
2604.96764	0.02473
2603.68187	0.02454
2602.39611	0.02446
2601.11034	0.02437
2599.82457	0.02421
2598.53880	0.02395
2597.25303	0.02368
2595.96726	0.02350
2594.68149	0.02357
2593.39572	0.02391
2592.10995	0.02437
2590.82419	0.02472
2589.53842	0.02480
2588.25265	0.02472
2586.96688	0.02472
2585.68111	0.02490
2584.39534	0.02513
2583.10957	0.02520
2581.82380	0.02504
2580.53804	0.02473
2579.25227	0.02435
2577.96650	0.02391
2576.68073	0.02354
2575.39496	0.02341
2574.10919	0.02356
2572.82342	0.02376
2571.53765	0.02374
2570.25188	0.02348
2568.96612	0.02322
2567.68035	0.02317
2566.39458	0.02324
2565.10881	0.02323
2563.82304	0.02311
2562.53727	0.02302
2561.25150	0.02307
2559.96573	0.02320
2558.67997	0.02323
2557.39420	0.02303
2556.10843	0.02264
2554.82266	0.02228
2553.53689	0.02218
2552.25112	0.02231
2550.96535	0.02244
2549.67958	0.02241
2548.39381	0.02229
2547.10805	0.02220
2545.82228	0.02215
2544.53651	0.02209
2543.25074	0.02196
2541.96497	0.02181
2540.67920	0.02174
2539.39343	0.02180
2538.10766	0.02194
2536.82190	0.02207
2535.53613	0.02207
2534.25036	0.02186
2532.96459	0.02146
2531.67882	0.02105
2530.39305	0.02080
2529.10728	0.02068
2527.82151	0.02064
2526.53574	0.02080
2525.24998	0.02131
2523.96421	0.02203
2522.67844	0.02263
2521.39267	0.02292
2520.10690	0.02299
2518.82113	0.02292
2517.53536	0.02267
2516.24959	0.02226
2514.96383	0.02192
2513.67806	0.02183
2512.39229	0.02193
2511.10652	0.02193
2509.82075	0.02157
2508.53498	0.02095
2507.24921	0.02049
2505.96344	0.02056
2504.67767	0.02113
2503.39191	0.02181
2502.10614	0.02220
2500.82037	0.02216
2499.53460	0.02182
2498.24883	0.02137
2496.96306	0.02097
2495.67729	0.02069
2494.39152	0.02053
2493.10576	0.02046
2491.81999	0.02045
2490.53422	0.02047
2489.24845	0.02052
2487.96268	0.02064
2486.67691	0.02089
2485.39114	0.02125
2484.10537	0.02159
2482.81960	0.02174
2481.53384	0.02164
2480.24807	0.02136
2478.96230	0.02110
2477.67653	0.02105
2476.39076	0.02127
2475.10499	0.02163
2473.81922	0.02187
2472.53345	0.02176
2471.24769	0.02128
2469.96192	0.02069
2468.67615	0.02031
2467.39038	0.02026
2466.10461	0.02040
2464.81884	0.02058
2463.53307	0.02078
2462.24730	0.02106
2460.96153	0.02136
2459.67577	0.02152
2458.39000	0.02144
2457.10423	0.02123
2455.81846	0.02109
2454.53269	0.02110
2453.24692	0.02116
2451.96115	0.02117
2450.67538	0.02113
2449.38962	0.02112
2448.10385	0.02115
2446.81808	0.02115
2445.53231	0.02108
2444.24654	0.02097
2442.96077	0.02082
2441.67500	0.02067
2440.38923	0.02061
2439.10346	0.02067
2437.81770	0.02077
2436.53193	0.02078
2435.24616	0.02060
2433.96039	0.02025
2432.67462	0.01988
2431.38885	0.01965
2430.10308	0.01963
2428.81731	0.01975
2427.53155	0.01987
2426.24578	0.01987
2424.96001	0.01978
2423.67424	0.01966
2422.38847	0.01961
2421.10270	0.01964
2419.81693	0.01965
2418.53116	0.01959
2417.24539	0.01956
2415.95963	0.01971
2414.67386	0.02007
2413.38809	0.02043
2412.10232	0.02061
2410.81655	0.02057
2409.53078	0.02039
2408.24501	0.02026
2406.95924	0.02028
2405.67347	0.02044
2404.38771	0.02065
2403.10194	0.02082
2401.81617	0.02094
2400.53040	0.02100
2399.24463	0.02094
2397.95886	0.02075
2396.67309	0.02042
2395.38732	0.02001
2394.10156	0.01969
2392.81579	0.01957
2391.53002	0.01963
2390.24425	0.01974
2388.95848	0.01976
2387.67271	0.01961
2386.38694	0.01928
2385.10117	0.01895
2383.81540	0.01887
2382.52964	0.01910
2381.24387	0.01953
2379.95810	0.01994
2378.67233	0.02038
2377.38656	0.02063
2376.10079	0.02045
2374.81502	0.02012
2373.52925	0.02050
2372.24349	0.02145
2370.95772	0.02217
2369.67195	0.02239
2368.38618	0.02233
2367.10041	0.02232
2365.81464	0.02221
2364.52887	0.02210
2363.24310	0.02211
2361.95733	0.02247
2360.67157	0.02326
2359.38580	0.02392
2358.10003	0.02398
2356.81426	0.02336
2355.52849	0.02221
2354.24272	0.02079
2352.95695	0.01969
2351.67118	0.01974
2350.38542	0.02033
2349.09965	0.02057
2347.81388	0.02072
2346.52811	0.02138
2345.24234	0.02188
2343.95657	0.02132
2342.67080	0.01986
2341.38503	0.02018
2340.09926	0.02182
2338.81350	0.02176
2337.52773	0.02035
2336.24196	0.02100
2334.95619	0.02246
2333.67042	0.02189
2332.38465	0.02000
2331.09888	0.02064
2329.81311	0.02084
2328.52735	0.01990
2327.24158	0.02066
2325.95581	0.02199
2324.67004	0.02221
2323.38427	0.02166
2322.09850	0.02158
2320.81273	0.02083
2319.52696	0.02026
2318.24119	0.02019
2316.95543	0.02021
2315.66966	0.02056
2314.38389	0.02077
2313.09812	0.02071
2311.81235	0.02078
2310.52658	0.02061
2309.24081	0.02029
2307.95504	0.02016
2306.66928	0.02001
2305.38351	0.01991
2304.09774	0.01972
2302.81197	0.01945
2301.52620	0.01920
2300.24043	0.01889
2298.95466	0.01863
2297.66889	0.01847
2296.38312	0.01848
2295.09736	0.01862
2293.81159	0.01877
2292.52582	0.01888
2291.24005	0.01893
2289.95428	0.01898
2288.66851	0.01902
2287.38274	0.01894
2286.09697	0.01871
2284.81121	0.01842
2283.52544	0.01825
2282.23967	0.01824
2280.95390	0.01818
2279.66813	0.01787
2278.38236	0.01735
2277.09659	0.01686
2275.81082	0.01664
2274.52505	0.01664
2273.23929	0.01669
2271.95352	0.01671
2270.66775	0.01679
2269.38198	0.01698
2268.09621	0.01728
2266.81044	0.01764
2265.52467	0.01807
2264.23890	0.01838
2262.95314	0.01838
2261.66737	0.01796
2260.38160	0.01724
2259.09583	0.01649
2257.81006	0.01589
2256.52429	0.01543
2255.23852	0.01505
2253.95275	0.01484
2252.66698	0.01488
2251.38122	0.01503
2250.09545	0.01507
2248.80968	0.01479
2247.52391	0.01402
2246.23814	0.01333
2244.95237	0.01313
2243.66660	0.01353
2242.38083	0.01419
2241.09507	0.01467
2239.80930	0.01471
2238.52353	0.01433
2237.23776	0.01383
2235.95199	0.01355
2234.66622	0.01372
2233.38045	0.01428
2232.09468	0.01492
2230.80891	0.01537
2229.52315	0.01548
2228.23738	0.01531
2226.95161	0.01502
2225.66584	0.01479
2224.38007	0.01464
2223.09430	0.01444
2221.80853	0.01414
2220.52276	0.01395
2219.23700	0.01408
2217.95123	0.01443
2216.66546	0.01461
2215.37969	0.01436
2214.09392	0.01385
2212.80815	0.01353
2211.52238	0.01361
2210.23661	0.01383
2208.95084	0.01378
2207.66508	0.01345
2206.37931	0.01330
2205.09354	0.01376
2203.80777	0.01471
2202.52200	0.01551
2201.23623	0.01562
2199.95046	0.01518
2198.66469	0.01482
2197.37893	0.01488
2196.09316	0.01503
2194.80739	0.01475
2193.52162	0.01406
2192.23585	0.01352
2190.95008	0.01360
2189.66431	0.01420
2188.37854	0.01476
2187.09277	0.01492
2185.80701	0.01483
2184.52124	0.01492
2183.23547	0.01533
2181.94970	0.01574
2180.66393	0.01564
2179.37816	0.01479
2178.09239	0.01338
2176.80662	0.01202
2175.52085	0.01131
2174.23509	0.01130
2172.94932	0.01165
2171.66355	0.01217
2170.37778	0.01293
2169.09201	0.01387
2167.80624	0.01466
2166.52047	0.01518
2165.23470	0.01552
2163.94894	0.01552
2162.66317	0.01461
2161.37740	0.01257
2160.09163	0.01004
2158.80586	0.00803
2157.52009	0.00709
2156.23432	0.00718
2154.94855	0.00786
2153.66278	0.00847
2152.37702	0.00850
2151.09125	0.00813
2149.80548	0.00809
2148.51971	0.00880
2147.23394	0.00979
2145.94817	0.01030
2144.66240	0.01019
2143.37663	0.00999
2142.09087	0.01020
2140.80510	0.01074
2139.51933	0.01120
2138.23356	0.01139
2136.94779	0.01147
2135.66202	0.01154
2134.37625	0.01142
2133.09048	0.01114
2131.80471	0.01114
2130.51895	0.01187
2129.23318	0.01316
2127.94741	0.01432
2126.66164	0.01473
2125.37587	0.01430
2124.09010	0.01339
2122.80433	0.01247
2121.51856	0.01190
2120.23280	0.01180
2118.94703	0.01212
2117.66126	0.01270
2116.37549	0.01331
2115.08972	0.01373
2113.80395	0.01385
2112.51818	0.01372
2111.23241	0.01343
2109.94664	0.01303
2108.66088	0.01267
2107.37511	0.01249
2106.08934	0.01252
2104.80357	0.01261
2103.51780	0.01275
2102.23203	0.01302
2100.94626	0.01362
2099.66049	0.01874
2098.37473	0.02096
2097.08896	0.02030
2095.80319	0.01870
2094.51742	0.01687
2093.23165	0.01513
2091.94588	0.01384
2090.66011	0.01319
2089.37434	0.01310
2088.08857	0.01328
2086.80281	0.01349
2085.51704	0.01373
2084.23127	0.01409
2082.94550	0.01462
2081.65973	0.01526
2080.37396	0.01596
2079.08819	0.01674
2077.80242	0.01762
2076.51666	0.01857
2075.23089	0.01946
2073.94512	0.02002
2072.65935	0.02012
2071.37358	0.01985
2070.08781	0.01953
2068.80204	0.01930
2067.51627	0.01888
2066.23050	0.01787
2064.94474	0.01622
2063.65897	0.01440
2062.37320	0.01307
2061.08743	0.01253
2059.80166	0.01268
2058.51589	0.01311
2057.23012	0.01330
2055.94435	0.01294
2054.65859	0.01230
2053.37282	0.01234
2052.08705	0.01393
2050.80128	0.01689
2049.51551	0.01991
2048.22974	0.02174
2046.94397	0.02219
2045.65820	0.02195
2044.37243	0.02160
2043.08667	0.02115
2041.80090	0.02047
2040.51513	0.01971
2039.22936	0.01924
2037.94359	0.01926
2036.65782	0.01963
2035.37205	0.02009
2034.08628	0.02044
2032.80052	0.02043
2031.51475	0.01971
2030.22898	0.01811
2028.94321	0.01599
2027.65744	0.01412
2026.37167	0.01315
2025.08590	0.01319
2023.80013	0.01391
2022.51436	0.01491
2021.22860	0.01584
2019.94283	0.01644
2018.65706	0.01657
2017.37129	0.01637
2016.08552	0.01616
2014.79975	0.01631
2013.51398	0.01692
2012.22821	0.01785
2010.94245	0.01891
2009.65668	0.01995
2008.37091	0.02068
2007.08514	0.02062
2005.79937	0.01951
2004.51360	0.01768
2003.22783	0.01585
2001.94206	0.01453
2000.65629	0.01363
1999.37053	0.01271
1998.08476	0.01145
1996.79899	0.00994
1995.51322	0.00872
1994.22745	0.00824
1992.94168	0.00845
1991.65591	0.00884
1990.37014	0.00889
1989.08438	0.00850
1987.79861	0.00804
1986.51284	0.00794
1985.22707	0.00846
1983.94130	0.00971
1982.65553	0.01199
1981.36976	0.01562
1980.08399	0.02046
1978.79822	0.02541
1977.51246	0.02878
1976.22669	0.02951
1974.94092	0.02794
1973.65515	0.02538
1972.36938	0.02300
1971.08361	0.02130
1969.79784	0.02021
1968.51207	0.01946
1967.22631	0.01885
1965.94054	0.01845
1964.65477	0.01843
1963.36900	0.01881
1962.08323	0.01917
1960.79746	0.01899
1959.51169	0.01805
1958.22592	0.01665
1956.94015	0.01538
1955.65439	0.01473
1954.36862	0.01478
1953.08285	0.01515
1951.79708	0.01540
1950.51131	0.01536
1949.22554	0.01518
1947.93977	0.01506
1946.65400	0.01507
1945.36823	0.01529
1944.08247	0.01582
1942.79670	0.01660
1941.51093	0.01727
1940.22516	0.01747
1938.93939	0.01721
1937.65362	0.01684
1936.36785	0.01671
1935.08208	0.01678
1933.79632	0.01683
1932.51055	0.01673
1931.22478	0.01659
1929.93901	0.01652
1928.65324	0.01647
1927.36747	0.01630
1926.08170	0.01598
1924.79593	0.01562
1923.51016	0.01537
1922.22440	0.01527
1920.93863	0.01525
1919.65286	0.01518
1918.36709	0.01504
1917.08132	0.01487
1915.79555	0.01480
1914.50978	0.01493
1913.22401	0.01531
1911.93825	0.01582
1910.65248	0.01627
1909.36671	0.01654
1908.08094	0.01661
1906.79517	0.01657
1905.50940	0.01646
1904.22363	0.01629
1902.93786	0.01606
1901.65209	0.01583
1900.36633	0.01569
1899.08056	0.01565
1897.79479	0.01557
1896.50902	0.01539
1895.22325	0.01515
1893.93748	0.01499
1892.65171	0.01490
1891.36594	0.01474
1890.08018	0.01443
1888.79441	0.01404
1887.50864	0.01373
1886.22287	0.01357
1884.93710	0.01356
1883.65133	0.01366
1882.36556	0.01380
1881.07979	0.01399
1879.79402	0.01421
1878.50826	0.01442
1877.22249	0.01456
1875.93672	0.01461
1874.65095	0.01454
1873.36518	0.01435
1872.07941	0.01412
1870.79364	0.01397
1869.50787	0.01395
1868.22211	0.01397
1866.93634	0.01390
1865.65057	0.01379
1864.36480	0.01380
1863.07903	0.01402
1861.79326	0.01430
1860.50749	0.01443
1859.22172	0.01439
1857.93595	0.01425
1856.65019	0.01414
1855.36442	0.01410
1854.07865	0.01413
1852.79288	0.01423
1851.50711	0.01434
1850.22134	0.01441
1848.93557	0.01436
1847.64980	0.01417
1846.36404	0.01385
1845.07827	0.01352
1843.79250	0.01329
1842.50673	0.01322
1841.22096	0.01316
1839.93519	0.01304
1838.64942	0.01292
1837.36365	0.01286
1836.07788	0.01285
1834.79212	0.01287
1833.50635	0.01294
1832.22058	0.01310
1830.93481	0.01336
1829.64904	0.01368
1828.36327	0.01400
1827.07750	0.01429
1825.79173	0.01462
1824.50597	0.01513
1823.22020	0.01583
1821.93443	0.01657
1820.64866	0.01708
1819.36289	0.01704
1818.07712	0.01628
1816.79135	0.01492
1815.50558	0.01333
1814.21981	0.01193
1812.93405	0.01095
1811.64828	0.01040
1810.36251	0.01019
1809.07674	0.01025
1807.79097	0.01050
1806.50520	0.01085
1805.21943	0.01122
1803.93366	0.01149
1802.64790	0.01164
1801.36213	0.01172
1800.07636	0.01179
1798.79059	0.01184
1797.50482	0.01189
1796.21905	0.01194
1794.93328	0.01200
1793.64751	0.01205
1792.36174	0.01210
1791.07598	0.01217
1789.79021	0.01224
1788.50444	0.01228
1787.21867	0.01234
1785.93290	0.01243
1784.64713	0.01254
1783.36136	0.01260
1782.07559	0.01258
1780.78983	0.01249
1779.50406	0.01238
1778.21829	0.01223
1776.93252	0.01203
1775.64675	0.01181
1774.36098	0.01161
1773.07521	0.01148
1771.78944	0.01143
1770.50367	0.01139
1769.21791	0.01126
1767.93214	0.01111
1766.64637	0.01102
1765.36060	0.01099
1764.07483	0.01096
1762.78906	0.01093
1761.50329	0.01097
1760.21752	0.01107
1758.93176	0.01113
1757.64599	0.01111
1756.36022	0.01107
1755.07445	0.01104
1753.78868	0.01096
1752.50291	0.01083
1751.21714	0.01071
1749.93137	0.01071
1748.64560	0.01081
1747.35984	0.01095
1746.07407	0.01110
1744.78830	0.01124
1743.50253	0.01137
1742.21676	0.01148
1740.93099	0.01161
1739.64522	0.01179
1738.35945	0.01202
1737.07369	0.01217
1735.78792	0.01215
1734.50215	0.01211
1733.21638	0.01224
1731.93061	0.01250
1730.64484	0.01272
1729.35907	0.01282
1728.07330	0.01287
1726.78753	0.01291
1725.50177	0.01293
1724.21600	0.01296
1722.93023	0.01304
1721.64446	0.01319
1720.35869	0.01334
1719.07292	0.01340
1717.78715	0.01341
1716.50138	0.01348
1715.21561	0.01360
1713.92985	0.01379
1712.64408	0.01406
1711.35831	0.01443
1710.07254	0.01486
1708.78677	0.01529
1707.50100	0.01572
1706.21523	0.01622
1704.92946	0.01680
1703.64370	0.01741
1702.35793	0.01795
1701.07216	0.01855
1699.78639	0.01945
1698.50062	0.02059
1697.21485	0.02168
1695.92908	0.02266
1694.64331	0.02366
1693.35754	0.02468
1692.07178	0.02562
1690.78601	0.02648
1689.50024	0.02739
1688.21447	0.02834
1686.92870	0.02928
1685.64293	0.03022
1684.35716	0.03129
1683.07139	0.03252
1681.78563	0.03372
1680.49986	0.03479
1679.21409	0.03584
1677.92832	0.03692
1676.64255	0.03805
1675.35678	0.03924
1674.07101	0.04054
1672.78524	0.04187
1671.49947	0.04316
1670.21371	0.04443
1668.92794	0.04574
1667.64217	0.04705
1666.35640	0.04829
1665.07063	0.04944
1663.78486	0.05055
1662.49909	0.05166
1661.21332	0.05277
1659.92756	0.05387
1658.64179	0.05496
1657.35602	0.05601
1656.07025	0.05688
1654.78448	0.05753
1653.49871	0.05816
1652.21294	0.05902
1650.92717	0.05996
1649.64140	0.06065
1648.35564	0.06100
1647.06987	0.06124
1645.78410	0.06162
1644.49833	0.06214
1643.21256	0.06266
1641.92679	0.06308
1640.64102	0.06340
1639.35525	0.06366
1638.06949	0.06385
1636.78372	0.06398
1635.49795	0.06415
1634.21218	0.06440
1632.92641	0.06458
1631.64064	0.06457
1630.35487	0.06437
1629.06910	0.06403
1627.78333	0.06360
1626.49757	0.06308
1625.21180	0.06247
1623.92603	0.06173
1622.64026	0.06089
1621.35449	0.05995
1620.06872	0.05886
1618.78295	0.05759
1617.49718	0.05627
1616.21142	0.05507
1614.92565	0.05401
1613.63988	0.05293
1612.35411	0.05175
1611.06834	0.05050
1609.78257	0.04929
1608.49680	0.04816
1607.21103	0.04711
1605.92526	0.04612
1604.63950	0.04516
1603.35373	0.04424
1602.06796	0.04333
1600.78219	0.04242
1599.49642	0.04153
1598.21065	0.04070
1596.92488	0.03995
1595.63911	0.03930
1594.35335	0.03873
1593.06758	0.03821
1591.78181	0.03774
1590.49604	0.03732
1589.21027	0.03695
1587.92450	0.03664
1586.63873	0.03639
1585.35296	0.03621
1584.06719	0.03612
1582.78143	0.03612
1581.49566	0.03616
1580.20989	0.03619
1578.92412	0.03621
1577.63835	0.03623
1576.35258	0.03638
1575.06681	0.03675
1573.78104	0.03722
1572.49528	0.03764
1571.20951	0.03799
1569.92374	0.03839
1568.63797	0.03894
1567.35220	0.03959
1566.06643	0.04027
1564.78066	0.04094
1563.49489	0.04160
1562.20912	0.04217
1560.92336	0.04267
1559.63759	0.04325
1558.35182	0.04409
1557.06605	0.04510
1555.78028	0.04605
1554.49451	0.04685
1553.20874	0.04758
1551.92297	0.04828
1550.63721	0.04894
1549.35144	0.04960
1548.06567	0.05027
1546.77990	0.05090
1545.49413	0.05146
1544.20836	0.05194
1542.92259	0.05233
1541.63682	0.05261
1540.35105	0.05286
1539.06529	0.05320
1537.77952	0.05361
1536.49375	0.05395
1535.20798	0.05415
1533.92221	0.05430
1532.63644	0.05449
1531.35067	0.05467
1530.06490	0.05475
1528.77914	0.05473
1527.49337	0.05470
1526.20760	0.05470
1524.92183	0.05471
1523.63606	0.05462
1522.35029	0.05446
1521.06452	0.05436
1519.77875	0.05438
1518.49298	0.05437
1517.20722	0.05420
1515.92145	0.05390
1514.63568	0.05351
1513.34991	0.05303
1512.06414	0.05254
1510.77837	0.05205
1509.49260	0.05149
1508.20683	0.05079
1506.92107	0.05002
1505.63530	0.04933
1504.34953	0.04872
1503.06376	0.04807
1501.77799	0.04729
1500.49222	0.04642
1499.20645	0.04549
1497.92068	0.04454
1496.63491	0.04361
1495.34915	0.04278
1494.06338	0.04198
1492.77761	0.04113
1491.49184	0.04022
1490.20607	0.03931
1488.92030	0.03846
1487.63453	0.03767
1486.34876	0.03696
1485.06299	0.03633
1483.77723	0.03578
1482.49146	0.03529
1481.20569	0.03487
1479.91992	0.03451
1478.63415	0.03420
1477.34838	0.03396
1476.06261	0.03384
1474.77684	0.03386
1473.49108	0.03401
1472.20531	0.03426
1470.91954	0.03458
1469.63377	0.03493
1468.34800	0.03524
1467.06223	0.03550
1465.77646	0.03576
1464.49069	0.03609
1463.20492	0.03649
1461.91916	0.03692
1460.63339	0.03735
1459.34762	0.03774
1458.06185	0.03816
1456.77608	0.03870
1455.49031	0.03936
1454.20454	0.03997
1452.91877	0.04038
1451.63301	0.04055
1450.34724	0.04058
1449.06147	0.04053
1447.77570	0.04045
1446.48993	0.04035
1445.20416	0.04022
1443.91839	0.04005
1442.63262	0.03984
1441.34685	0.03962
1440.06109	0.03938
1438.77532	0.03904
1437.48955	0.03860
1436.20378	0.03813
1434.91801	0.03769
1433.63224	0.03730
1432.34647	0.03695
1431.06070	0.03662
1429.77494	0.03632
1428.48917	0.03603
1427.20340	0.03574
1425.91763	0.03548
1424.63186	0.03531
1423.34609	0.03523
1422.06032	0.03520
1420.77455	0.03516
1419.48878	0.03514
1418.20302	0.03517
1416.91725	0.03525
1415.63148	0.03533
1414.34571	0.03540
1413.05994	0.03548
1411.77417	0.03554
1410.48840	0.03557
1409.20263	0.03560
1407.91687	0.03566
1406.63110	0.03574
1405.34533	0.03583
1404.05956	0.03590
1402.77379	0.03590
1401.48802	0.03584
1400.20225	0.03575
1398.91648	0.03570
1397.63071	0.03570
1396.34495	0.03569
1395.05918	0.03567
1393.77341	0.03567
1392.48764	0.03571
1391.20187	0.03576
1389.91610	0.03579
1388.63033	0.03580
1387.34456	0.03582
1386.05880	0.03583
1384.77303	0.03581
1383.48726	0.03571
1382.20149	0.03557
1380.91572	0.03542
1379.62995	0.03531
1378.34418	0.03524
1377.05841	0.03519
1375.77264	0.03508
1374.48688	0.03488
1373.20111	0.03461
1371.91534	0.03431
1370.62957	0.03402
1369.34380	0.03377
1368.05803	0.03352
1366.77226	0.03327
1365.48649	0.03301
1364.20073	0.03275
1362.91496	0.03252
1361.62919	0.03231
1360.34342	0.03211
1359.05765	0.03190
1357.77188	0.03168
1356.48611	0.03146
1355.20034	0.03124
1353.91457	0.03106
1352.62881	0.03095
1351.34304	0.03091
1350.05727	0.03091
1348.77150	0.03092
1347.48573	0.03097
1346.19996	0.03108
1344.91419	0.03123
1343.62842	0.03138
1342.34266	0.03147
1341.05689	0.03150
1339.77112	0.03153
1338.48535	0.03164
1337.19958	0.03181
1335.91381	0.03198
1334.62804	0.03207
1333.34227	0.03205
1332.05650	0.03192
1330.77074	0.03172
1329.48497	0.03150
1328.19920	0.03132
1326.91343	0.03121
1325.62766	0.03118
1324.34189	0.03119
1323.05612	0.03120
1321.77035	0.03119
1320.48459	0.03115
1319.19882	0.03108
1317.91305	0.03098
1316.62728	0.03087
1315.34151	0.03075
1314.05574	0.03066
1312.76997	0.03059
1311.48420	0.03053
1310.19843	0.03047
1308.91267	0.03044
1307.62690	0.03045
1306.34113	0.03046
1305.05536	0.03046
1303.76959	0.03041
1302.48382	0.03035
1301.19805	0.03027
1299.91228	0.03021
1298.62652	0.03017
1297.34075	0.03013
1296.05498	0.03007
1294.76921	0.03000
1293.48344	0.02996
1292.19767	0.02997
1290.91190	0.03005
1289.62613	0.03018
1288.34036	0.03031
1287.05460	0.03042
1285.76883	0.03050
1284.48306	0.03057
1283.19729	0.03065
1281.91152	0.03074
1280.62575	0.03082
1279.33998	0.03088
1278.05421	0.03090
1276.76845	0.03089
1275.48268	0.03089
1274.19691	0.03093
1272.91114	0.03103
1271.62537	0.03114
1270.33960	0.03122
1269.05383	0.03127
1267.76806	0.03133
1266.48229	0.03146
1265.19653	0.03166
1263.91076	0.03189
1262.62499	0.03208
1261.33922	0.03220
1260.05345	0.03229
1258.76768	0.03239
1257.48191	0.03253
1256.19614	0.03271
1254.91037	0.03291
1253.62461	0.03312
1252.33884	0.03333
1251.05307	0.03357
1249.76730	0.03383
1248.48153	0.03413
1247.19576	0.03447
1245.90999	0.03486
1244.62422	0.03524
1243.33846	0.03558
1242.05269	0.03588
1240.76692	0.03616
1239.48115	0.03644
1238.19538	0.03674
1236.90961	0.03703
1235.62384	0.03727
1234.33807	0.03740
1233.05230	0.03742
1231.76654	0.03735
1230.48077	0.03721
1229.19500	0.03704
1227.90923	0.03685
1226.62346	0.03665
1225.33769	0.03645
1224.05192	0.03622
1222.76615	0.03597
1221.48039	0.03568
1220.19462	0.03538
1218.90885	0.03510
1217.62308	0.03488
1216.33731	0.03471
1215.05154	0.03459
1213.76577	0.03448
1212.48000	0.03437
1211.19423	0.03428
1209.90847	0.03423
1208.62270	0.03421
1207.33693	0.03423
1206.05116	0.03425
1204.76539	0.03429
1203.47962	0.03437
1202.19385	0.03446
1200.90808	0.03421
1199.62232	0.03346
1198.33655	0.03340
1197.05078	0.03331
1195.76501	0.03314
1194.47924	0.03288
1193.19347	0.03256
1191.90770	0.03221
1190.62193	0.03189
1189.33616	0.03164
1188.05040	0.03148
1186.76463	0.03136
1185.47886	0.03123
1184.19309	0.03109
1182.90732	0.03096
1181.62155	0.03089
1180.33578	0.03085
1179.05001	0.03081
1177.76425	0.03076
1176.47848	0.03070
1175.19271	0.03065
1173.90694	0.03061
1172.62117	0.03059
1171.33540	0.03063
1170.04963	0.03072
1168.76386	0.03086
1167.47809	0.03098
1166.19233	0.03108
1164.90656	0.03117
1163.62079	0.03124
1162.33502	0.03128
1161.04925	0.03128
1159.76348	0.03123
1158.47771	0.03117
1157.19194	0.03110
1155.90618	0.03103
1154.62041	0.03096
1153.33464	0.03091
1152.04887	0.03084
1150.76310	0.03071
1149.47733	0.03048
1148.19156	0.03017
1146.90579	0.02986
1145.62002	0.02958
1144.33426	0.02935
1143.04849	0.02916
1141.76272	0.02904
1140.47695	0.02900
1139.19118	0.02902
1137.90541	0.02905
1136.61964	0.02904
1135.33387	0.02898
1134.04811	0.02891
1132.76234	0.02884
1131.47657	0.02876
1130.19080	0.02870
1128.90503	0.02864
1127.61926	0.02862
1126.33349	0.02866
1125.04772	0.02879
1123.76195	0.02896
1122.47619	0.02911
1121.19042	0.02923
1119.90465	0.02937
1118.61888	0.02958
1117.33311	0.02984
1116.04734	0.03010
1114.76157	0.03031
1113.47580	0.03049
1112.19004	0.03067
1110.90427	0.03088
1109.61850	0.03110
1108.33273	0.03131
1107.04696	0.03151
1105.76119	0.03174
1104.47542	0.03200
1103.18965	0.03225
1101.90388	0.03248
1100.61812	0.03270
1099.33235	0.03291
1098.04658	0.03309
1096.76081	0.03323
1095.47504	0.03331
1094.18927	0.03337
1092.90350	0.03347
1091.61773	0.03360
1090.33197	0.03372
1089.04620	0.03382
1087.76043	0.03394
1086.47466	0.03415
1085.18889	0.03449
1083.90312	0.03486
1082.61735	0.03520
1081.33158	0.03549
1080.04581	0.03576
1078.76005	0.03603
1077.47428	0.03626
1076.18851	0.03644
1074.90274	0.03657
1073.61697	0.03667
1072.33120	0.03675
1071.04543	0.03682
1069.75966	0.03690
1068.47390	0.03699
1067.18813	0.03711
1065.90236	0.03727
1064.61659	0.03744
1063.33082	0.03762
1062.04505	0.03781
1060.75928	0.03801
1059.47351	0.03822
1058.18774	0.03841
1056.90198	0.03854
1055.61621	0.03862
1054.33044	0.03865
1053.04467	0.03864
1051.75890	0.03859
1050.47313	0.03858
1049.18736	0.03864
1047.90159	0.03874
1046.61583	0.03885
1045.33006	0.03897
1044.04429	0.03914
1042.75852	0.03939
1041.47275	0.03963
1040.18698	0.03983
1038.90121	0.03998
1037.61544	0.04013
1036.32967	0.04032
1035.04391	0.04053
1033.75814	0.04074
1032.47237	0.04095
1031.18660	0.04111
1029.90083	0.04114
1028.61506	0.04099
1027.32929	0.04069
1026.04352	0.04032
1024.75775	0.03995
1023.47199	0.03961
1022.18622	0.03928
1020.90045	0.03888
1019.61468	0.03835
1018.32891	0.03771
1017.04314	0.03707
1015.75737	0.03653
1014.47160	0.03610
1013.18584	0.03574
1011.90007	0.03542
1010.61430	0.03511
1009.32853	0.03480
1008.04276	0.03447
1006.75699	0.03411
1005.47122	0.03373
1004.18545	0.03335
1002.89968	0.03301
1001.61392	0.03271
1000.32815	0.03240
999.04238	0.03206
997.75661	0.03170
996.47084	0.03138
995.18507	0.03114
993.89930	0.03099
992.61353	0.03083
991.32777	0.03062
990.04200	0.03031
988.75623	0.02996
987.47046	0.02961
986.18469	0.02931
984.89892	0.02906
983.61315	0.02887
982.32738	0.02870
981.04161	0.02855
979.75585	0.02844
978.47008	0.02837
977.18431	0.02834
975.89854	0.02833
974.61277	0.02830
973.32700	0.02824
972.04123	0.02816
970.75546	0.02807
969.46970	0.02797
968.18393	0.02786
966.89816	0.02772
965.61239	0.02759
964.32662	0.02747
963.04085	0.02737
961.75508	0.02726
960.46931	0.02711
959.18354	0.02693
957.89778	0.02673
956.61201	0.02652
955.32624	0.02632
954.04047	0.02619
952.75470	0.02615
951.46893	0.02614
950.18316	0.02607
948.89739	0.02592
947.61163	0.02573
946.32586	0.02556
945.04009	0.02540
943.75432	0.02524
942.46855	0.02510
941.18278	0.02501
939.89701	0.02494
938.61124	0.02485
937.32547	0.02472
936.03971	0.02456
934.75394	0.02443
933.46817	0.02438
932.18240	0.02438
930.89663	0.02438
929.61086	0.02432
928.32509	0.02422
927.03932	0.02413
925.75356	0.02405
924.46779	0.02396
923.18202	0.02384
921.89625	0.02370
920.61048	0.02359
919.32471	0.02351
918.03894	0.02345
916.75317	0.02335
915.46740	0.02317
914.18164	0.02290
912.89587	0.02265
911.61010	0.02250
910.32433	0.02246
909.03856	0.02247
907.75279	0.02241
906.46702	0.02228
905.18125	0.02213
903.89549	0.02208
902.60972	0.02208
901.32395	0.02204
900.03818	0.02191
898.75241	0.02174
897.46664	0.02165
896.18087	0.02168
894.89510	0.02181
893.60933	0.02194
892.32357	0.02197
891.03780	0.02184
889.75203	0.02156
888.46626	0.02124
887.18049	0.02103
885.89472	0.02096
884.60895	0.02095
883.32318	0.02088
882.03742	0.02075
880.75165	0.02064
879.46588	0.02061
878.18011	0.02062
876.89434	0.02060
875.60857	0.02049
874.32280	0.02036
873.03703	0.02032
871.75126	0.02041
870.46550	0.02052
869.17973	0.02053
867.89396	0.02040
866.60819	0.02017
865.32242	0.01995
864.03665	0.01981
862.75088	0.01974
861.46511	0.01972
860.17935	0.01975
858.89358	0.01978
857.60781	0.01976
856.32204	0.01963
855.03627	0.01943
853.75050	0.01928
852.46473	0.01926
851.17896	0.01934
849.89319	0.01942
848.60743	0.01942
847.32166	0.01937
846.03589	0.01931
844.75012	0.01925
843.46435	0.01917
842.17858	0.01908
840.89281	0.01901
839.60704	0.01895
838.32128	0.01890
837.03551	0.01883
835.74974	0.01877
834.46397	0.01876
833.17820	0.01884
831.89243	0.01896
830.60666	0.01900
829.32089	0.01892
828.03512	0.01881
826.74936	0.01877
825.46359	0.01880
824.17782	0.01881
822.89205	0.01875
821.60628	0.01865
820.32051	0.01857
819.03474	0.01852
817.74897	0.01850
816.46321	0.01848
815.17744	0.01852
813.89167	0.01864
812.60590	0.01885
811.32013	0.01907
810.03436	0.01922
808.74859	0.01927
807.46282	0.01928
806.17705	0.01930
804.89129	0.01933
803.60552	0.01934
802.31975	0.01931
801.03398	0.01933
799.74821	0.01944
798.46244	0.01962
797.17667	0.01976
795.89090	0.01973
794.60513	0.01951
793.31937	0.01924
792.03360	0.01914
790.74783	0.01928
789.46206	0.01961
788.17629	0.01994
786.89052	0.02013
785.60475	0.02010
784.31898	0.01995
783.03322	0.01980
781.74745	0.01976
780.46168	0.01983
779.17591	0.01996
777.89014	0.02009
776.60437	0.02026
775.31860	0.02047
774.03283	0.02060
772.74706	0.02058
771.46130	0.02042
770.17553	0.02024
768.88976	0.02016
767.60399	0.02019
766.31822	0.02029
765.03245	0.02041
763.74668	0.02056
762.46091	0.02074
761.17515	0.02087
759.88938	0.02092
758.60361	0.02091
757.31784	0.02092
756.03207	0.02096
754.74630	0.02099
753.46053	0.02098
752.17476	0.02102
750.88899	0.02116
749.60323	0.02136
748.31746	0.02148
747.03169	0.02149
745.74592	0.02145
744.46015	0.02145
743.17438	0.02151
741.88861	0.02157
740.60284	0.02159
739.31708	0.02159
738.03131	0.02157
736.74554	0.02156
735.45977	0.02154
734.17400	0.02152
732.88823	0.02151
731.60246	0.02158
730.31669	0.02174
729.03092	0.02192
727.74516	0.02204
726.45939	0.02216
725.17362	0.02235
723.88785	0.02259
722.60208	0.02284
721.31631	0.02297
720.03054	0.02290
718.74477	0.02273
717.45901	0.02260
716.17324	0.02256
714.88747	0.02258
713.60170	0.02262
712.31593	0.02266
711.03016	0.02273
709.74439	0.02286
708.45862	0.02304
707.17285	0.02323
705.88709	0.02339
704.60132	0.02350
703.31555	0.02357
702.02978	0.02365
700.74401	0.02376
699.45824	0.02391
698.17247	0.02401
696.88670	0.02406
695.60094	0.02406
694.31517	0.02404
693.02940	0.02402
691.74363	0.02402
690.45786	0.02406
689.17209	0.02411
687.88632	0.02412
686.60055	0.02406
685.31478	0.02398
684.02902	0.02398
682.74325	0.02410
681.45748	0.02423
680.17171	0.02430
678.88594	0.02429
677.60017	0.02428
676.31440	0.02433
675.02863	0.02440
673.74287	0.02445
672.45710	0.02446
671.17133	0.02445
669.88556	0.02446
668.59979	0.02448
667.31402	0.02446
666.02825	0.02458
664.74248	0.02475
663.45671	0.02491
662.17095	0.02500
660.88518	0.02502
659.59941	0.02506
658.31364	0.02519
657.02787	0.02537
655.74210	0.02550
654.45633	0.02550
653.17056	0.02540
651.88480	0.02526
650.59903	0.02521
649.31326	0.02526
648.02749	0.02540
646.74172	0.02559
645.45595	0.02573
644.17018	0.02572
642.88441	0.02555
641.59864	0.02538
640.31288	0.02534
639.02711	0.02548
637.74134	0.02569
636.45557	0.02581
635.16980	0.02578
633.88403	0.02558
632.59826	0.02519
631.31249	0.02536
630.02673	0.02892
628.74096	0.03454
627.45519	0.03107
626.16942	0.03763
624.88365	0.05072
623.59788	0.06235
622.31211	0.06919
621.02634	0.07044
619.74057	0.06685
618.45481	0.06008
617.16904	0.05209
615.88327	0.04483
614.59750	0.04001
613.31173	0.03847
612.02596	0.03960
610.74019	0.04190
609.45442	0.04428
608.16866	0.04671
606.88289	0.04932
605.59712	0.05152
604.31135	0.05220
603.02558	0.05072
601.73981	0.04757
600.45404	0.04396
599.16827	0.04090
597.88250	0.03870
596.59674	0.03717
595.31097	0.03601
594.02520	0.03512
592.73943	0.03453
591.45366	0.03421
590.16789	0.03406
588.88212	0.03403
587.59635	0.03407
586.31059	0.03414
585.02482	0.03410
583.73905	0.03392
582.45328	0.03373
581.16751	0.03376
579.88174	0.03408
578.59597	0.03447
577.31020	0.03465
576.02443	0.03454
574.73867	0.03443
573.45290	0.03472
572.16713	0.03554
570.88136	0.03671
569.59559	0.03788
568.30982	0.03874
567.02405	0.03908
565.73828	0.03891
564.45251	0.03836
563.16675	0.03766
561.88098	0.03697
560.59521	0.03628
559.30944	0.03549
558.02367	0.03460
556.73790	0.03380
555.45213	0.03334
554.16636	0.03328
552.88060	0.03345
551.59483	0.03354
550.30906	0.03342
549.02329	0.03315
547.73752	0.03287
546.45175	0.03270
545.16598	0.03258
543.88021	0.03240
542.59444	0.03208
541.30868	0.03164
540.02291	0.03119
538.73714	0.03088
537.45137	0.03080
536.16560	0.03091
534.87983	0.03109
533.59406	0.03118
532.30829	0.03110
531.02253	0.03095
529.73676	0.03086
528.45099	0.03093
527.16522	0.03107
525.87945	0.03113
524.59368	0.03098
523.30791	0.03068
522.02214	0.03036
520.73637	0.03017
519.45061	0.03014
518.16484	0.03019
516.87907	0.03024
515.59330	0.03018
514.30753	0.02996
513.02176	0.02961
511.73599	0.02922
510.45022	0.02893
509.16446	0.02884
507.87869	0.02887
506.59292	0.02885
505.30715	0.02862
504.02138	0.02819
502.73561	0.02761
501.44984	0.02701
500.16407	0.02646
498.87830	0.02610
497.59254	0.02604
496.30677	0.02623
495.02100	0.02652
493.73523	0.02672
492.44946	0.02677
491.16369	0.02672
489.87792	0.02667
488.59215	0.02667
487.30639	0.02667
486.02062	0.02658
484.73485	0.02638
483.44908	0.02613
482.16331	0.02590
480.87754	0.02571
479.59177	0.02554
478.30600	0.02539
477.02023	0.02528
475.73447	0.02517
474.44870	0.02505
473.16293	0.02493
471.87716	0.02488
470.59139	0.02496
469.30562	0.02513
468.01985	0.02533
466.73408	0.02548
465.44832	0.02552
464.16255	0.02547
462.87678	0.02538
461.59101	0.02524
460.30524	0.02504
459.01947	0.02475
457.73370	0.02442
456.44793	0.02411
455.16216	0.02389
453.87640	0.02376
452.59063	0.02368
451.30486	0.02361
450.01909	0.02351
448.73332	0.02339
447.44755	0.02327
446.16178	0.02318
444.87601	0.02309
443.59025	0.02297
442.30448	0.02284
441.01871	0.02271
439.73294	0.02260
438.44717	0.02253
437.16140	0.02250
435.87563	0.02252
434.58986	0.02256
433.30409	0.02259
432.01833	0.02260
430.73256	0.02260
429.44679	0.02260
428.16102	0.02258
426.87525	0.02254
425.58948	0.02244
424.30371	0.02230
423.01794	0.02215
421.73218	0.02204
420.44641	0.02198
419.16064	0.02193
417.87487	0.02189
416.58910	0.02181
415.30333	0.02174
414.01756	0.02170
412.73179	0.02167
411.44602	0.02157
410.16026	0.02134
408.87449	0.02101
407.58872	0.02069
406.30295	0.02050
405.01718	0.02047
403.73141	0.02051
402.44564	0.02047
401.15987	0.02031
399.87411	0.02006
