3997.45528	0.02335
3996.16951	0.02274
3994.88374	0.02221
3993.59798	0.02187
3992.31221	0.02178
3991.02644	0.02200
3989.74067	0.02253
3988.45490	0.02332
3987.16913	0.02430
3985.88336	0.02528
3984.59759	0.02596
3983.31183	0.02608
3982.02606	0.02558
3980.74029	0.02470
3979.45452	0.02374
3978.16875	0.02286
3976.88298	0.02218
3975.59721	0.02176
3974.31144	0.02163
3973.02567	0.02166
3971.73991	0.02181
3970.45414	0.02211
3969.16837	0.02256
3967.88260	0.02294
3966.59683	0.02304
3965.31106	0.02288
3964.02529	0.02262
3962.73952	0.02241
3961.45376	0.02222
3960.16799	0.02206
3958.88222	0.02200
3957.59645	0.02214
3956.31068	0.02251
3955.02491	0.02304
3953.73914	0.02354
3952.45337	0.02381
3951.16760	0.02375
3949.88184	0.02341
3948.59607	0.02294
3947.31030	0.02256
3946.02453	0.02242
3944.73876	0.02241
3943.45299	0.02237
3942.16722	0.02224
3940.88145	0.02219
3939.59569	0.02234
3938.30992	0.02263
3937.02415	0.02292
3935.73838	0.02310
3934.45261	0.02319
3933.16684	0.02330
3931.88107	0.02360
3930.59530	0.02416
3929.30953	0.02482
3928.02377	0.02515
3926.73800	0.02491
3925.45223	0.02428
3924.16646	0.02375
3922.88069	0.02361
3921.59492	0.02361
3920.30915	0.02324
3919.02338	0.02239
3917.73762	0.02145
3916.45185	0.02096
3915.16608	0.02112
3913.88031	0.02166
3912.59454	0.02214
3911.30877	0.02232
3910.02300	0.02229
3908.73723	0.02221
3907.45146	0.02215
3906.16570	0.02209
3904.87993	0.02193
3903.59416	0.02165
3902.30839	0.02148
3901.02262	0.02171
3899.73685	0.02245
3898.45108	0.02342
3897.16531	0.02411
3895.87955	0.02414
3894.59378	0.02345
3893.30801	0.02240
3892.02224	0.02158
3890.73647	0.02132
3889.45070	0.02144
3888.16493	0.02143
3886.87916	0.02098
3885.59339	0.02032
3884.30763	0.02014
3883.02186	0.02088
3881.73609	0.02218
3880.45032	0.02319
3879.16455	0.02348
3877.87878	0.02330
3876.59301	0.02307
3875.30724	0.02283
3874.02148	0.02242
3872.73571	0.02195
3871.44994	0.02171
3870.16417	0.02180
3868.87840	0.02210
3867.59263	0.02259
3866.30686	0.02326
3865.02109	0.02386
3863.73532	0.02411
3862.44956	0.02396
3861.16379	0.02349
3859.87802	0.02287
3858.59225	0.02228
3857.30648	0.02198
3856.02071	0.02212
3854.73494	0.02256
3853.44917	0.02290
3852.16341	0.02287
3850.87764	0.02254
3849.59187	0.02214
3848.30610	0.02194
3847.02033	0.02216
3845.73456	0.02267
3844.44879	0.02300
3843.16302	0.02280
3841.87725	0.02204
3840.59149	0.02109
3839.30572	0.02032
3838.01995	0.01987
3836.73418	0.01968
3835.44841	0.01969
3834.16264	0.01989
3832.87687	0.02020
3831.59110	0.02048
3830.30534	0.02052
3829.01957	0.02017
3827.73380	0.01958
3826.44803	0.01911
3825.16226	0.01909
3823.87649	0.01950
3822.59072	0.01989
3821.30495	0.01980
3820.01918	0.01924
3818.73342	0.01875
3817.44765	0.01868
3816.16188	0.01890
3814.87611	0.01928
3813.59034	0.01994
3812.30457	0.02085
3811.01880	0.02160
3809.73303	0.02197
3808.44726	0.02215
3807.16150	0.02230
3805.87573	0.02242
3804.58996	0.02252
3803.30419	0.02258
3802.01842	0.02235
3800.73265	0.02167
3799.44688	0.02083
3798.16111	0.02031
3796.87535	0.02017
3795.58958	0.02013
3794.30381	0.02008
3793.01804	0.02011
3791.73227	0.02028
3790.44650	0.02055
3789.16073	0.02082
3787.87496	0.02097
3786.58919	0.02093
3785.30343	0.02075
3784.01766	0.02062
3782.73189	0.02080
3781.44612	0.02136
3780.16035	0.02207
3778.87458	0.02257
3777.58881	0.02273
3776.30304	0.02270
3775.01728	0.02267
3773.73151	0.02272
3772.44574	0.02271
3771.15997	0.02243
3769.87420	0.02178
3768.58843	0.02098
3767.30266	0.02048
3766.01689	0.02032
3764.73112	0.02012
3763.44536	0.01964
3762.15959	0.01905
3760.87382	0.01873
3759.58805	0.01891
3758.30228	0.01956
3757.01651	0.02044
3755.73074	0.02121
3754.44497	0.02156
3753.15921	0.02129
3751.87344	0.02041
3750.58767	0.01921
3749.30190	0.01802
3748.01613	0.01725
3746.73036	0.01730
3745.44459	0.01808
3744.15882	0.01882
3742.87305	0.01900
3741.58729	0.01882
3740.30152	0.01867
3739.01575	0.01871
3737.72998	0.01885
3736.44421	0.01893
3735.15844	0.01887
3733.87267	0.01879
3732.58690	0.01874
3731.30114	0.01859
3730.01537	0.01831
3728.72960	0.01818
3727.44383	0.01845
3726.15806	0.01914
3724.87229	0.01999
3723.58652	0.02060
3722.30075	0.02058
3721.01498	0.01992
3719.72922	0.01898
3718.44345	0.01820
3717.15768	0.01788
3715.87191	0.01808
3714.58614	0.01868
3713.30037	0.01934
3712.01460	0.01971
3710.72883	0.01966
3709.44307	0.01936
3708.15730	0.01911
3706.87153	0.01907
3705.58576	0.01920
3704.29999	0.01923
3703.01422	0.01888
3701.72845	0.01814
3700.44268	0.01738
3699.15691	0.01705
3697.87115	0.01723
3696.58538	0.01757
3695.29961	0.01773
3694.01384	0.01773
3692.72807	0.01774
3691.44230	0.01789
3690.15653	0.01816
3688.87076	0.01831
3687.58500	0.01812
3686.29923	0.01774
3685.01346	0.01748
3683.72769	0.01753
3682.44192	0.01792
3681.15615	0.01842
3679.87038	0.01875
3678.58461	0.01887
3677.29884	0.01898
3676.01308	0.01912
3674.72731	0.01904
3673.44154	0.01873
3672.15577	0.01850
3670.87000	0.01853
3669.58423	0.01877
3668.29846	0.01916
3667.01269	0.01958
3665.72693	0.01984
3664.44116	0.01978
3663.15539	0.01941
3661.86962	0.01896
3660.58385	0.01867
3659.29808	0.01868
3658.01231	0.01895
3656.72654	0.01939
3655.44077	0.01992
3654.15501	0.02053
3652.86924	0.02104
3651.58347	0.02118
3650.29770	0.02092
3649.01193	0.02066
3647.72616	0.02085
3646.44039	0.02157
3645.15462	0.02243
3643.86886	0.02295
3642.58309	0.02297
3641.29732	0.02262
3640.01155	0.02212
3638.72578	0.02169
3637.44001	0.02146
3636.15424	0.02156
3634.86847	0.02205
3633.58270	0.02279
3632.29694	0.02363
3631.01117	0.02442
3629.72540	0.02493
3628.43963	0.02495
3627.15386	0.02464
3625.86809	0.02449
3624.58232	0.02482
3623.29655	0.02544
3622.01079	0.02597
3620.72502	0.02627
3619.43925	0.02648
3618.15348	0.02671
3616.86771	0.02687
3615.58194	0.02692
3614.29617	0.02691
3613.01040	0.02694
3611.72463	0.02700
3610.43887	0.02709
3609.15310	0.02727
3607.86733	0.02756
3606.58156	0.02786
3605.29579	0.02804
3604.01002	0.02811
3602.72425	0.02830
3601.43848	0.02882
3600.15272	0.02964
3598.86695	0.03052
3597.58118	0.03122
3596.29541	0.03164
3595.00964	0.03182
3593.72387	0.03182
3592.43810	0.03168
3591.15233	0.03150
3589.86656	0.03146
3588.58080	0.03170
3587.29503	0.03212
3586.00926	0.03259
3584.72349	0.03298
3583.43772	0.03319
3582.15195	0.03309
3580.86618	0.03272
3579.58041	0.03233
3578.29464	0.03231
3577.00888	0.03279
3575.72311	0.03350
3574.43734	0.03404
3573.15157	0.03421
3571.86580	0.03414
3570.58003	0.03412
3569.29426	0.03435
3568.00849	0.03476
3566.72273	0.03516
3565.43696	0.03552
3564.15119	0.03598
3562.86542	0.03660
3561.57965	0.03719
3560.29388	0.03757
3559.00811	0.03777
3557.72234	0.03795
3556.43657	0.03812
3555.15081	0.03816
3553.86504	0.03807
3552.57927	0.03801
3551.29350	0.03804
3550.00773	0.03814
3548.72196	0.03820
3547.43619	0.03821
3546.15042	0.03822
3544.86466	0.03831
3543.57889	0.03849
3542.29312	0.03865
3541.00735	0.03867
3539.72158	0.03861
3538.43581	0.03878
3537.15004	0.03946
3535.86427	0.04064
3534.57850	0.04194
3533.29274	0.04287
3532.00697	0.04323
3530.72120	0.04323
3529.43543	0.04327
3528.14966	0.04353
3526.86389	0.04391
3525.57812	0.04419
3524.29235	0.04434
3523.00659	0.04443
3521.72082	0.04456
3520.43505	0.04486
3519.14928	0.04552
3517.86351	0.04648
3516.57774	0.04735
3515.29197	0.04761
3514.00620	0.04718
3512.72043	0.04649
3511.43467	0.04603
3510.14890	0.04595
3508.86313	0.04603
3507.57736	0.04608
3506.29159	0.04617
3505.00582	0.04643
3503.72005	0.04688
3502.43428	0.04738
3501.14852	0.04780
3499.86275	0.04817
3498.57698	0.04857
3497.29121	0.04898
3496.00544	0.04927
3494.71967	0.04928
3493.43390	0.04912
3492.14813	0.04903
3490.86236	0.04922
3489.57660	0.04970
3488.29083	0.05031
3487.00506	0.05087
3485.71929	0.05125
3484.43352	0.05138
3483.14775	0.05133
3481.86198	0.05125
3480.57621	0.05129
3479.29045	0.05142
3478.00468	0.05152
3476.71891	0.05148
3475.43314	0.05136
3474.14737	0.05130
3472.86160	0.05145
3471.57583	0.05179
3470.29006	0.05225
3469.00429	0.05281
3467.71853	0.05348
3466.43276	0.05416
3465.14699	0.05456
3463.86122	0.05450
3462.57545	0.05411
3461.28968	0.05370
3460.00391	0.05348
3458.71814	0.05341
3457.43238	0.05342
3456.14661	0.05354
3454.86084	0.05390
3453.57507	0.05447
3452.28930	0.05497
3451.00353	0.05505
3449.71776	0.05468
3448.43199	0.05426
3447.14622	0.05425
3445.86046	0.05477
3444.57469	0.05551
3443.28892	0.05608
3442.00315	0.05634
3440.71738	0.05636
3439.43161	0.05626
3438.14584	0.05610
3436.86007	0.05605
3435.57431	0.05629
3434.28854	0.05684
3433.00277	0.05755
3431.71700	0.05823
3430.43123	0.05887
3429.14546	0.05953
3427.85969	0.06016
3426.57392	0.06061
3425.28815	0.06079
3424.00239	0.06082
3422.71662	0.06089
3421.43085	0.06106
3420.14508	0.06125
3418.85931	0.06145
3417.57354	0.06178
3416.28777	0.06228
3415.00200	0.06283
3413.71624	0.06322
3412.43047	0.06331
3411.14470	0.06313
3409.85893	0.06282
3408.57316	0.06250
3407.28739	0.06224
3406.00162	0.06213
3404.71585	0.06214
3403.43008	0.06226
3402.14432	0.06247
3400.85855	0.06287
3399.57278	0.06356
3398.28701	0.06433
3397.00124	0.06502
3395.71547	0.06547
3394.42970	0.06567
3393.14393	0.06580
3391.85817	0.06592
3390.57240	0.06595
3389.28663	0.06586
3388.00086	0.06582
3386.71509	0.06605
3385.42932	0.06654
3384.14355	0.06708
3382.85778	0.06746
3381.57201	0.06759
3380.28625	0.06752
3379.00048	0.06740
3377.71471	0.06742
3376.42894	0.06770
3375.14317	0.06821
3373.85740	0.06881
3372.57163	0.06932
3371.28586	0.06957
3370.00010	0.06952
3368.71433	0.06931
3367.42856	0.06905
3366.14279	0.06888
3364.85702	0.06894
3363.57125	0.06933
3362.28548	0.07004
3360.99971	0.07080
3359.71394	0.07130
3358.42818	0.07143
3357.14241	0.07136
3355.85664	0.07131
3354.57087	0.07142
3353.28510	0.07170
3351.99933	0.07215
3350.71356	0.07271
3349.42779	0.07329
3348.14202	0.07372
3346.85626	0.07395
3345.57049	0.07409
3344.28472	0.07434
3342.99895	0.07485
3341.71318	0.07558
3340.42741	0.07630
3339.14164	0.07681
3337.85587	0.07706
3336.57011	0.07716
3335.28434	0.07725
3333.99857	0.07744
3332.71280	0.07781
3331.42703	0.07833
3330.14126	0.07893
3328.85549	0.07948
3327.56972	0.07978
3326.28395	0.07972
3324.99819	0.07946
3323.71242	0.07927
3322.42665	0.07928
3321.14088	0.07936
3319.85511	0.07937
3318.56934	0.07940
3317.28357	0.07965
3315.99780	0.08017
3314.71204	0.08080
3313.42627	0.08128
3312.14050	0.08153
3310.85473	0.08156
3309.56896	0.08146
3308.28319	0.08142
3306.99742	0.08167
3305.71165	0.08228
3304.42588	0.08304
3303.14012	0.08364
3301.85435	0.08392
3300.56858	0.08392
3299.28281	0.08381
3297.99704	0.08374
3296.71127	0.08387
3295.42550	0.08421
3294.13973	0.08459
3292.85397	0.08476
3291.56820	0.08456
3290.28243	0.08404
3288.99666	0.08339
3287.71089	0.08291
3286.42512	0.08276
3285.13935	0.08293
3283.85358	0.08327
3282.56781	0.08359
3281.28205	0.08377
3279.99628	0.08380
3278.71051	0.08379
3277.42474	0.08383
3276.13897	0.08387
3274.85320	0.08379
3273.56743	0.08356
3272.28166	0.08326
3270.99590	0.08299
3269.71013	0.08276
3268.42436	0.08253
3267.13859	0.08233
3265.85282	0.08221
3264.56705	0.08218
3263.28128	0.08215
3261.99551	0.08212
3260.70974	0.08213
3259.42398	0.08219
3258.13821	0.08223
3256.85244	0.08215
3255.56667	0.08203
3254.28090	0.08200
3252.99513	0.08211
3251.70936	0.08220
3250.42359	0.08203
3249.13783	0.08150
3247.85206	0.08074
3246.56629	0.08003
3245.28052	0.07955
3243.99475	0.07931
3242.70898	0.07918
3241.42321	0.07898
3240.13744	0.07863
3238.85167	0.07813
3237.56591	0.07765
3236.28014	0.07740
3234.99437	0.07748
3233.70860	0.07782
3232.42283	0.07821
3231.13706	0.07843
3229.85129	0.07834
3228.56552	0.07796
3227.27976	0.07740
3225.99399	0.07682
3224.70822	0.07632
3223.42245	0.07590
3222.13668	0.07559
3220.85091	0.07536
3219.56514	0.07518
3218.27937	0.07504
3216.99360	0.07493
3215.70784	0.07483
3214.42207	0.07470
3213.13630	0.07451
3211.85053	0.07434
3210.56476	0.07423
3209.27899	0.07419
3207.99322	0.07415
3206.70745	0.07410
3205.42169	0.07406
3204.13592	0.07408
3202.85015	0.07422
3201.56438	0.07446
3200.27861	0.07473
3198.99284	0.07488
3197.70707	0.07475
3196.42130	0.07437
3195.13553	0.07386
3193.84977	0.07342
3192.56400	0.07315
3191.27823	0.07306
3189.99246	0.07303
3188.70669	0.07296
3187.42092	0.07281
3186.13515	0.07253
3184.84938	0.07211
3183.56362	0.07159
3182.27785	0.07110
3180.99208	0.07074
3179.70631	0.07053
3178.42054	0.07032
3177.13477	0.06999
3175.84900	0.06947
3174.56323	0.06885
3173.27746	0.06827
3171.99170	0.06779
3170.70593	0.06741
3169.42016	0.06712
3168.13439	0.06699
3166.84862	0.06709
3165.56285	0.06732
3164.27708	0.06745
3162.99131	0.06724
3161.70555	0.06674
3160.41978	0.06620
3159.13401	0.06587
3157.84824	0.06572
3156.56247	0.06555
3155.27670	0.06531
3153.99093	0.06508
3152.70516	0.06492
3151.41939	0.06473
3150.13363	0.06435
3148.84786	0.06378
3147.56209	0.06318
3146.27632	0.06271
3144.99055	0.06246
3143.70478	0.06236
3142.41901	0.06228
3141.13324	0.06207
3139.84748	0.06173
3138.56171	0.06136
3137.27594	0.06111
3135.99017	0.06110
3134.70440	0.06129
3133.41863	0.06155
3132.13286	0.06177
3130.84709	0.06190
3129.56132	0.06194
3128.27556	0.06188
3126.98979	0.06166
3125.70402	0.06129
3124.41825	0.06083
3123.13248	0.06042
3121.84671	0.06022
3120.56094	0.06033
3119.27517	0.06068
3117.98940	0.06105
3116.70364	0.06117
3115.41787	0.06095
3114.13210	0.06045
3112.84633	0.05984
3111.56056	0.05933
3110.27479	0.05902
3108.98902	0.05898
3107.70325	0.05923
3106.41749	0.05966
3105.13172	0.06006
3103.84595	0.06018
3102.56018	0.06002
3101.27441	0.05977
3099.98864	0.05963
3098.70287	0.05958
3097.41710	0.05957
3096.13133	0.05960
3094.84557	0.05975
3093.55980	0.05998
3092.27403	0.06016
3090.98826	0.06022
3089.70249	0.06025
3088.41672	0.06037
3087.13095	0.06056
3085.84518	0.06067
3084.55942	0.06058
3083.27365	0.06032
3081.98788	0.06008
3080.70211	0.06007
3079.41634	0.06029
3078.13057	0.06056
3076.84480	0.06068
3075.55903	0.06061
3074.27326	0.06044
3072.98750	0.06032
3071.70173	0.06025
3070.41596	0.06016
3069.13019	0.05997
3067.84442	0.05970
3066.55865	0.05943
3065.27288	0.05932
3063.98711	0.05943
3062.70135	0.05974
3061.41558	0.06017
3060.12981	0.06061
3058.84404	0.06092
3057.55827	0.06095
3056.27250	0.06065
3054.98673	0.06012
3053.70096	0.05957
3052.41519	0.05918
3051.12943	0.05890
3049.84366	0.05860
3048.55789	0.05823
3047.27212	0.05789
3045.98635	0.05765
3044.70058	0.05743
3043.41481	0.05705
3042.12904	0.05642
3040.84328	0.05562
3039.55751	0.05491
3038.27174	0.05445
3036.98597	0.05422
3035.70020	0.05403
3034.41443	0.05377
3033.12866	0.05349
3031.84289	0.05329
3030.55712	0.05316
3029.27136	0.05291
3027.98559	0.05243
3026.69982	0.05180
3025.41405	0.05131
3024.12828	0.05116
3022.84251	0.05132
3021.55674	0.05158
3020.27097	0.05175
3018.98521	0.05175
3017.69944	0.05160
3016.41367	0.05131
3015.12790	0.05092
3013.84213	0.05044
3012.55636	0.04994
3011.27059	0.04953
3009.98482	0.04928
3008.69905	0.04921
3007.41329	0.04925
3006.12752	0.04929
3004.84175	0.04929
3003.55598	0.04924
3002.27021	0.04918
3000.98444	0.04912
2999.69867	0.04907
2998.41290	0.04915
2997.12714	0.04928
2995.84137	0.04936
2994.55560	0.04925
2993.26983	0.04884
2991.98406	0.04827
2990.69829	0.04785
2989.41252	0.04786
2988.12675	0.04821
2986.84098	0.04856
2985.55522	0.04866
2984.26945	0.04857
2982.98368	0.04858
2981.69791	0.04886
2980.41214	0.04928
2979.12637	0.04958
2977.84060	0.04961
2976.55483	0.04950
2975.26907	0.04947
2973.98330	0.04964
2972.69753	0.04997
2971.41176	0.05033
2970.12599	0.05060
2968.84022	0.05081
2967.55445	0.05104
2966.26868	0.05137
2964.98291	0.05177
2963.69715	0.05216
2962.41138	0.05251
2961.12561	0.05277
2959.83984	0.05285
2958.55407	0.05278
2957.26830	0.05268
2955.98253	0.05269
2954.69676	0.05278
2953.41100	0.05285
2952.12523	0.05288
2950.83946	0.05285
2949.55369	0.05278
2948.26792	0.05272
2946.98215	0.05272
2945.69638	0.05278
2944.41061	0.05285
2943.12484	0.05291
2941.83908	0.05297
2940.55331	0.05303
2939.26754	0.05313
2937.98177	0.05331
2936.69600	0.05357
2935.41023	0.05386
2934.12446	0.05419
2932.83869	0.05461
2931.55293	0.05519
2930.26716	0.05582
2928.98139	0.05625
2927.69562	0.05630
2926.40985	0.05599
2925.12408	0.05551
2923.83831	0.05507
2922.55254	0.05477
2921.26677	0.05465
2919.98101	0.05464
2918.69524	0.05460
2917.40947	0.05439
2916.12370	0.05398
2914.83793	0.05346
2913.55216	0.05292
2912.26639	0.05239
2910.98062	0.05191
2909.69486	0.05152
2908.40909	0.05128
2907.12332	0.05121
2905.83755	0.05119
2904.55178	0.05107
2903.26601	0.05074
2901.98024	0.05029
2900.69447	0.04989
2899.40870	0.04964
2898.12294	0.04952
2896.83717	0.04951
2895.55140	0.04964
2894.26563	0.04986
2892.97986	0.04998
2891.69409	0.04979
2890.40832	0.04933
2889.12255	0.04884
2887.83678	0.04858
2886.55102	0.04861
2885.26525	0.04873
2883.97948	0.04871
2882.69371	0.04856
2881.40794	0.04841
2880.12217	0.04840
2878.83640	0.04850
2877.55063	0.04857
2876.26487	0.04849
2874.97910	0.04826
2873.69333	0.04797
2872.40756	0.04776
2871.12179	0.04765
2869.83602	0.04761
2868.55025	0.04755
2867.26448	0.04745
2865.97871	0.04734
2864.69295	0.04721
2863.40718	0.04706
2862.12141	0.04691
2860.83564	0.04684
2859.54987	0.04686
2858.26410	0.04689
2856.97833	0.04684
2855.69256	0.04678
2854.40680	0.04689
2853.12103	0.04714
2851.83526	0.04727
2850.54949	0.04703
2849.26372	0.04642
2847.97795	0.04570
2846.69218	0.04505
2845.40641	0.04453
2844.12064	0.04409
2842.83488	0.04373
2841.54911	0.04342
2840.26334	0.04317
2838.97757	0.04300
2837.69180	0.04289
2836.40603	0.04276
2835.12026	0.04251
2833.83449	0.04220
2832.54873	0.04195
2831.26296	0.04183
2829.97719	0.04174
2828.69142	0.04162
2827.40565	0.04148
2826.11988	0.04140
2824.83411	0.04140
2823.54834	0.04138
2822.26257	0.04127
2820.97681	0.04106
2819.69104	0.04080
2818.40527	0.04062
2817.11950	0.04069
2815.83373	0.04103
2814.54796	0.04148
2813.26219	0.04179
2811.97642	0.04179
2810.69066	0.04150
2809.40489	0.04105
2808.11912	0.04068
2806.83335	0.04056
2805.54758	0.04074
2804.26181	0.04103
2802.97604	0.04121
2801.69027	0.04119
2800.40450	0.04100
2799.11874	0.04072
2797.83297	0.04041
2796.54720	0.04010
2795.26143	0.03986
2793.97566	0.03976
2792.68989	0.03979
2791.40412	0.03993
2790.11835	0.04010
2788.83259	0.04019
2787.54682	0.04013
2786.26105	0.03996
2784.97528	0.03979
2783.68951	0.03970
2782.40374	0.03973
2781.11797	0.03984
2779.83220	0.03996
2778.54643	0.03998
2777.26067	0.03981
2775.97490	0.03948
2774.68913	0.03911
2773.40336	0.03879
2772.11759	0.03857
2770.83182	0.03842
2769.54605	0.03832
2768.26028	0.03832
2766.97452	0.03845
2765.68875	0.03865
2764.40298	0.03876
2763.11721	0.03866
2761.83144	0.03838
2760.54567	0.03810
2759.25990	0.03795
2757.97413	0.03794
2756.68836	0.03797
2755.40260	0.03793
2754.11683	0.03781
2752.83106	0.03766
2751.54529	0.03751
2750.25952	0.03736
2748.97375	0.03725
2747.68798	0.03718
2746.40221	0.03712
2745.11645	0.03706
2743.83068	0.03704
2742.54491	0.03709
2741.25914	0.03714
2739.97337	0.03710
2738.68760	0.03697
2737.40183	0.03681
2736.11606	0.03669
2734.83029	0.03663
2733.54453	0.03656
2732.25876	0.03641
2730.97299	0.03620
2729.68722	0.03598
2728.40145	0.03580
2727.11568	0.03567
2725.82991	0.03563
2724.54414	0.03568
2723.25838	0.03582
2721.97261	0.03596
2720.68684	0.03603
2719.40107	0.03597
2718.11530	0.03577
2716.82953	0.03549
2715.54376	0.03523
2714.25799	0.03512
2712.97222	0.03516
2711.68646	0.03526
2710.40069	0.03527
2709.11492	0.03521
2707.82915	0.03517
2706.54338	0.03521
2705.25761	0.03526
2703.97184	0.03519
2702.68607	0.03493
2701.40031	0.03460
2700.11454	0.03438
2698.82877	0.03438
2697.54300	0.03450
2696.25723	0.03458
2694.97146	0.03447
2693.68569	0.03421
2692.39992	0.03391
2691.11415	0.03367
2689.82839	0.03356
2688.54262	0.03358
2687.25685	0.03364
2685.97108	0.03365
2684.68531	0.03357
2683.39954	0.03352
2682.11377	0.03363
2680.82800	0.03385
2679.54224	0.03398
2678.25647	0.03387
2676.97070	0.03357
2675.68493	0.03327
2674.39916	0.03312
2673.11339	0.03313
2671.82762	0.03319
2670.54185	0.03320
2669.25608	0.03320
2667.97032	0.03331
2666.68455	0.03360
2665.39878	0.03396
2664.11301	0.03423
2662.82724	0.03432
2661.54147	0.03431
2660.25570	0.03424
2658.96993	0.03412
2657.68417	0.03392
2656.39840	0.03365
2655.11263	0.03339
2653.82686	0.03324
2652.54109	0.03326
2651.25532	0.03340
2649.96955	0.03353
2648.68378	0.03353
2647.39801	0.03338
2646.11225	0.03319
2644.82648	0.03302
2643.54071	0.03286
2642.25494	0.03271
2640.96917	0.03257
2639.68340	0.03242
2638.39763	0.03222
2637.11186	0.03195
2635.82609	0.03169
2634.54033	0.03150
2633.25456	0.03137
2631.96879	0.03124
2630.68302	0.03113
2629.39725	0.03111
2628.11148	0.03117
2626.82571	0.03119
2625.53994	0.03107
2624.25418	0.03079
2622.96841	0.03048
2621.68264	0.03031
2620.39687	0.03034
2619.11110	0.03044
2617.82533	0.03044
2616.53956	0.03028
2615.25379	0.03006
2613.96802	0.02996
2612.68226	0.02999
2611.39649	0.02997
2610.11072	0.02976
2608.82495	0.02943
2607.53918	0.02921
2606.25341	0.02923
2604.96764	0.02938
2603.68187	0.02949
2602.39611	0.02954
2601.11034	0.02957
2599.82457	0.02957
2598.53880	0.02946
2597.25303	0.02925
2595.96726	0.02911
2594.68149	0.02911
2593.39572	0.02907
2592.10995	0.02875
2590.82419	0.02816
2589.53842	0.02763
2588.25265	0.02751
2586.96688	0.02777
2585.68111	0.02806
2584.39534	0.02809
2583.10957	0.02785
2581.82380	0.02753
2580.53804	0.02725
2579.25227	0.02707
2577.96650	0.02698
2576.68073	0.02700
2575.39496	0.02704
2574.10919	0.02703
2572.82342	0.02693
2571.53765	0.02684
2570.25188	0.02680
2568.96612	0.02676
2567.68035	0.02663
2566.39458	0.02635
2565.10881	0.02596
2563.82304	0.02567
2562.53727	0.02573
2561.25150	0.02619
2559.96573	0.02673
2558.67997	0.02695
2557.39420	0.02674
2556.10843	0.02635
2554.82266	0.02607
2553.53689	0.02604
2552.25112	0.02623
2550.96535	0.02657
2549.67958	0.02685
2548.39381	0.02695
2547.10805	0.02692
2545.82228	0.02694
2544.53651	0.02704
2543.25074	0.02696
2541.96497	0.02650
2540.67920	0.02578
2539.39343	0.02521
2538.10766	0.02500
2536.82190	0.02506
2535.53613	0.02512
2534.25036	0.02504
2532.96459	0.02484
2531.67882	0.02459
2530.39305	0.02440
2529.10728	0.02435
2527.82151	0.02443
2526.53574	0.02443
2525.24998	0.02420
2523.96421	0.02382
2522.67844	0.02359
2521.39267	0.02371
2520.10690	0.02411
2518.82113	0.02455
2517.53536	0.02482
2516.24959	0.02483
2514.96383	0.02462
2513.67806	0.02440
2512.39229	0.02439
2511.10652	0.02457
2509.82075	0.02469
2508.53498	0.02450
2507.24921	0.02402
2505.96344	0.02354
2504.67767	0.02330
2503.39191	0.02335
2502.10614	0.02349
2500.82037	0.02356
2499.53460	0.02354
2498.24883	0.02356
2496.96306	0.02368
2495.67729	0.02389
2494.39152	0.02414
2493.10576	0.02435
2491.81999	0.02453
2490.53422	0.02468
2489.24845	0.02474
2487.96268	0.02456
2486.67691	0.02405
2485.39114	0.02340
2484.10537	0.02295
2482.81960	0.02283
2481.53384	0.02290
2480.24807	0.02298
2478.96230	0.02316
2477.67653	0.02359
2476.39076	0.02415
2475.10499	0.02448
2473.81922	0.02428
2472.53345	0.02364
2471.24769	0.02288
2469.96192	0.02231
2468.67615	0.02207
2467.39038	0.02213
2466.10461	0.02242
2464.81884	0.02282
2463.53307	0.02323
2462.24730	0.02352
2460.96153	0.02362
2459.67577	0.02356
2458.39000	0.02343
2457.10423	0.02329
2455.81846	0.02318
2454.53269	0.02310
2453.24692	0.02301
2451.96115	0.02288
2450.67538	0.02275
2449.38962	0.02267
2448.10385	0.02260
2446.81808	0.02248
2445.53231	0.02229
2444.24654	0.02215
2442.96077	0.02215
2441.67500	0.02227
2440.38923	0.02247
2439.10346	0.02272
2437.81770	0.02292
2436.53193	0.02297
2435.24616	0.02286
2433.96039	0.02277
2432.67462	0.02285
2431.38885	0.02306
2430.10308	0.02323
2428.81731	0.02327
2427.53155	0.02322
2426.24578	0.02304
2424.96001	0.02268
2423.67424	0.02222
2422.38847	0.02185
2421.10270	0.02164
2419.81693	0.02149
2418.53116	0.02132
2417.24539	0.02118
2415.95963	0.02114
2414.67386	0.02117
2413.38809	0.02122
2412.10232	0.02134
2410.81655	0.02158
2409.53078	0.02184
2408.24501	0.02200
2406.95924	0.02205
2405.67347	0.02208
2404.38771	0.02211
2403.10194	0.02209
2401.81617	0.02199
2400.53040	0.02192
2399.24463	0.02189
2397.95886	0.02194
2396.67309	0.02200
2395.38732	0.02204
2394.10156	0.02215
2392.81579	0.02235
2391.53002	0.02253
2390.24425	0.02261
2388.95848	0.02257
2387.67271	0.02247
2386.38694	0.02233
2385.10117	0.02220
2383.81540	0.02214
2382.52964	0.02223
2381.24387	0.02246
2379.95810	0.02276
2378.67233	0.02303
2377.38656	0.02322
2376.10079	0.02332
2374.81502	0.02345
2373.52925	0.02368
2372.24349	0.02403
2370.95772	0.02444
2369.67195	0.02484
2368.38618	0.02516
2367.10041	0.02540
2365.81464	0.02560
2364.52887	0.02583
2363.24310	0.02600
2361.95733	0.02599
2360.67157	0.02578
2359.38580	0.02559
2358.10003	0.02554
2356.81426	0.02553
2355.52849	0.02547
2354.24272	0.02524
2352.95695	0.02480
2351.67118	0.02413
2350.38542	0.02351
2349.09965	0.02328
2347.81388	0.02349
2346.52811	0.02378
2345.24234	0.02406
2343.95657	0.02451
2342.67080	0.02505
2341.38503	0.02515
2340.09926	0.02483
2338.81350	0.02490
2337.52773	0.02545
2336.24196	0.02557
2334.95619	0.02532
2333.67042	0.02553
2332.38465	0.02586
2331.09888	0.02537
2329.81311	0.02482
2328.52735	0.02507
2327.24158	0.02522
2325.95581	0.02534
2324.67004	0.02593
2323.38427	0.02618
2322.09850	0.02590
2320.81273	0.02583
2319.52696	0.02545
2318.24119	0.02477
2316.95543	0.02431
2315.66966	0.02382
2314.38389	0.02341
2313.09812	0.02323
2311.81235	0.02303
2310.52658	0.02291
2309.24081	0.02282
2307.95504	0.02261
2306.66928	0.02239
2305.38351	0.02219
2304.09774	0.02210
2302.81197	0.02211
2301.52620	0.02205
2300.24043	0.02192
2298.95466	0.02168
2297.66889	0.02137
2296.38312	0.02108
2295.09736	0.02088
2293.81159	0.02084
2292.52582	0.02088
2291.24005	0.02094
2289.95428	0.02101
2288.66851	0.02113
2287.38274	0.02126
2286.09697	0.02130
2284.81121	0.02119
2283.52544	0.02096
2282.23967	0.02072
2280.95390	0.02055
2279.66813	0.02048
2278.38236	0.02050
2277.09659	0.02054
2275.81082	0.02058
2274.52505	0.02061
2273.23929	0.02058
2271.95352	0.02037
2270.66775	0.01990
2269.38198	0.01928
2268.09621	0.01865
2266.81044	0.01814
2265.52467	0.01780
2264.23890	0.01776
2262.95314	0.01802
2261.66737	0.01840
2260.38160	0.01864
2259.09583	0.01865
2257.81006	0.01846
2256.52429	0.01811
2255.23852	0.01762
2253.95275	0.01708
2252.66698	0.01666
2251.38122	0.01651
2250.09545	0.01680
2248.80968	0.01754
2247.52391	0.01815
2246.23814	0.01847
2244.95237	0.01832
2243.66660	0.01779
2242.38083	0.01719
2241.09507	0.01672
2239.80930	0.01646
2238.52353	0.01648
2237.23776	0.01684
2235.95199	0.01735
2234.66622	0.01763
2233.38045	0.01743
2232.09468	0.01697
2230.80891	0.01665
2229.52315	0.01652
2228.23738	0.01625
2226.95161	0.01563
2225.66584	0.01493
2224.38007	0.01464
2223.09430	0.01502
2221.80853	0.01574
2220.52276	0.01610
2219.23700	0.01572
2217.95123	0.01509
2216.66546	0.01504
2215.37969	0.01574
2214.09392	0.01653
2212.80815	0.01668
2211.52238	0.01611
2210.23661	0.01532
2208.95084	0.01476
2207.66508	0.01452
2206.37931	0.01449
2205.09354	0.01457
2203.80777	0.01475
2202.52200	0.01492
2201.23623	0.01488
2199.95046	0.01453
2198.66469	0.01417
2197.37893	0.01428
2196.09316	0.01511
2194.80739	0.01637
2193.52162	0.01740
2192.23585	0.01771
2190.95008	0.01736
2189.66431	0.01680
2188.37854	0.01638
2187.09277	0.01608
2185.80701	0.01573
2184.52124	0.01532
2183.23547	0.01502
2181.94970	0.01484
2180.66393	0.01460
2179.37816	0.01408
2178.09239	0.01323
2176.80662	0.01235
2175.52085	0.01189
2174.23509	0.01211
2172.94932	0.01284
2171.66355	0.01359
2170.37778	0.01395
2169.09201	0.01384
2167.80624	0.01347
2166.52047	0.01297
2165.23470	0.01231
2163.94894	0.01156
2162.66317	0.01094
2161.37740	0.01059
2160.09163	0.01045
2158.80586	0.01038
2157.52009	0.01028
2156.23432	0.01003
2154.94855	0.00957
2153.66278	0.00907
2152.37702	0.00886
2151.09125	0.00911
2149.80548	0.00954
2148.51971	0.00976
2147.23394	0.00974
2145.94817	0.00978
2144.66240	0.01006
2143.37663	0.01029
2142.09087	0.01021
2140.80510	0.00995
2139.51933	0.00990
2138.23356	0.01027
2136.94779	0.01088
2135.66202	0.01145
2134.37625	0.01170
2133.09048	0.01150
2131.80471	0.01100
2130.51895	0.01064
2129.23318	0.01082
2127.94741	0.01160
2126.66164	0.01263
2125.37587	0.01351
2124.09010	0.01412
2122.80433	0.01468
2121.51856	0.01536
2120.23280	0.01601
2118.94703	0.01628
2117.66126	0.01605
2116.37549	0.01559
2115.08972	0.01531
2113.80395	0.01539
2112.51818	0.01564
2111.23241	0.01570
2109.94664	0.01534
2108.66088	0.01467
2107.37511	0.01406
2106.08934	0.01381
2104.80357	0.01385
2103.51780	0.01383
2102.23203	0.01347
2100.94626	0.01302
2099.66049	0.01513
2098.37473	0.01625
2097.08896	0.01623
2095.80319	0.01585
2094.51742	0.01542
2093.23165	0.01514
2091.94588	0.01499
2090.66011	0.01483
2089.37434	0.01460
2088.08857	0.01438
2086.80281	0.01431
2085.51704	0.01442
2084.23127	0.01456
2082.94550	0.01451
2081.65973	0.01416
2080.37396	0.01368
2079.08819	0.01343
2077.80242	0.01370
2076.51666	0.01448
2075.23089	0.01546
2073.94512	0.01624
2072.65935	0.01663
2071.37358	0.01663
2070.08781	0.01643
2068.80204	0.01620
2067.51627	0.01596
2066.23050	0.01556
2064.94474	0.01493
2063.65897	0.01426
2062.37320	0.01386
2061.08743	0.01379
2059.80166	0.01379
2058.51589	0.01348
2057.23012	0.01278
2055.94435	0.01200
2054.65859	0.01168
2053.37282	0.01218
2052.08705	0.01337
2050.80128	0.01454
2049.51551	0.01493
2048.22974	0.01437
2046.94397	0.01341
2045.65820	0.01284
2044.37243	0.01299
2043.08667	0.01351
2041.80090	0.01380
2040.51513	0.01365
2039.22936	0.01341
2037.94359	0.01362
2036.65782	0.01435
2035.37205	0.01519
2034.08628	0.01572
2032.80052	0.01582
2031.51475	0.01555
2030.22898	0.01494
2028.94321	0.01400
2027.65744	0.01296
2026.37167	0.01222
2025.08590	0.01193
2023.80013	0.01179
2022.51436	0.01139
2021.22860	0.01064
2019.94283	0.00988
2018.65706	0.00945
2017.37129	0.00940
2016.08552	0.00965
2014.79975	0.01028
2013.51398	0.01152
2012.22821	0.01342
2010.94245	0.01559
2009.65668	0.01732
2008.37091	0.01806
2007.08514	0.01773
2005.79937	0.01678
2004.51360	0.01571
2003.22783	0.01474
2001.94206	0.01378
2000.65629	0.01278
1999.37053	0.01199
1998.08476	0.01165
1996.79899	0.01160
1995.51322	0.01138
1994.22745	0.01070
1992.94168	0.00985
1991.65591	0.00930
1990.37014	0.00927
1989.08438	0.00968
1987.79861	0.01038
1986.51284	0.01127
1985.22707	0.01211
1983.94130	0.01259
1982.65553	0.01282
1981.36976	0.01331
1980.08399	0.01439
1978.79822	0.01566
1977.51246	0.01643
1976.22669	0.01645
1974.94092	0.01606
1973.65515	0.01569
1972.36938	0.01539
1971.08361	0.01499
1969.79784	0.01446
1968.51207	0.01404
1967.22631	0.01403
1965.94054	0.01450
1964.65477	0.01517
1963.36900	0.01550
1962.08323	0.01503
1960.79746	0.01382
1959.51169	0.01248
1958.22592	0.01183
1956.94015	0.01213
1955.65439	0.01297
1954.36862	0.01368
1953.08285	0.01399
1951.79708	0.01411
1950.51131	0.01435
1949.22554	0.01472
1947.93977	0.01493
1946.65400	0.01469
1945.36823	0.01407
1944.08247	0.01352
1942.79670	0.01343
1941.51093	0.01386
1940.22516	0.01448
1938.93939	0.01494
1937.65362	0.01516
1936.36785	0.01526
1935.08208	0.01526
1933.79632	0.01515
1932.51055	0.01492
1931.22478	0.01455
1929.93901	0.01406
1928.65324	0.01348
1927.36747	0.01299
1926.08170	0.01276
1924.79593	0.01284
1923.51016	0.01313
1922.22440	0.01351
1920.93863	0.01395
1919.65286	0.01445
1918.36709	0.01484
1917.08132	0.01484
1915.79555	0.01434
1914.50978	0.01357
1913.22401	0.01297
1911.93825	0.01290
1910.65248	0.01340
1909.36671	0.01414
1908.08094	0.01469
1906.79517	0.01478
1905.50940	0.01449
1904.22363	0.01410
1902.93786	0.01388
1901.65209	0.01390
1900.36633	0.01410
1899.08056	0.01437
1897.79479	0.01460
1896.50902	0.01470
1895.22325	0.01458
1893.93748	0.01432
1892.65171	0.01412
1891.36594	0.01411
1890.08018	0.01420
1888.79441	0.01421
1887.50864	0.01407
1886.22287	0.01381
1884.93710	0.01352
1883.65133	0.01330
1882.36556	0.01324
1881.07979	0.01334
1879.79402	0.01354
1878.50826	0.01377
1877.22249	0.01399
1875.93672	0.01413
1874.65095	0.01414
1873.36518	0.01403
1872.07941	0.01391
1870.79364	0.01385
1869.50787	0.01380
1868.22211	0.01366
1866.93634	0.01343
1865.65057	0.01324
1864.36480	0.01324
1863.07903	0.01346
1861.79326	0.01373
1860.50749	0.01385
1859.22172	0.01378
1857.93595	0.01366
1856.65019	0.01363
1855.36442	0.01367
1854.07865	0.01368
1852.79288	0.01357
1851.50711	0.01337
1850.22134	0.01317
1848.93557	0.01309
1847.64980	0.01317
1846.36404	0.01338
1845.07827	0.01358
1843.79250	0.01360
1842.50673	0.01347
1841.22096	0.01330
1839.93519	0.01319
1838.64942	0.01317
1837.36365	0.01321
1836.07788	0.01328
1834.79212	0.01331
1833.50635	0.01329
1832.22058	0.01322
1830.93481	0.01319
1829.64904	0.01322
1828.36327	0.01332
1827.07750	0.01353
1825.79173	0.01387
1824.50597	0.01429
1823.22020	0.01475
1821.93443	0.01514
1820.64866	0.01531
1819.36289	0.01515
1818.07712	0.01466
1816.79135	0.01396
1815.50558	0.01324
1814.21981	0.01268
1812.93405	0.01236
1811.64828	0.01222
1810.36251	0.01216
1809.07674	0.01210
1807.79097	0.01205
1806.50520	0.01204
1805.21943	0.01208
1803.93366	0.01219
1802.64790	0.01238
1801.36213	0.01259
1800.07636	0.01276
1798.79059	0.01284
1797.50482	0.01284
1796.21905	0.01285
1794.93328	0.01293
1793.64751	0.01310
1792.36174	0.01329
1791.07598	0.01342
1789.79021	0.01348
1788.50444	0.01350
1787.21867	0.01349
1785.93290	0.01345
1784.64713	0.01338
1783.36136	0.01329
1782.07559	0.01324
1780.78983	0.01325
1779.50406	0.01326
1778.21829	0.01322
1776.93252	0.01309
1775.64675	0.01288
1774.36098	0.01268
1773.07521	0.01248
1771.78944	0.01227
1770.50367	0.01210
1769.21791	0.01204
1767.93214	0.01206
1766.64637	0.01211
1765.36060	0.01217
1764.07483	0.01227
1762.78906	0.01238
1761.50329	0.01247
1760.21752	0.01251
1758.93176	0.01253
1757.64599	0.01254
1756.36022	0.01251
1755.07445	0.01246
1753.78868	0.01248
1752.50291	0.01259
1751.21714	0.01270
1749.93137	0.01276
1748.64560	0.01278
1747.35984	0.01283
1746.07407	0.01290
1744.78830	0.01297
1743.50253	0.01302
1742.21676	0.01307
1740.93099	0.01316
1739.64522	0.01324
1738.35945	0.01329
1737.07369	0.01334
1735.78792	0.01348
1734.50215	0.01370
1733.21638	0.01391
1731.93061	0.01412
1730.64484	0.01438
1729.35907	0.01464
1728.07330	0.01480
1726.78753	0.01485
1725.50177	0.01487
1724.21600	0.01495
1722.93023	0.01510
1721.64446	0.01529
1720.35869	0.01554
1719.07292	0.01585
1717.78715	0.01618
1716.50138	0.01649
1715.21561	0.01681
1713.92985	0.01719
1712.64408	0.01763
1711.35831	0.01814
1710.07254	0.01875
1708.78677	0.01956
1707.50100	0.02058
1706.21523	0.02171
1704.92946	0.02278
1703.64370	0.02378
1702.35793	0.02486
1701.07216	0.02608
1699.78639	0.02730
1698.50062	0.02854
1697.21485	0.02990
1695.92908	0.03136
1694.64331	0.03276
1693.35754	0.03413
1692.07178	0.03560
1690.78601	0.03713
1689.50024	0.03858
1688.21447	0.03991
1686.92870	0.04126
1685.64293	0.04277
1684.35716	0.04436
1683.07139	0.04594
1681.78563	0.04752
1680.49986	0.04911
1679.21409	0.05071
1677.92832	0.05234
1676.64255	0.05405
1675.35678	0.05579
1674.07101	0.05748
1672.78524	0.05916
1671.49947	0.06090
1670.21371	0.06271
1668.92794	0.06453
1667.64217	0.06633
1666.35640	0.06812
1665.07063	0.06989
1663.78486	0.07161
1662.49909	0.07322
1661.21332	0.07474
1659.92756	0.07620
1658.64179	0.07758
1657.35602	0.07883
1656.07025	0.07998
1654.78448	0.08116
1653.49871	0.08234
1652.21294	0.08335
1650.92717	0.08416
1649.64140	0.08495
1648.35564	0.08579
1647.06987	0.08661
1645.78410	0.08733
1644.49833	0.08796
1643.21256	0.08857
1641.92679	0.08915
1640.64102	0.08963
1639.35525	0.08997
1638.06949	0.09024
1636.78372	0.09051
1635.49795	0.09073
1634.21218	0.09085
1632.92641	0.09091
1631.64064	0.09093
1630.35487	0.09085
1629.06910	0.09057
1627.78333	0.09003
1626.49757	0.08925
1625.21180	0.08832
1623.92603	0.08730
1622.64026	0.08616
1621.35449	0.08487
1620.06872	0.08345
1618.78295	0.08195
1617.49718	0.08042
1616.21142	0.07883
1614.92565	0.07724
1613.63988	0.07569
1612.35411	0.07419
1611.06834	0.07266
1609.78257	0.07107
1608.49680	0.06945
1607.21103	0.06783
1605.92526	0.06625
1604.63950	0.06475
1603.35373	0.06336
1602.06796	0.06207
1600.78219	0.06089
1599.49642	0.05982
1598.21065	0.05886
1596.92488	0.05798
1595.63911	0.05715
1594.35335	0.05635
1593.06758	0.05562
1591.78181	0.05501
1590.49604	0.05457
1589.21027	0.05428
1587.92450	0.05409
1586.63873	0.05391
1585.35296	0.05374
1584.06719	0.05361
1582.78143	0.05358
1581.49566	0.05366
1580.20989	0.05386
1578.92412	0.05416
1577.63835	0.05458
1576.35258	0.05503
1575.06681	0.05545
1573.78104	0.05590
1572.49528	0.05650
1571.20951	0.05730
1569.92374	0.05819
1568.63797	0.05910
1567.35220	0.06001
1566.06643	0.06094
1564.78066	0.06186
1563.49489	0.06273
1562.20912	0.06362
1560.92336	0.06461
1559.63759	0.06563
1558.35182	0.06658
1557.06605	0.06748
1555.78028	0.06844
1554.49451	0.06949
1553.20874	0.07053
1551.92297	0.07151
1550.63721	0.07241
1549.35144	0.07316
1548.06567	0.07378
1546.77990	0.07432
1545.49413	0.07480
1544.20836	0.07518
1542.92259	0.07550
1541.63682	0.07582
1540.35105	0.07618
1539.06529	0.07650
1537.77952	0.07674
1536.49375	0.07698
1535.20798	0.07726
1533.92221	0.07753
1532.63644	0.07769
1531.35067	0.07775
1530.06490	0.07776
1528.77914	0.07775
1527.49337	0.07769
1526.20760	0.07753
1524.92183	0.07731
1523.63606	0.07712
1522.35029	0.07699
1521.06452	0.07684
1519.77875	0.07660
1518.49298	0.07629
1517.20722	0.07597
1515.92145	0.07560
1514.63568	0.07514
1513.34991	0.07458
1512.06414	0.07387
1510.77837	0.07298
1509.49260	0.07199
1508.20683	0.07102
1506.92107	0.07008
1505.63530	0.06908
1504.34953	0.06801
1503.06376	0.06691
1501.77799	0.06578
1500.49222	0.06460
1499.20645	0.06339
1497.92068	0.06217
1496.63491	0.06092
1495.34915	0.05962
1494.06338	0.05831
1492.77761	0.05704
1491.49184	0.05584
1490.20607	0.05465
1488.92030	0.05349
1487.63453	0.05240
1486.34876	0.05142
1485.06299	0.05056
1483.77723	0.04978
1482.49146	0.04906
1481.20569	0.04841
1479.91992	0.04787
1478.63415	0.04751
1477.34838	0.04735
1476.06261	0.04736
1474.77684	0.04749
1473.49108	0.04776
1472.20531	0.04811
1470.91954	0.04853
1469.63377	0.04898
1468.34800	0.04944
1467.06223	0.04990
1465.77646	0.05033
1464.49069	0.05075
1463.20492	0.05119
1461.91916	0.05168
1460.63339	0.05225
1459.34762	0.05293
1458.06185	0.05369
1456.77608	0.05442
1455.49031	0.05503
1454.20454	0.05553
1452.91877	0.05596
1451.63301	0.05629
1450.34724	0.05650
1449.06147	0.05659
1447.77570	0.05659
1446.48993	0.05651
1445.20416	0.05638
1443.91839	0.05618
1442.63262	0.05588
1441.34685	0.05548
1440.06109	0.05501
1438.77532	0.05454
1437.48955	0.05409
1436.20378	0.05362
1434.91801	0.05314
1433.63224	0.05269
1432.34647	0.05226
1431.06070	0.05185
1429.77494	0.05148
1428.48917	0.05117
1427.20340	0.05095
1425.91763	0.05079
1424.63186	0.05067
1423.34609	0.05056
1422.06032	0.05050
1420.77455	0.05052
1419.48878	0.05055
1418.20302	0.05053
1416.91725	0.05046
1415.63148	0.05041
1414.34571	0.05039
1413.05994	0.05042
1411.77417	0.05045
1410.48840	0.05047
1409.20263	0.05049
1407.91687	0.05052
1406.63110	0.05059
1405.34533	0.05069
1404.05956	0.05079
1402.77379	0.05088
1401.48802	0.05095
1400.20225	0.05097
1398.91648	0.05090
1397.63071	0.05075
1396.34495	0.05058
1395.05918	0.05045
1393.77341	0.05034
1392.48764	0.05025
1391.20187	0.05015
1389.91610	0.05005
1388.63033	0.04994
1387.34456	0.04981
1386.05880	0.04965
1384.77303	0.04944
1383.48726	0.04918
1382.20149	0.04889
1380.91572	0.04858
1379.62995	0.04828
1378.34418	0.04797
1377.05841	0.04766
1375.77264	0.04735
1374.48688	0.04703
1373.20111	0.04668
1371.91534	0.04630
1370.62957	0.04590
1369.34380	0.04550
1368.05803	0.04504
1366.77226	0.04451
1365.48649	0.04393
1364.20073	0.04338
1362.91496	0.04290
1361.62919	0.04251
1360.34342	0.04218
1359.05765	0.04189
1357.77188	0.04160
1356.48611	0.04133
1355.20034	0.04111
1353.91457	0.04099
1352.62881	0.04100
1351.34304	0.04111
1350.05727	0.04124
1348.77150	0.04132
1347.48573	0.04135
1346.19996	0.04136
1344.91419	0.04142
1343.62842	0.04157
1342.34266	0.04178
1341.05689	0.04199
1339.77112	0.04218
1338.48535	0.04233
1337.19958	0.04247
1335.91381	0.04257
1334.62804	0.04257
1333.34227	0.04243
1332.05650	0.04220
1330.77074	0.04194
1329.48497	0.04172
1328.19920	0.04153
1326.91343	0.04132
1325.62766	0.04109
1324.34189	0.04087
1323.05612	0.04069
1321.77035	0.04057
1320.48459	0.04052
1319.19882	0.04050
1317.91305	0.04049
1316.62728	0.04045
1315.34151	0.04034
1314.05574	0.04019
1312.76997	0.04004
1311.48420	0.03992
1310.19843	0.03984
1308.91267	0.03977
1307.62690	0.03967
1306.34113	0.03954
1305.05536	0.03940
1303.76959	0.03925
1302.48382	0.03910
1301.19805	0.03894
1299.91228	0.03878
1298.62652	0.03864
1297.34075	0.03855
1296.05498	0.03850
1294.76921	0.03849
1293.48344	0.03851
1292.19767	0.03858
1290.91190	0.03868
1289.62613	0.03882
1288.34036	0.03901
1287.05460	0.03926
1285.76883	0.03954
1284.48306	0.03980
1283.19729	0.04000
1281.91152	0.04012
1280.62575	0.04022
1279.33998	0.04032
1278.05421	0.04042
1276.76845	0.04047
1275.48268	0.04048
1274.19691	0.04046
1272.91114	0.04047
1271.62537	0.04052
1270.33960	0.04066
1269.05383	0.04087
1267.76806	0.04112
1266.48229	0.04136
1265.19653	0.04159
1263.91076	0.04184
1262.62499	0.04211
1261.33922	0.04237
1260.05345	0.04259
1258.76768	0.04274
1257.48191	0.04290
1256.19614	0.04310
1254.91037	0.04338
1253.62461	0.04371
1252.33884	0.04409
1251.05307	0.04449
1249.76730	0.04490
1248.48153	0.04531
1247.19576	0.04574
1245.90999	0.04621
1244.62422	0.04671
1243.33846	0.04718
1242.05269	0.04758
1240.76692	0.04792
1239.48115	0.04821
1238.19538	0.04851
1236.90961	0.04878
1235.62384	0.04899
1234.33807	0.04910
1233.05230	0.04908
1231.76654	0.04896
1230.48077	0.04877
1229.19500	0.04853
1227.90923	0.04823
1226.62346	0.04789
1225.33769	0.04749
1224.05192	0.04704
1222.76615	0.04653
1221.48039	0.04600
1220.19462	0.04549
1218.90885	0.04504
1217.62308	0.04463
1216.33731	0.04424
1215.05154	0.04384
1213.76577	0.04346
1212.48000	0.04313
1211.19423	0.04290
1209.90847	0.04276
1208.62270	0.04268
1207.33693	0.04262
1206.05116	0.04255
1204.76539	0.04247
1203.47962	0.04238
1202.19385	0.04229
1200.90808	0.04203
1199.62232	0.04153
1198.33655	0.04134
1197.05078	0.04110
1195.76501	0.04077
1194.47924	0.04036
1193.19347	0.03993
1191.90770	0.03952
1190.62193	0.03918
1189.33616	0.03890
1188.05040	0.03864
1186.76463	0.03836
1185.47886	0.03807
1184.19309	0.03779
1182.90732	0.03753
1181.62155	0.03732
1180.33578	0.03716
1179.05001	0.03705
1177.76425	0.03699
1176.47848	0.03696
1175.19271	0.03695
1173.90694	0.03694
1172.62117	0.03690
1171.33540	0.03683
1170.04963	0.03678
1168.76386	0.03682
1167.47809	0.03696
1166.19233	0.03716
1164.90656	0.03739
1163.62079	0.03760
1162.33502	0.03779
1161.04925	0.03793
1159.76348	0.03802
1158.47771	0.03804
1157.19194	0.03795
1155.90618	0.03780
1154.62041	0.03763
1153.33464	0.03746
1152.04887	0.03729
1150.76310	0.03712
1149.47733	0.03696
1148.19156	0.03682
1146.90579	0.03670
1145.62002	0.03661
1144.33426	0.03654
1143.04849	0.03648
1141.76272	0.03643
1140.47695	0.03640
1139.19118	0.03640
1137.90541	0.03642
1136.61964	0.03647
1135.33387	0.03657
1134.04811	0.03672
1132.76234	0.03696
1131.47657	0.03736
1130.19080	0.03793
1128.90503	0.03862
1127.61926	0.03932
1126.33349	0.03999
1125.04772	0.04067
1123.76195	0.04143
1122.47619	0.04228
1121.19042	0.04322
1119.90465	0.04424
1118.61888	0.04528
1117.33311	0.04629
1116.04734	0.04732
1114.76157	0.04841
1113.47580	0.04954
1112.19004	0.05064
1110.90427	0.05167
1109.61850	0.05265
1108.33273	0.05361
1107.04696	0.05455
1105.76119	0.05552
1104.47542	0.05652
1103.18965	0.05752
1101.90388	0.05842
1100.61812	0.05920
1099.33235	0.05986
1098.04658	0.06043
1096.76081	0.06089
1095.47504	0.06122
1094.18927	0.06143
1092.90350	0.06155
1091.61773	0.06159
1090.33197	0.06154
1089.04620	0.06146
1087.76043	0.06144
1086.47466	0.06159
1085.18889	0.06192
1083.90312	0.06241
1082.61735	0.06302
1081.33158	0.06374
1080.04581	0.06453
1078.76005	0.06536
1077.47428	0.06615
1076.18851	0.06686
1074.90274	0.06747
1073.61697	0.06803
1072.33120	0.06854
1071.04543	0.06898
1069.75966	0.06936
1068.47390	0.06966
1067.18813	0.06990
1065.90236	0.07013
1064.61659	0.07041
1063.33082	0.07079
1062.04505	0.07125
1060.75928	0.07172
1059.47351	0.07219
1058.18774	0.07270
1056.90198	0.07328
1055.61621	0.07394
1054.33044	0.07465
1053.04467	0.07538
1051.75890	0.07615
1050.47313	0.07703
1049.18736	0.07801
1047.90159	0.07909
1046.61583	0.08022
1045.33006	0.08139
1044.04429	0.08260
1042.75852	0.08383
1041.47275	0.08504
1040.18698	0.08622
1038.90121	0.08730
1037.61544	0.08803
1036.32967	0.08814
1035.04391	0.08779
1033.75814	0.08772
1032.47237	0.08861
1031.18660	0.09035
1029.90083	0.09213
1028.61506	0.09316
1027.32929	0.09325
1026.04352	0.09263
1024.75775	0.09158
1023.47199	0.09029
1022.18622	0.08888
1020.90045	0.08736
1019.61468	0.08571
1018.32891	0.08392
1017.04314	0.08200
1015.75737	0.08002
1014.47160	0.07806
1013.18584	0.07623
1011.90007	0.07454
1010.61430	0.07301
1009.32853	0.07160
1008.04276	0.07029
1006.75699	0.06905
1005.47122	0.06783
1004.18545	0.06658
1002.89968	0.06533
1001.61392	0.06412
1000.32815	0.06302
999.04238	0.06199
997.75661	0.06100
996.47084	0.06006
995.18507	0.05920
993.89930	0.05840
992.61353	0.05762
991.32777	0.05687
990.04200	0.05615
988.75623	0.05546
987.47046	0.05476
986.18469	0.05401
984.89892	0.05325
983.61315	0.05252
982.32738	0.05186
981.04161	0.05127
979.75585	0.05076
978.47008	0.05036
977.18431	0.05004
975.89854	0.04976
974.61277	0.04945
973.32700	0.04910
972.04123	0.04882
970.75546	0.04869
969.46970	0.04878
968.18393	0.04899
966.89816	0.04916
965.61239	0.04912
964.32662	0.04879
963.04085	0.04826
961.75508	0.04764
960.46931	0.04704
959.18354	0.04648
957.89778	0.04594
956.61201	0.04538
955.32624	0.04481
954.04047	0.04425
952.75470	0.04371
951.46893	0.04318
950.18316	0.04269
948.89739	0.04229
947.61163	0.04203
946.32586	0.04192
945.04009	0.04188
943.75432	0.04180
942.46855	0.04160
941.18278	0.04124
939.89701	0.04078
938.61124	0.04029
937.32547	0.03986
936.03971	0.03953
934.75394	0.03931
933.46817	0.03914
932.18240	0.03892
930.89663	0.03862
929.61086	0.03825
928.32509	0.03788
927.03932	0.03756
925.75356	0.03729
924.46779	0.03705
923.18202	0.03682
921.89625	0.03658
920.61048	0.03634
919.32471	0.03612
918.03894	0.03592
916.75317	0.03573
915.46740	0.03554
914.18164	0.03530
912.89587	0.03502
911.61010	0.03472
910.32433	0.03448
909.03856	0.03432
907.75279	0.03419
906.46702	0.03405
905.18125	0.03388
903.89549	0.03369
902.60972	0.03350
901.32395	0.03333
900.03818	0.03318
898.75241	0.03305
897.46664	0.03289
896.18087	0.03266
894.89510	0.03241
893.60933	0.03220
892.32357	0.03204
891.03780	0.03195
889.75203	0.03189
888.46626	0.03186
887.18049	0.03186
885.89472	0.03186
884.60895	0.03185
883.32318	0.03184
882.03742	0.03191
880.75165	0.03208
879.46588	0.03233
878.18011	0.03248
876.89434	0.03243
875.60857	0.03222
874.32280	0.03203
873.03703	0.03199
871.75126	0.03206
870.46550	0.03214
869.17973	0.03215
867.89396	0.03208
866.60819	0.03195
865.32242	0.03181
864.03665	0.03176
862.75088	0.03181
861.46511	0.03185
860.17935	0.03175
858.89358	0.03149
857.60781	0.03119
856.32204	0.03097
855.03627	0.03083
853.75050	0.03076
852.46473	0.03070
851.17896	0.03063
849.89319	0.03051
848.60743	0.03034
847.32166	0.03014
846.03589	0.02994
844.75012	0.02978
843.46435	0.02970
842.17858	0.02967
840.89281	0.02966
839.60704	0.02958
838.32128	0.02945
837.03551	0.02930
835.74974	0.02919
834.46397	0.02913
833.17820	0.02907
831.89243	0.02899
830.60666	0.02889
829.32089	0.02881
828.03512	0.02877
826.74936	0.02877
825.46359	0.02881
824.17782	0.02888
822.89205	0.02894
821.60628	0.02901
820.32051	0.02911
819.03474	0.02922
817.74897	0.02933
816.46321	0.02937
815.17744	0.02932
813.89167	0.02920
812.60590	0.02905
811.32013	0.02893
810.03436	0.02889
808.74859	0.02891
807.46282	0.02897
806.17705	0.02905
804.89129	0.02914
803.60552	0.02924
802.31975	0.02935
801.03398	0.02943
799.74821	0.02947
798.46244	0.02947
797.17667	0.02943
795.89090	0.02938
794.60513	0.02937
793.31937	0.02941
792.03360	0.02947
790.74783	0.02951
789.46206	0.02951
788.17629	0.02951
786.89052	0.02956
785.60475	0.02965
784.31898	0.02970
783.03322	0.02967
781.74745	0.02958
780.46168	0.02955
779.17591	0.02964
777.89014	0.02983
776.60437	0.03001
775.31860	0.03008
774.03283	0.02999
772.74706	0.02980
771.46130	0.02963
770.17553	0.02957
768.88976	0.02966
767.60399	0.02982
766.31822	0.02997
765.03245	0.03008
763.74668	0.03020
762.46091	0.03038
761.17515	0.03061
759.88938	0.03083
758.60361	0.03100
757.31784	0.03113
756.03207	0.03123
754.74630	0.03129
753.46053	0.03128
752.17476	0.03125
750.88899	0.03126
749.60323	0.03133
748.31746	0.03142
747.03169	0.03147
745.74592	0.03150
744.46015	0.03157
743.17438	0.03173
741.88861	0.03192
740.60284	0.03208
739.31708	0.03217
738.03131	0.03224
736.74554	0.03231
735.45977	0.03237
734.17400	0.03241
732.88823	0.03242
731.60246	0.03243
730.31669	0.03248
729.03092	0.03257
727.74516	0.03265
726.45939	0.03266
725.17362	0.03258
723.88785	0.03241
722.60208	0.03242
721.31631	0.03258
720.03054	0.03283
718.74477	0.03309
717.45901	0.03328
716.17324	0.03336
714.88747	0.03338
713.60170	0.03338
712.31593	0.03338
711.03016	0.03340
709.74439	0.03345
708.45862	0.03356
707.17285	0.03372
705.88709	0.03391
704.60132	0.03411
703.31555	0.03428
702.02978	0.03440
700.74401	0.03445
699.45824	0.03443
698.17247	0.03438
696.88670	0.03436
695.60094	0.03442
694.31517	0.03456
693.02940	0.03472
691.74363	0.03484
690.45786	0.03486
689.17209	0.03479
687.88632	0.03466
686.60055	0.03458
685.31478	0.03458
684.02902	0.03466
682.74325	0.03476
681.45748	0.03481
680.17171	0.03483
678.88594	0.03482
677.60017	0.03484
676.31440	0.03488
675.02863	0.03496
673.74287	0.03508
672.45710	0.03525
671.17133	0.03541
669.88556	0.03551
668.59979	0.03553
667.31402	0.03548
666.02825	0.03533
664.74248	0.03523
663.45671	0.03518
662.17095	0.03518
660.88518	0.03520
659.59941	0.03525
658.31364	0.03533
657.02787	0.03540
655.74210	0.03546
654.45633	0.03552
653.17056	0.03556
651.88480	0.03556
650.59903	0.03548
649.31326	0.03536
648.02749	0.03524
646.74172	0.03515
645.45595	0.03510
644.17018	0.03506
642.88441	0.03507
641.59864	0.03512
640.31288	0.03519
639.02711	0.03523
637.74134	0.03519
636.45557	0.03509
635.16980	0.03499
633.88403	0.03491
632.59826	0.03480
631.31249	0.03495
630.02673	0.03675
628.74096	0.03957
627.45519	0.03803
626.16942	0.04117
624.88365	0.04722
623.59788	0.05262
622.31211	0.05645
621.02634	0.05837
619.74057	0.05789
618.45481	0.05510
617.16904	0.05115
615.88327	0.04764
614.59750	0.04585
613.31173	0.04635
612.02596	0.04890
610.74019	0.05255
609.45442	0.05622
608.16866	0.05924
606.88289	0.06127
605.59712	0.06223
604.31135	0.06223
603.02558	0.06158
601.73981	0.06053
600.45404	0.05914
599.16827	0.05742
597.88250	0.05547
596.59674	0.05346
595.31097	0.05162
594.02520	0.05014
592.73943	0.04916
591.45366	0.04865
590.16789	0.04840
588.88212	0.04825
587.59635	0.04820
586.31059	0.04832
585.02482	0.04865
583.73905	0.04915
582.45328	0.04977
581.16751	0.05054
579.88174	0.05142
578.59597	0.05232
577.31020	0.05307
576.02443	0.05364
574.73867	0.05415
573.45290	0.05480
572.16713	0.05570
570.88136	0.05680
569.59559	0.05795
568.30982	0.05901
567.02405	0.05995
565.73828	0.06075
564.45251	0.06133
563.16675	0.06155
561.88098	0.06133
560.59521	0.06075
559.30944	0.05996
558.02367	0.05908
556.73790	0.05816
555.45213	0.05723
554.16636	0.05637
552.88060	0.05563
551.59483	0.05497
550.30906	0.05433
549.02329	0.05370
547.73752	0.05310
546.45175	0.05252
545.16598	0.05189
543.88021	0.05115
542.59444	0.05037
541.30868	0.04971
540.02291	0.04933
538.73714	0.04926
537.45137	0.04936
536.16560	0.04941
534.87983	0.04925
533.59406	0.04888
532.30829	0.04842
531.02253	0.04797
529.73676	0.04757
528.45099	0.04722
527.16522	0.04688
525.87945	0.04654
524.59368	0.04618
523.30791	0.04579
522.02214	0.04540
520.73637	0.04504
519.45061	0.04473
518.16484	0.04448
516.87907	0.04426
515.59330	0.04402
514.30753	0.04376
513.02176	0.04350
511.73599	0.04330
510.45022	0.04316
509.16446	0.04299
507.87869	0.04274
506.59292	0.04241
505.30715	0.04207
504.02138	0.04171
502.73561	0.04133
501.44984	0.04096
500.16407	0.04067
498.87830	0.04052
497.59254	0.04044
496.30677	0.04036
495.02100	0.04019
493.73523	0.03992
492.44946	0.03961
491.16369	0.03935
489.87792	0.03917
488.59215	0.03906
487.30639	0.03897
486.02062	0.03882
484.73485	0.03856
483.44908	0.03821
482.16331	0.03786
480.87754	0.03762
479.59177	0.03752
478.30600	0.03749
477.02023	0.03746
475.73447	0.03737
474.44870	0.03723
473.16293	0.03708
471.87716	0.03694
470.59139	0.03682
469.30562	0.03672
468.01985	0.03662
466.73408	0.03651
465.44832	0.03637
464.16255	0.03620
462.87678	0.03604
461.59101	0.03587
460.30524	0.03567
459.01947	0.03546
457.73370	0.03524
456.44793	0.03499
455.16216	0.03469
453.87640	0.03436
452.59063	0.03403
451.30486	0.03375
450.01909	0.03354
448.73332	0.03336
447.44755	0.03318
446.16178	0.03297
444.87601	0.03277
443.59025	0.03260
442.30448	0.03247
441.01871	0.03233
439.73294	0.03215
438.44717	0.03196
437.16140	0.03181
435.87563	0.03170
434.58986	0.03159
433.30409	0.03145
432.01833	0.03132
430.73256	0.03121
429.44679	0.03109
428.16102	0.03093
426.87525	0.03071
425.58948	0.03049
424.30371	0.03029
423.01794	0.03012
421.73218	0.02996
420.44641	0.02981
419.16064	0.02965
417.87487	0.02946
416.58910	0.02928
415.30333	0.02910
414.01756	0.02893
412.73179	0.02877
411.44602	0.02864
410.16026	0.02857
408.87449	0.02854
407.58872	0.02851
406.30295	0.02840
405.01718	0.02822
403.73141	0.02803
402.44564	0.02788
401.15987	0.02780
399.87411	0.02775
