3997.45528	0.01491
3996.16951	0.01482
3994.88374	0.01496
3993.59798	0.01536
3992.31221	0.01573
3991.02644	0.01580
3989.74067	0.01565
3988.45490	0.01553
3987.16913	0.01562
3985.88336	0.01592
3984.59759	0.01633
3983.31183	0.01669
3982.02606	0.01681
3980.74029	0.01661
3979.45452	0.01622
3978.16875	0.01583
3976.88298	0.01547
3975.59721	0.01505
3974.31144	0.01457
3973.02567	0.01416
3971.73991	0.01403
3970.45414	0.01427
3969.16837	0.01479
3967.88260	0.01527
3966.59683	0.01539
3965.31106	0.01513
3964.02529	0.01474
3962.73952	0.01448
3961.45376	0.01434
3960.16799	0.01418
3958.88222	0.01397
3957.59645	0.01391
3956.31068	0.01415
3955.02491	0.01456
3953.73914	0.01481
3952.45337	0.01472
3951.16760	0.01443
3949.88184	0.01426
3948.59607	0.01436
3947.31030	0.01467
3946.02453	0.01508
3944.73876	0.01549
3943.45299	0.01581
3942.16722	0.01592
3940.88145	0.01582
3939.59569	0.01564
3938.30992	0.01554
3937.02415	0.01556
3935.73838	0.01557
3934.45261	0.01544
3933.16684	0.01512
3931.88107	0.01472
3930.59530	0.01446
3929.30953	0.01457
3928.02377	0.01507
3926.73800	0.01577
3925.45223	0.01632
3924.16646	0.01637
3922.88069	0.01590
3921.59492	0.01520
3920.30915	0.01465
3919.02338	0.01442
3917.73762	0.01437
3916.45185	0.01427
3915.16608	0.01406
3913.88031	0.01395
3912.59454	0.01418
3911.30877	0.01468
3910.02300	0.01514
3908.73723	0.01533
3907.45146	0.01537
3906.16570	0.01549
3904.87993	0.01570
3903.59416	0.01581
3902.30839	0.01566
3901.02262	0.01534
3899.73685	0.01507
3898.45108	0.01499
3897.16531	0.01506
3895.87955	0.01514
3894.59378	0.01516
3893.30801	0.01512
3892.02224	0.01500
3890.73647	0.01473
3889.45070	0.01442
3888.16493	0.01432
3886.87916	0.01446
3885.59339	0.01460
3884.30763	0.01450
3883.02186	0.01420
3881.73609	0.01388
3880.45032	0.01359
3879.16455	0.01326
3877.87878	0.01298
3876.59301	0.01299
3875.30724	0.01348
3874.02148	0.01431
3872.73571	0.01518
3871.44994	0.01577
3870.16417	0.01589
3868.87840	0.01557
3867.59263	0.01512
3866.30686	0.01475
3865.02109	0.01440
3863.73532	0.01408
3862.44956	0.01398
3861.16379	0.01419
3859.87802	0.01449
3858.59225	0.01463
3857.30648	0.01469
3856.02071	0.01486
3854.73494	0.01509
3853.44917	0.01505
3852.16341	0.01470
3850.87764	0.01439
3849.59187	0.01441
3848.30610	0.01468
3847.02033	0.01494
3845.73456	0.01503
3844.44879	0.01493
3843.16302	0.01472
3841.87725	0.01443
3840.59149	0.01407
3839.30572	0.01369
3838.01995	0.01343
3836.73418	0.01339
3835.44841	0.01361
3834.16264	0.01395
3832.87687	0.01417
3831.59110	0.01419
3830.30534	0.01416
3829.01957	0.01426
3827.73380	0.01455
3826.44803	0.01483
3825.16226	0.01488
3823.87649	0.01469
3822.59072	0.01448
3821.30495	0.01440
3820.01918	0.01445
3818.73342	0.01454
3817.44765	0.01457
3816.16188	0.01443
3814.87611	0.01419
3813.59034	0.01400
3812.30457	0.01382
3811.01880	0.01346
3809.73303	0.01297
3808.44726	0.01268
3807.16150	0.01273
3805.87573	0.01302
3804.58996	0.01349
3803.30419	0.01414
3802.01842	0.01478
3800.73265	0.01516
3799.44688	0.01523
3798.16111	0.01517
3796.87535	0.01501
3795.58958	0.01470
3794.30381	0.01428
3793.01804	0.01395
3791.73227	0.01386
3790.44650	0.01401
3789.16073	0.01423
3787.87496	0.01444
3786.58919	0.01456
3785.30343	0.01459
3784.01766	0.01452
3782.73189	0.01445
3781.44612	0.01439
3780.16035	0.01424
3778.87458	0.01396
3777.58881	0.01379
3776.30304	0.01404
3775.01728	0.01461
3773.73151	0.01511
3772.44574	0.01527
3771.15997	0.01501
3769.87420	0.01445
3768.58843	0.01381
3767.30266	0.01346
3766.01689	0.01358
3764.73112	0.01400
3763.44536	0.01439
3762.15959	0.01452
3760.87382	0.01435
3759.58805	0.01395
3758.30228	0.01348
3757.01651	0.01298
3755.73074	0.01249
3754.44497	0.01223
3753.15921	0.01241
3751.87344	0.01304
3750.58767	0.01377
3749.30190	0.01415
3748.01613	0.01399
3746.73036	0.01359
3745.44459	0.01324
3744.15882	0.01284
3742.87305	0.01243
3741.58729	0.01229
3740.30152	0.01255
3739.01575	0.01301
3737.72998	0.01348
3736.44421	0.01382
3735.15844	0.01404
3733.87267	0.01430
3732.58690	0.01466
3731.30114	0.01489
3730.01537	0.01474
3728.72960	0.01425
3727.44383	0.01364
3726.15806	0.01323
3724.87229	0.01324
3723.58652	0.01359
3722.30075	0.01394
3721.01498	0.01396
3719.72922	0.01369
3718.44345	0.01346
3717.15768	0.01351
3715.87191	0.01379
3714.58614	0.01414
3713.30037	0.01441
3712.01460	0.01459
3710.72883	0.01473
3709.44307	0.01479
3708.15730	0.01459
3706.87153	0.01402
3705.58576	0.01325
3704.29999	0.01267
3703.01422	0.01256
3701.72845	0.01285
3700.44268	0.01323
3699.15691	0.01345
3697.87115	0.01344
3696.58538	0.01327
3695.29961	0.01305
3694.01384	0.01291
3692.72807	0.01290
3691.44230	0.01307
3690.15653	0.01343
3688.87076	0.01376
3687.58500	0.01375
3686.29923	0.01343
3685.01346	0.01310
3683.72769	0.01299
3682.44192	0.01312
3681.15615	0.01342
3679.87038	0.01386
3678.58461	0.01447
3677.29884	0.01517
3676.01308	0.01563
3674.72731	0.01558
3673.44154	0.01518
3672.15577	0.01480
3670.87000	0.01457
3669.58423	0.01443
3668.29846	0.01450
3667.01269	0.01480
3665.72693	0.01507
3664.44116	0.01500
3663.15539	0.01459
3661.86962	0.01412
3660.58385	0.01391
3659.29808	0.01410
3658.01231	0.01460
3656.72654	0.01510
3655.44077	0.01534
3654.15501	0.01526
3652.86924	0.01503
3651.58347	0.01479
3650.29770	0.01458
3649.01193	0.01441
3647.72616	0.01433
3646.44039	0.01441
3645.15462	0.01470
3643.86886	0.01521
3642.58309	0.01587
3641.29732	0.01650
3640.01155	0.01695
3638.72578	0.01715
3637.44001	0.01723
3636.15424	0.01729
3634.86847	0.01727
3633.58270	0.01700
3632.29694	0.01658
3631.01117	0.01628
3629.72540	0.01628
3628.43963	0.01651
3627.15386	0.01686
3625.86809	0.01730
3624.58232	0.01773
3623.29655	0.01796
3622.01079	0.01793
3620.72502	0.01767
3619.43925	0.01734
3618.15348	0.01716
3616.86771	0.01730
3615.58194	0.01780
3614.29617	0.01836
3613.01040	0.01860
3611.72463	0.01843
3610.43887	0.01808
3609.15310	0.01778
3607.86733	0.01758
3606.58156	0.01751
3605.29579	0.01767
3604.01002	0.01816
3602.72425	0.01880
3601.43848	0.01929
3600.15272	0.01949
3598.86695	0.01966
3597.58118	0.01997
3596.29541	0.02035
3595.00964	0.02060
3593.72387	0.02075
3592.43810	0.02084
3591.15233	0.02090
3589.86656	0.02094
3588.58080	0.02094
3587.29503	0.02095
3586.00926	0.02111
3584.72349	0.02141
3583.43772	0.02165
3582.15195	0.02160
3580.86618	0.02134
3579.58041	0.02124
3578.29464	0.02163
3577.00888	0.02248
3575.72311	0.02347
3574.43734	0.02428
3573.15157	0.02477
3571.86580	0.02504
3570.58003	0.02524
3569.29426	0.02545
3568.00849	0.02561
3566.72273	0.02564
3565.43696	0.02557
3564.15119	0.02552
3562.86542	0.02566
3561.57965	0.02602
3560.29388	0.02642
3559.00811	0.02664
3557.72234	0.02650
3556.43657	0.02608
3555.15081	0.02560
3553.86504	0.02529
3552.57927	0.02518
3551.29350	0.02520
3550.00773	0.02529
3548.72196	0.02551
3547.43619	0.02588
3546.15042	0.02636
3544.86466	0.02682
3543.57889	0.02712
3542.29312	0.02720
3541.00735	0.02715
3539.72158	0.02711
3538.43581	0.02717
3537.15004	0.02739
3535.86427	0.02773
3534.57850	0.02815
3533.29274	0.02860
3532.00697	0.02902
3530.72120	0.02928
3529.43543	0.02932
3528.14966	0.02927
3526.86389	0.02936
3525.57812	0.02968
3524.29235	0.03008
3523.00659	0.03036
3521.72082	0.03048
3520.43505	0.03053
3519.14928	0.03059
3517.86351	0.03066
3516.57774	0.03071
3515.29197	0.03075
3514.00620	0.03091
3512.72043	0.03140
3511.43467	0.03225
3510.14890	0.03321
3508.86313	0.03383
3507.57736	0.03386
3506.29159	0.03334
3505.00582	0.03255
3503.72005	0.03186
3502.43428	0.03155
3501.14852	0.03172
3499.86275	0.03230
3498.57698	0.03309
3497.29121	0.03385
3496.00544	0.03441
3494.71967	0.03459
3493.43390	0.03437
3492.14813	0.03388
3490.86236	0.03341
3489.57660	0.03328
3488.29083	0.03360
3487.00506	0.03421
3485.71929	0.03478
3484.43352	0.03506
3483.14775	0.03512
3481.86198	0.03529
3480.57621	0.03577
3479.29045	0.03637
3478.00468	0.03675
3476.71891	0.03680
3475.43314	0.03669
3474.14737	0.03658
3472.86160	0.03645
3471.57583	0.03624
3470.29006	0.03602
3469.00429	0.03593
3467.71853	0.03596
3466.43276	0.03604
3465.14699	0.03613
3463.86122	0.03637
3462.57545	0.03686
3461.28968	0.03753
3460.00391	0.03813
3458.71814	0.03840
3457.43238	0.03830
3456.14661	0.03800
3454.86084	0.03767
3453.57507	0.03739
3452.28930	0.03723
3451.00353	0.03729
3449.71776	0.03765
3448.43199	0.03818
3447.14622	0.03862
3445.86046	0.03882
3444.57469	0.03887
3443.28892	0.03902
3442.00315	0.03936
3440.71738	0.03980
3439.43161	0.04021
3438.14584	0.04045
3436.86007	0.04052
3435.57431	0.04051
3434.28854	0.04057
3433.00277	0.04081
3431.71700	0.04113
3430.43123	0.04134
3429.14546	0.04134
3427.85969	0.04124
3426.57392	0.04122
3425.28815	0.04137
3424.00239	0.04155
3422.71662	0.04159
3421.43085	0.04151
3420.14508	0.04151
3418.85931	0.04178
3417.57354	0.04224
3416.28777	0.04268
3415.00200	0.04295
3413.71624	0.04309
3412.43047	0.04317
3411.14470	0.04318
3409.85893	0.04304
3408.57316	0.04273
3407.28739	0.04238
3406.00162	0.04220
3404.71585	0.04236
3403.43008	0.04286
3402.14432	0.04352
3400.85855	0.04410
3399.57278	0.04453
3398.28701	0.04497
3397.00124	0.04548
3395.71547	0.04588
3394.42970	0.04596
3393.14393	0.04579
3391.85817	0.04567
3390.57240	0.04582
3389.28663	0.04624
3388.00086	0.04674
3386.71509	0.04714
3385.42932	0.04732
3384.14355	0.04728
3382.85778	0.04711
3381.57201	0.04696
3380.28625	0.04701
3379.00048	0.04729
3377.71471	0.04766
3376.42894	0.04790
3375.14317	0.04796
3373.85740	0.04792
3372.57163	0.04792
3371.28586	0.04810
3370.00010	0.04849
3368.71433	0.04895
3367.42856	0.04928
3366.14279	0.04939
3364.85702	0.04941
3363.57125	0.04957
3362.28548	0.04987
3360.99971	0.05019
3359.71394	0.05051
3358.42818	0.05091
3357.14241	0.05142
3355.85664	0.05192
3354.57087	0.05226
3353.28510	0.05244
3351.99933	0.05259
3350.71356	0.05271
3349.42779	0.05270
3348.14202	0.05253
3346.85626	0.05236
3345.57049	0.05239
3344.28472	0.05264
3342.99895	0.05293
3341.71318	0.05311
3340.42741	0.05323
3339.14164	0.05352
3337.85587	0.05408
3336.57011	0.05479
3335.28434	0.05550
3333.99857	0.05616
3332.71280	0.05673
3331.42703	0.05713
3330.14126	0.05724
3328.85549	0.05710
3327.56972	0.05693
3326.28395	0.05697
3324.99819	0.05727
3323.71242	0.05765
3322.42665	0.05793
3321.14088	0.05805
3319.85511	0.05805
3318.56934	0.05798
3317.28357	0.05786
3315.99780	0.05777
3314.71204	0.05780
3313.42627	0.05803
3312.14050	0.05852
3310.85473	0.05920
3309.56896	0.05994
3308.28319	0.06046
3306.99742	0.06060
3305.71165	0.06045
3304.42588	0.06025
3303.14012	0.06022
3301.85435	0.06038
3300.56858	0.06059
3299.28281	0.06072
3297.99704	0.06067
3296.71127	0.06044
3295.42550	0.06013
3294.13973	0.05989
3292.85397	0.05987
3291.56820	0.06008
3290.28243	0.06044
3288.99666	0.06086
3287.71089	0.06132
3286.42512	0.06179
3285.13935	0.06218
3283.85358	0.06235
3282.56781	0.06218
3281.28205	0.06174
3279.99628	0.06127
3278.71051	0.06096
3277.42474	0.06082
3276.13897	0.06069
3274.85320	0.06047
3273.56743	0.06019
3272.28166	0.05994
3270.99590	0.05981
3269.71013	0.05984
3268.42436	0.05997
3267.13859	0.06001
3265.85282	0.05983
3264.56705	0.05947
3263.28128	0.05915
3261.99551	0.05906
3260.70974	0.05915
3259.42398	0.05923
3258.13821	0.05922
3256.85244	0.05919
3255.56667	0.05921
3254.28090	0.05920
3252.99513	0.05915
3251.70936	0.05919
3250.42359	0.05942
3249.13783	0.05969
3247.85206	0.05967
3246.56629	0.05924
3245.28052	0.05853
3243.99475	0.05781
3242.70898	0.05727
3241.42321	0.05701
3240.13744	0.05695
3238.85167	0.05692
3237.56591	0.05681
3236.28014	0.05671
3234.99437	0.05674
3233.70860	0.05684
3232.42283	0.05680
3231.13706	0.05651
3229.85129	0.05608
3228.56552	0.05566
3227.27976	0.05531
3225.99399	0.05499
3224.70822	0.05474
3223.42245	0.05465
3222.13668	0.05483
3220.85091	0.05526
3219.56514	0.05574
3218.27937	0.05600
3216.99360	0.05590
3215.70784	0.05555
3214.42207	0.05522
3213.13630	0.05508
3211.85053	0.05512
3210.56476	0.05519
3209.27899	0.05518
3207.99322	0.05501
3206.70745	0.05467
3205.42169	0.05427
3204.13592	0.05400
3202.85015	0.05398
3201.56438	0.05410
3200.27861	0.05413
3198.99284	0.05398
3197.70707	0.05375
3196.42130	0.05357
3195.13553	0.05346
3193.84977	0.05335
3192.56400	0.05323
3191.27823	0.05318
3189.99246	0.05322
3188.70669	0.05333
3187.42092	0.05340
3186.13515	0.05341
3184.84938	0.05336
3183.56362	0.05324
3182.27785	0.05304
3180.99208	0.05284
3179.70631	0.05267
3178.42054	0.05253
3177.13477	0.05234
3175.84900	0.05201
3174.56323	0.05157
3173.27746	0.05119
3171.99170	0.05107
3170.70593	0.05117
3169.42016	0.05126
3168.13439	0.05114
3166.84862	0.05097
3165.56285	0.05093
3164.27708	0.05097
3162.99131	0.05081
3161.70555	0.05033
3160.41978	0.04975
3159.13401	0.04934
3157.84824	0.04920
3156.56247	0.04915
3155.27670	0.04900
3153.99093	0.04874
3152.70516	0.04846
3151.41939	0.04823
3150.13363	0.04804
3148.84786	0.04793
3147.56209	0.04793
3146.27632	0.04802
3144.99055	0.04808
3143.70478	0.04803
3142.41901	0.04792
3141.13324	0.04787
3139.84748	0.04789
3138.56171	0.04783
3137.27594	0.04752
3135.99017	0.04698
3134.70440	0.04643
3133.41863	0.04610
3132.13286	0.04603
3130.84709	0.04609
3129.56132	0.04612
3128.27556	0.04605
3126.98979	0.04595
3125.70402	0.04587
3124.41825	0.04581
3123.13248	0.04579
3121.84671	0.04580
3120.56094	0.04578
3119.27517	0.04563
3117.98940	0.04541
3116.70364	0.04531
3115.41787	0.04545
3114.13210	0.04575
3112.84633	0.04599
3111.56056	0.04604
3110.27479	0.04599
3108.98902	0.04600
3107.70325	0.04613
3106.41749	0.04622
3105.13172	0.04611
3103.84595	0.04578
3102.56018	0.04543
3101.27441	0.04530
3099.98864	0.04551
3098.70287	0.04596
3097.41710	0.04639
3096.13133	0.04661
3094.84557	0.04661
3093.55980	0.04649
3092.27403	0.04636
3090.98826	0.04624
3089.70249	0.04615
3088.41672	0.04616
3087.13095	0.04627
3085.84518	0.04643
3084.55942	0.04662
3083.27365	0.04682
3081.98788	0.04704
3080.70211	0.04722
3079.41634	0.04730
3078.13057	0.04726
3076.84480	0.04713
3075.55903	0.04696
3074.27326	0.04682
3072.98750	0.04675
3071.70173	0.04674
3070.41596	0.04674
3069.13019	0.04677
3067.84442	0.04681
3066.55865	0.04687
3065.27288	0.04695
3063.98711	0.04708
3062.70135	0.04723
3061.41558	0.04738
3060.12981	0.04755
3058.84404	0.04771
3057.55827	0.04777
3056.27250	0.04765
3054.98673	0.04736
3053.70096	0.04706
3052.41519	0.04682
3051.12943	0.04658
3049.84366	0.04624
3048.55789	0.04584
3047.27212	0.04550
3045.98635	0.04529
3044.70058	0.04517
3043.41481	0.04508
3042.12904	0.04501
3040.84328	0.04500
3039.55751	0.04506
3038.27174	0.04515
3036.98597	0.04526
3035.70020	0.04534
3034.41443	0.04530
3033.12866	0.04506
3031.84289	0.04462
3030.55712	0.04409
3029.27136	0.04363
3027.98559	0.04332
3026.69982	0.04318
3025.41405	0.04313
3024.12828	0.04304
3022.84251	0.04288
3021.55674	0.04273
3020.27097	0.04270
3018.98521	0.04281
3017.69944	0.04294
3016.41367	0.04296
3015.12790	0.04290
3013.84213	0.04288
3012.55636	0.04294
3011.27059	0.04303
3009.98482	0.04309
3008.69905	0.04307
3007.41329	0.04299
3006.12752	0.04286
3004.84175	0.04268
3003.55598	0.04247
3002.27021	0.04217
3000.98444	0.04176
2999.69867	0.04127
2998.41290	0.04098
2997.12714	0.04090
2995.84137	0.04106
2994.55560	0.04139
2993.26983	0.04174
2991.98406	0.04197
2990.69829	0.04202
2989.41252	0.04197
2988.12675	0.04198
2986.84098	0.04218
2985.55522	0.04252
2984.26945	0.04287
2982.98368	0.04312
2981.69791	0.04330
2980.41214	0.04348
2979.12637	0.04368
2977.84060	0.04382
2976.55483	0.04385
2975.26907	0.04384
2973.98330	0.04384
2972.69753	0.04389
2971.41176	0.04407
2970.12599	0.04445
2968.84022	0.04503
2967.55445	0.04563
2966.26868	0.04607
2964.98291	0.04634
2963.69715	0.04649
2962.41138	0.04653
2961.12561	0.04643
2959.83984	0.04621
2958.55407	0.04604
2957.26830	0.04604
2955.98253	0.04615
2954.69676	0.04619
2953.41100	0.04607
2952.12523	0.04586
2950.83946	0.04568
2949.55369	0.04556
2948.26792	0.04549
2946.98215	0.04550
2945.69638	0.04559
2944.41061	0.04575
2943.12484	0.04591
2941.83908	0.04602
2940.55331	0.04606
2939.26754	0.04604
2937.98177	0.04602
2936.69600	0.04601
2935.41023	0.04598
2934.12446	0.04592
2932.83869	0.04594
2931.55293	0.04615
2930.26716	0.04651
2928.98139	0.04684
2927.69562	0.04697
2926.40985	0.04689
2925.12408	0.04666
2923.83831	0.04640
2922.55254	0.04624
2921.26677	0.04626
2919.98101	0.04641
2918.69524	0.04652
2917.40947	0.04643
2916.12370	0.04613
2914.83793	0.04573
2913.55216	0.04529
2912.26639	0.04480
2910.98062	0.04425
2909.69486	0.04374
2908.40909	0.04332
2907.12332	0.04297
2905.83755	0.04267
2904.55178	0.04252
2903.26601	0.04261
2901.98024	0.04286
2900.69447	0.04304
2899.40870	0.04305
2898.12294	0.04292
2896.83717	0.04275
2895.55140	0.04253
2894.26563	0.04224
2892.97986	0.04191
2891.69409	0.04167
2890.40832	0.04159
2889.12255	0.04164
2887.83678	0.04176
2886.55102	0.04187
2885.26525	0.04192
2883.97948	0.04193
2882.69371	0.04199
2881.40794	0.04212
2880.12217	0.04227
2878.83640	0.04231
2877.55063	0.04217
2876.26487	0.04188
2874.97910	0.04157
2873.69333	0.04134
2872.40756	0.04125
2871.12179	0.04132
2869.83602	0.04152
2868.55025	0.04170
2867.26448	0.04166
2865.97871	0.04138
2864.69295	0.04109
2863.40718	0.04108
2862.12141	0.04126
2860.83564	0.04129
2859.54987	0.04096
2858.26410	0.04040
2856.97833	0.03990
2855.69256	0.03969
2854.40680	0.03973
2853.12103	0.03978
2851.83526	0.03963
2850.54949	0.03929
2849.26372	0.03891
2847.97795	0.03867
2846.69218	0.03857
2845.40641	0.03850
2844.12064	0.03839
2842.83488	0.03822
2841.54911	0.03804
2840.26334	0.03789
2838.97757	0.03778
2837.69180	0.03776
2836.40603	0.03780
2835.12026	0.03785
2833.83449	0.03777
2832.54873	0.03752
2831.26296	0.03717
2829.97719	0.03692
2828.69142	0.03687
2827.40565	0.03696
2826.11988	0.03705
2824.83411	0.03703
2823.54834	0.03690
2822.26257	0.03675
2820.97681	0.03668
2819.69104	0.03674
2818.40527	0.03684
2817.11950	0.03684
2815.83373	0.03663
2814.54796	0.03633
2813.26219	0.03613
2811.97642	0.03618
2810.69066	0.03640
2809.40489	0.03662
2808.11912	0.03664
2806.83335	0.03646
2805.54758	0.03618
2804.26181	0.03598
2802.97604	0.03592
2801.69027	0.03595
2800.40450	0.03592
2799.11874	0.03574
2797.83297	0.03547
2796.54720	0.03520
2795.26143	0.03506
2793.97566	0.03507
2792.68989	0.03517
2791.40412	0.03526
2790.11835	0.03527
2788.83259	0.03521
2787.54682	0.03516
2786.26105	0.03515
2784.97528	0.03516
2783.68951	0.03515
2782.40374	0.03512
2781.11797	0.03507
2779.83220	0.03503
2778.54643	0.03500
2777.26067	0.03500
2775.97490	0.03498
2774.68913	0.03492
2773.40336	0.03479
2772.11759	0.03466
2770.83182	0.03457
2769.54605	0.03452
2768.26028	0.03444
2766.97452	0.03431
2765.68875	0.03414
2764.40298	0.03394
2763.11721	0.03362
2761.83144	0.03321
2760.54567	0.03284
2759.25990	0.03265
2757.97413	0.03268
2756.68836	0.03286
2755.40260	0.03309
2754.11683	0.03334
2752.83106	0.03360
2751.54529	0.03380
2750.25952	0.03387
2748.97375	0.03379
2747.68798	0.03363
2746.40221	0.03347
2745.11645	0.03333
2743.83068	0.03318
2742.54491	0.03296
2741.25914	0.03271
2739.97337	0.03249
2738.68760	0.03233
2737.40183	0.03226
2736.11606	0.03229
2734.83029	0.03237
2733.54453	0.03245
2732.25876	0.03254
2730.97299	0.03263
2729.68722	0.03267
2728.40145	0.03258
2727.11568	0.03231
2725.82991	0.03193
2724.54414	0.03163
2723.25838	0.03153
2721.97261	0.03166
2720.68684	0.03185
2719.40107	0.03194
2718.11530	0.03191
2716.82953	0.03183
2715.54376	0.03181
2714.25799	0.03185
2712.97222	0.03189
2711.68646	0.03185
2710.40069	0.03168
2709.11492	0.03142
2707.82915	0.03116
2706.54338	0.03097
2705.25761	0.03088
2703.97184	0.03087
2702.68607	0.03098
2701.40031	0.03117
2700.11454	0.03134
2698.82877	0.03139
2697.54300	0.03130
2696.25723	0.03115
2694.97146	0.03103
2693.68569	0.03100
2692.39992	0.03100
2691.11415	0.03098
2689.82839	0.03088
2688.54262	0.03074
2687.25685	0.03061
2685.97108	0.03049
2684.68531	0.03032
2683.39954	0.03011
2682.11377	0.02996
2680.82800	0.02994
2679.54224	0.02999
2678.25647	0.02999
2676.97070	0.02990
2675.68493	0.02977
2674.39916	0.02964
2673.11339	0.02950
2671.82762	0.02938
2670.54185	0.02938
2669.25608	0.02956
2667.97032	0.02986
2666.68455	0.03006
2665.39878	0.03004
2664.11301	0.02985
2662.82724	0.02968
2661.54147	0.02966
2660.25570	0.02975
2658.96993	0.02987
2657.68417	0.02993
2656.39840	0.02991
2655.11263	0.02982
2653.82686	0.02968
2652.54109	0.02954
2651.25532	0.02945
2649.96955	0.02937
2648.68378	0.02923
2647.39801	0.02898
2646.11225	0.02866
2644.82648	0.02839
2643.54071	0.02823
2642.25494	0.02816
2640.96917	0.02817
2639.68340	0.02822
2638.39763	0.02827
2637.11186	0.02828
2635.82609	0.02822
2634.54033	0.02801
2633.25456	0.02761
2631.96879	0.02711
2630.68302	0.02670
2629.39725	0.02652
2628.11148	0.02660
2626.82571	0.02690
2625.53994	0.02732
2624.25418	0.02766
2622.96841	0.02776
2621.68264	0.02763
2620.39687	0.02738
2619.11110	0.02712
2617.82533	0.02694
2616.53956	0.02689
2615.25379	0.02691
2613.96802	0.02688
2612.68226	0.02670
2611.39649	0.02644
2610.11072	0.02624
2608.82495	0.02612
2607.53918	0.02599
2606.25341	0.02587
2604.96764	0.02587
2603.68187	0.02606
2602.39611	0.02627
2601.11034	0.02627
2599.82457	0.02597
2598.53880	0.02550
2597.25303	0.02510
2595.96726	0.02492
2594.68149	0.02494
2593.39572	0.02496
2592.10995	0.02480
2590.82419	0.02446
2589.53842	0.02416
2588.25265	0.02412
2586.96688	0.02432
2585.68111	0.02456
2584.39534	0.02465
2583.10957	0.02459
2581.82380	0.02452
2580.53804	0.02451
2579.25227	0.02453
2577.96650	0.02454
2576.68073	0.02457
2575.39496	0.02462
2574.10919	0.02462
2572.82342	0.02444
2571.53765	0.02406
2570.25188	0.02367
2568.96612	0.02342
2567.68035	0.02338
2566.39458	0.02345
2565.10881	0.02355
2563.82304	0.02367
2562.53727	0.02381
2561.25150	0.02393
2559.96573	0.02401
2558.67997	0.02408
2557.39420	0.02414
2556.10843	0.02408
2554.82266	0.02381
2553.53689	0.02343
2552.25112	0.02316
2550.96535	0.02312
2549.67958	0.02322
2548.39381	0.02332
2547.10805	0.02329
2545.82228	0.02314
2544.53651	0.02297
2543.25074	0.02289
2541.96497	0.02293
2540.67920	0.02298
2539.39343	0.02299
2538.10766	0.02303
2536.82190	0.02316
2535.53613	0.02326
2534.25036	0.02318
2532.96459	0.02289
2531.67882	0.02255
2530.39305	0.02231
2529.10728	0.02226
2527.82151	0.02234
2526.53574	0.02243
2525.24998	0.02245
2523.96421	0.02242
2522.67844	0.02244
2521.39267	0.02251
2520.10690	0.02258
2518.82113	0.02259
2517.53536	0.02263
2516.24959	0.02279
2514.96383	0.02304
2513.67806	0.02313
2512.39229	0.02290
2511.10652	0.02247
2509.82075	0.02213
2508.53498	0.02207
2507.24921	0.02221
2505.96344	0.02236
2504.67767	0.02242
2503.39191	0.02243
2502.10614	0.02245
2500.82037	0.02246
2499.53460	0.02237
2498.24883	0.02212
2496.96306	0.02186
2495.67729	0.02180
2494.39152	0.02196
2493.10576	0.02217
2491.81999	0.02227
2490.53422	0.02217
2489.24845	0.02181
2487.96268	0.02116
2486.67691	0.02035
2485.39114	0.01967
2484.10537	0.01949
2482.81960	0.01993
2481.53384	0.02078
2480.24807	0.02162
2478.96230	0.02212
2477.67653	0.02222
2476.39076	0.02211
2475.10499	0.02205
2473.81922	0.02213
2472.53345	0.02221
2471.24769	0.02210
2469.96192	0.02181
2468.67615	0.02151
2467.39038	0.02141
2466.10461	0.02148
2464.81884	0.02157
2463.53307	0.02152
2462.24730	0.02139
2460.96153	0.02130
2459.67577	0.02127
2458.39000	0.02124
2457.10423	0.02124
2455.81846	0.02135
2454.53269	0.02158
2453.24692	0.02178
2451.96115	0.02182
2450.67538	0.02174
2449.38962	0.02166
2448.10385	0.02171
2446.81808	0.02187
2445.53231	0.02204
2444.24654	0.02210
2442.96077	0.02212
2441.67500	0.02220
2440.38923	0.02236
2439.10346	0.02244
2437.81770	0.02229
2436.53193	0.02198
2435.24616	0.02165
2433.96039	0.02138
2432.67462	0.02120
2431.38885	0.02120
2430.10308	0.02143
2428.81731	0.02179
2427.53155	0.02207
2426.24578	0.02210
2424.96001	0.02196
2423.67424	0.02184
2422.38847	0.02184
2421.10270	0.02185
2419.81693	0.02167
2418.53116	0.02133
2417.24539	0.02105
2415.95963	0.02102
2414.67386	0.02113
2413.38809	0.02114
2412.10232	0.02095
2410.81655	0.02067
2409.53078	0.02040
2408.24501	0.02011
2406.95924	0.01978
2405.67347	0.01956
2404.38771	0.01968
2403.10194	0.02019
2401.81617	0.02086
2400.53040	0.02135
2399.24463	0.02145
2397.95886	0.02126
2396.67309	0.02097
2395.38732	0.02077
2394.10156	0.02072
2392.81579	0.02076
2391.53002	0.02083
2390.24425	0.02086
2388.95848	0.02089
2387.67271	0.02094
2386.38694	0.02098
2385.10117	0.02094
2383.81540	0.02082
2382.52964	0.02066
2381.24387	0.02048
2379.95810	0.02044
2378.67233	0.02046
2377.38656	0.02052
2376.10079	0.02083
2374.81502	0.02134
2373.52925	0.02099
2372.24349	0.02110
2370.95772	0.02149
2369.67195	0.02182
2368.38618	0.02205
2367.10041	0.02219
2365.81464	0.02228
2364.52887	0.02236
2363.24310	0.02244
2361.95733	0.02261
2360.67157	0.02284
2359.38580	0.02304
2358.10003	0.02312
2356.81426	0.02305
2355.52849	0.02286
2354.24272	0.02263
2352.95695	0.02252
2351.67118	0.02232
2350.38542	0.02219
2349.09965	0.02207
2347.81388	0.02196
2346.52811	0.02215
2345.24234	0.02252
2343.95657	0.02290
2342.67080	0.02304
2341.38503	0.02269
2340.09926	0.02259
2338.81350	0.02229
2337.52773	0.02185
2336.24196	0.02203
2334.95619	0.02231
2333.67042	0.02237
2332.38465	0.02231
2331.09888	0.02212
2329.81311	0.02184
2328.52735	0.02164
2327.24158	0.02200
2325.95581	0.02245
2324.67004	0.02252
2323.38427	0.02230
2322.09850	0.02227
2320.81273	0.02217
2319.52696	0.02205
2318.24119	0.02188
2316.95543	0.02155
2315.66966	0.02119
2314.38389	0.02084
2313.09812	0.02046
2311.81235	0.02033
2310.52658	0.02025
2309.24081	0.02008
2307.95504	0.02009
2306.66928	0.02020
2305.38351	0.02026
2304.09774	0.02023
2302.81197	0.02010
2301.52620	0.01993
2300.24043	0.01975
2298.95466	0.01965
2297.66889	0.01964
2296.38312	0.01963
2295.09736	0.01952
2293.81159	0.01926
2292.52582	0.01886
2291.24005	0.01848
2289.95428	0.01818
2288.66851	0.01797
2287.38274	0.01786
2286.09697	0.01786
2284.81121	0.01797
2283.52544	0.01817
2282.23967	0.01843
2280.95390	0.01865
2279.66813	0.01869
2278.38236	0.01844
2277.09659	0.01797
2275.81082	0.01750
2274.52505	0.01718
2273.23929	0.01698
2271.95352	0.01681
2270.66775	0.01661
2269.38198	0.01634
2268.09621	0.01595
2266.81044	0.01556
2265.52467	0.01544
2264.23890	0.01572
2262.95314	0.01621
2261.66737	0.01653
2260.38160	0.01651
2259.09583	0.01632
2257.81006	0.01621
2256.52429	0.01625
2255.23852	0.01639
2253.95275	0.01649
2252.66698	0.01650
2251.38122	0.01642
2250.09545	0.01630
2248.80968	0.01620
2247.52391	0.01603
2246.23814	0.01598
2244.95237	0.01608
2243.66660	0.01628
2242.38083	0.01645
2241.09507	0.01636
2239.80930	0.01585
2238.52353	0.01507
2237.23776	0.01449
2235.95199	0.01454
2234.66622	0.01517
2233.38045	0.01582
2232.09468	0.01585
2230.80891	0.01509
2229.52315	0.01401
2228.23738	0.01325
2226.95161	0.01302
2225.66584	0.01298
2224.38007	0.01283
2223.09430	0.01267
2221.80853	0.01270
2220.52276	0.01279
2219.23700	0.01259
2217.95123	0.01211
2216.66546	0.01170
2215.37969	0.01167
2214.09392	0.01184
2212.80815	0.01173
2211.52238	0.01110
2210.23661	0.01026
2208.95084	0.00991
2207.66508	0.01046
2206.37931	0.01148
2205.09354	0.01212
2203.80777	0.01195
2202.52200	0.01138
2201.23623	0.01102
2199.95046	0.01105
2198.66469	0.01127
2197.37893	0.01151
2196.09316	0.01165
2194.80739	0.01145
2193.52162	0.01078
2192.23585	0.00984
2190.95008	0.00916
2189.66431	0.00917
2188.37854	0.00993
2187.09277	0.01108
2185.80701	0.01213
2184.52124	0.01266
2183.23547	0.01263
2181.94970	0.01237
2180.66393	0.01235
2179.37816	0.01276
2178.09239	0.01330
2176.80662	0.01341
2175.52085	0.01276
2174.23509	0.01144
2172.94932	0.00984
2171.66355	0.00838
2170.37778	0.00727
2169.09201	0.00653
2167.80624	0.00617
2166.52047	0.00631
2165.23470	0.00707
2163.94894	0.00821
2162.66317	0.00896
2161.37740	0.00862
2160.09163	0.00747
2158.80586	0.00675
2157.52009	0.00719
2156.23432	0.00814
2154.94855	0.00862
2153.66278	0.00860
2152.37702	0.00858
2151.09125	0.00864
2149.80548	0.00839
2148.51971	0.00788
2147.23394	0.00761
2145.94817	0.00777
2144.66240	0.00794
2143.37663	0.00777
2142.09087	0.00752
2140.80510	0.00766
2139.51933	0.00826
2138.23356	0.00896
2136.94779	0.00952
2135.66202	0.01007
2134.37625	0.01074
2133.09048	0.01143
2131.80471	0.01202
2130.51895	0.01251
2129.23318	0.01295
2127.94741	0.01321
2126.66164	0.01321
2125.37587	0.01316
2124.09010	0.01337
2122.80433	0.01376
2121.51856	0.01394
2120.23280	0.01369
2118.94703	0.01331
2117.66126	0.01322
2116.37549	0.01348
2115.08972	0.01383
2113.80395	0.01392
2112.51818	0.01361
2111.23241	0.01304
2109.94664	0.01249
2108.66088	0.01220
2107.37511	0.01222
2106.08934	0.01244
2104.80357	0.01278
2103.51780	0.01325
2102.23203	0.01379
2100.94626	0.01447
2099.66049	0.01923
2098.37473	0.02154
2097.08896	0.02125
2095.80319	0.01980
2094.51742	0.01779
2093.23165	0.01572
2091.94588	0.01401
2090.66011	0.01279
2089.37434	0.01198
2088.08857	0.01148
2086.80281	0.01133
2085.51704	0.01156
2084.23127	0.01200
2082.94550	0.01246
2081.65973	0.01294
2080.37396	0.01363
2079.08819	0.01470
2077.80242	0.01604
2076.51666	0.01729
2075.23089	0.01803
2073.94512	0.01812
2072.65935	0.01773
2071.37358	0.01725
2070.08781	0.01690
2068.80204	0.01659
2067.51627	0.01610
2066.23050	0.01532
2064.94474	0.01443
2063.65897	0.01371
2062.37320	0.01332
2061.08743	0.01299
2059.80166	0.01225
2058.51589	0.01088
2057.23012	0.00922
2055.94435	0.00794
2054.65859	0.00756
2053.37282	0.00833
2052.08705	0.01020
2050.80128	0.01268
2049.51551	0.01481
2048.22974	0.01575
2046.94397	0.01545
2045.65820	0.01472
2044.37243	0.01442
2043.08667	0.01480
2041.80090	0.01543
2040.51513	0.01585
2039.22936	0.01598
2037.94359	0.01610
2036.65782	0.01647
2035.37205	0.01710
2034.08628	0.01769
2032.80052	0.01791
2031.51475	0.01759
2030.22898	0.01687
2028.94321	0.01601
2027.65744	0.01520
2026.37167	0.01442
2025.08590	0.01371
2023.80013	0.01324
2022.51436	0.01319
2021.22860	0.01345
2019.94283	0.01369
2018.65706	0.01362
2017.37129	0.01310
2016.08552	0.01231
2014.79975	0.01181
2013.51398	0.01229
2012.22821	0.01401
2010.94245	0.01651
2009.65668	0.01890
2008.37091	0.02028
2007.08514	0.02005
2005.79937	0.01821
2004.51360	0.01548
2003.22783	0.01289
2001.94206	0.01112
2000.65629	0.01015
1999.37053	0.00973
1998.08476	0.00980
1996.79899	0.01030
1995.51322	0.01083
1994.22745	0.01077
1992.94168	0.00980
1991.65591	0.00826
1990.37014	0.00681
1989.08438	0.00598
1987.79861	0.00606
1986.51284	0.00703
1985.22707	0.00871
1983.94130	0.01091
1982.65553	0.01355
1981.36976	0.01668
1980.08399	0.02018
1978.79822	0.02347
1977.51246	0.02556
1976.22669	0.02574
1974.94092	0.02432
1973.65515	0.02235
1972.36938	0.02070
1971.08361	0.01932
1969.79784	0.01770
1968.51207	0.01581
1967.22631	0.01435
1965.94054	0.01407
1964.65477	0.01500
1963.36900	0.01641
1962.08323	0.01732
1960.79746	0.01715
1959.51169	0.01592
1958.22592	0.01416
1956.94015	0.01258
1955.65439	0.01175
1954.36862	0.01188
1953.08285	0.01270
1951.79708	0.01362
1950.51131	0.01414
1949.22554	0.01421
1947.93977	0.01407
1946.65400	0.01392
1945.36823	0.01374
1944.08247	0.01358
1942.79670	0.01366
1941.51093	0.01412
1940.22516	0.01476
1938.93939	0.01527
1937.65362	0.01554
1936.36785	0.01569
1935.08208	0.01577
1933.79632	0.01564
1932.51055	0.01530
1931.22478	0.01494
1929.93901	0.01478
1928.65324	0.01480
1927.36747	0.01481
1926.08170	0.01467
1924.79593	0.01442
1923.51016	0.01426
1922.22440	0.01431
1920.93863	0.01449
1919.65286	0.01468
1918.36709	0.01486
1917.08132	0.01510
1915.79555	0.01538
1914.50978	0.01551
1913.22401	0.01542
1911.93825	0.01523
1910.65248	0.01517
1909.36671	0.01529
1908.08094	0.01550
1906.79517	0.01570
1905.50940	0.01589
1904.22363	0.01605
1902.93786	0.01614
1901.65209	0.01616
1900.36633	0.01613
1899.08056	0.01609
1897.79479	0.01605
1896.50902	0.01602
1895.22325	0.01601
1893.93748	0.01599
1892.65171	0.01590
1891.36594	0.01571
1890.08018	0.01541
1888.79441	0.01502
1887.50864	0.01466
1886.22287	0.01449
1884.93710	0.01459
1883.65133	0.01490
1882.36556	0.01520
1881.07979	0.01527
1879.79402	0.01507
1878.50826	0.01479
1877.22249	0.01465
1875.93672	0.01472
1874.65095	0.01490
1873.36518	0.01503
1872.07941	0.01509
1870.79364	0.01513
1869.50787	0.01514
1868.22211	0.01514
1866.93634	0.01516
1865.65057	0.01519
1864.36480	0.01516
1863.07903	0.01505
1861.79326	0.01496
1860.50749	0.01500
1859.22172	0.01514
1857.93595	0.01522
1856.65019	0.01515
1855.36442	0.01499
1854.07865	0.01481
1852.79288	0.01461
1851.50711	0.01435
1850.22134	0.01404
1848.93557	0.01378
1847.64980	0.01368
1846.36404	0.01380
1845.07827	0.01399
1843.79250	0.01405
1842.50673	0.01387
1841.22096	0.01359
1839.93519	0.01338
1838.64942	0.01330
1837.36365	0.01323
1836.07788	0.01311
1834.79212	0.01295
1833.50635	0.01285
1832.22058	0.01288
1830.93481	0.01305
1829.64904	0.01331
1828.36327	0.01364
1827.07750	0.01408
1825.79173	0.01463
1824.50597	0.01523
1823.22020	0.01586
1821.93443	0.01648
1820.64866	0.01692
1819.36289	0.01694
1818.07712	0.01634
1816.79135	0.01521
1815.50558	0.01390
1814.21981	0.01279
1812.93405	0.01209
1811.64828	0.01178
1810.36251	0.01174
1809.07674	0.01182
1807.79097	0.01194
1806.50520	0.01205
1805.21943	0.01218
1803.93366	0.01238
1802.64790	0.01260
1801.36213	0.01279
1800.07636	0.01290
1798.79059	0.01292
1797.50482	0.01290
1796.21905	0.01289
1794.93328	0.01291
1793.64751	0.01298
1792.36174	0.01305
1791.07598	0.01309
1789.79021	0.01317
1788.50444	0.01329
1787.21867	0.01343
1785.93290	0.01352
1784.64713	0.01356
1783.36136	0.01359
1782.07559	0.01364
1780.78983	0.01366
1779.50406	0.01361
1778.21829	0.01349
1776.93252	0.01333
1775.64675	0.01317
1774.36098	0.01303
1773.07521	0.01287
1771.78944	0.01266
1770.50367	0.01244
1769.21791	0.01227
1767.93214	0.01217
1766.64637	0.01211
1765.36060	0.01212
1764.07483	0.01219
1762.78906	0.01224
1761.50329	0.01220
1760.21752	0.01210
1758.93176	0.01207
1757.64599	0.01214
1756.36022	0.01222
1755.07445	0.01222
1753.78868	0.01216
1752.50291	0.01212
1751.21714	0.01216
1749.93137	0.01227
1748.64560	0.01241
1747.35984	0.01253
1746.07407	0.01262
1744.78830	0.01269
1743.50253	0.01278
1742.21676	0.01289
1740.93099	0.01304
1739.64522	0.01317
1738.35945	0.01326
1737.07369	0.01335
1735.78792	0.01353
1734.50215	0.01373
1733.21638	0.01383
1731.93061	0.01379
1730.64484	0.01372
1729.35907	0.01369
1728.07330	0.01374
1726.78753	0.01388
1725.50177	0.01408
1724.21600	0.01427
1722.93023	0.01441
1721.64446	0.01451
1720.35869	0.01464
1719.07292	0.01482
1717.78715	0.01500
1716.50138	0.01515
1715.21561	0.01533
1713.92985	0.01561
1712.64408	0.01596
1711.35831	0.01637
1710.07254	0.01682
1708.78677	0.01736
1707.50100	0.01800
1706.21523	0.01867
1704.92946	0.01931
1703.64370	0.01996
1702.35793	0.02076
1701.07216	0.02170
1699.78639	0.02264
1698.50062	0.02355
1697.21485	0.02452
1695.92908	0.02556
1694.64331	0.02657
1693.35754	0.02756
1692.07178	0.02859
1690.78601	0.02961
1689.50024	0.03057
1688.21447	0.03149
1686.92870	0.03247
1685.64293	0.03356
1684.35716	0.03463
1683.07139	0.03564
1681.78563	0.03666
1680.49986	0.03779
1679.21409	0.03901
1677.92832	0.04029
1676.64255	0.04162
1675.35678	0.04297
1674.07101	0.04429
1672.78524	0.04561
1671.49947	0.04695
1670.21371	0.04827
1668.92794	0.04948
1667.64217	0.05061
1666.35640	0.05171
1665.07063	0.05287
1663.78486	0.05408
1662.49909	0.05527
1661.21332	0.05640
1659.92756	0.05745
1658.64179	0.05842
1657.35602	0.05928
1656.07025	0.06009
1654.78448	0.06088
1653.49871	0.06157
1652.21294	0.06207
1650.92717	0.06248
1649.64140	0.06302
1648.35564	0.06372
1647.06987	0.06443
1645.78410	0.06497
1644.49833	0.06533
1643.21256	0.06559
1641.92679	0.06585
1640.64102	0.06611
1639.35525	0.06636
1638.06949	0.06662
1636.78372	0.06687
1635.49795	0.06704
1634.21218	0.06710
1632.92641	0.06708
1631.64064	0.06701
1630.35487	0.06686
1629.06910	0.06654
1627.78333	0.06608
1626.49757	0.06553
1625.21180	0.06495
1623.92603	0.06434
1622.64026	0.06359
1621.35449	0.06267
1620.06872	0.06162
1618.78295	0.06057
1617.49718	0.05953
1616.21142	0.05843
1614.92565	0.05726
1613.63988	0.05607
1612.35411	0.05490
1611.06834	0.05372
1609.78257	0.05254
1608.49680	0.05142
1607.21103	0.05036
1605.92526	0.04935
1604.63950	0.04835
1603.35373	0.04733
1602.06796	0.04632
1600.78219	0.04536
1599.49642	0.04450
1598.21065	0.04369
1596.92488	0.04292
1595.63911	0.04219
1594.35335	0.04153
1593.06758	0.04098
1591.78181	0.04054
1590.49604	0.04019
1589.21027	0.03990
1587.92450	0.03966
1586.63873	0.03946
1585.35296	0.03928
1584.06719	0.03910
1582.78143	0.03892
1581.49566	0.03876
1580.20989	0.03868
1578.92412	0.03872
1577.63835	0.03894
1576.35258	0.03924
1575.06681	0.03954
1573.78104	0.03988
1572.49528	0.04034
1571.20951	0.04092
1569.92374	0.04152
1568.63797	0.04210
1567.35220	0.04267
1566.06643	0.04328
1564.78066	0.04388
1563.49489	0.04447
1562.20912	0.04511
1560.92336	0.04587
1559.63759	0.04667
1558.35182	0.04737
1557.06605	0.04798
1555.78028	0.04862
1554.49451	0.04934
1553.20874	0.05006
1551.92297	0.05076
1550.63721	0.05144
1549.35144	0.05208
1548.06567	0.05266
1546.77990	0.05318
1545.49413	0.05363
1544.20836	0.05401
1542.92259	0.05434
1541.63682	0.05464
1540.35105	0.05488
1539.06529	0.05503
1537.77952	0.05510
1536.49375	0.05523
1535.20798	0.05548
1533.92221	0.05576
1532.63644	0.05594
1531.35067	0.05603
1530.06490	0.05608
1528.77914	0.05611
1527.49337	0.05613
1526.20760	0.05610
1524.92183	0.05600
1523.63606	0.05588
1522.35029	0.05578
1521.06452	0.05567
1519.77875	0.05555
1518.49298	0.05544
1517.20722	0.05534
1515.92145	0.05519
1514.63568	0.05493
1513.34991	0.05461
1512.06414	0.05421
1510.77837	0.05371
1509.49260	0.05316
1508.20683	0.05259
1506.92107	0.05195
1505.63530	0.05121
1504.34953	0.05039
1503.06376	0.04960
1501.77799	0.04886
1500.49222	0.04812
1499.20645	0.04736
1497.92068	0.04658
1496.63491	0.04576
1495.34915	0.04491
1494.06338	0.04403
1492.77761	0.04318
1491.49184	0.04236
1490.20607	0.04154
1488.92030	0.04072
1487.63453	0.03995
1486.34876	0.03925
1485.06299	0.03864
1483.77723	0.03814
1482.49146	0.03773
1481.20569	0.03741
1479.91992	0.03717
1478.63415	0.03705
1477.34838	0.03700
1476.06261	0.03700
1474.77684	0.03701
1473.49108	0.03705
1472.20531	0.03711
1470.91954	0.03722
1469.63377	0.03741
1468.34800	0.03770
1467.06223	0.03807
1465.77646	0.03849
1464.49069	0.03892
1463.20492	0.03937
1461.91916	0.03984
1460.63339	0.04035
1459.34762	0.04094
1458.06185	0.04157
1456.77608	0.04215
1455.49031	0.04262
1454.20454	0.04302
1452.91877	0.04336
1451.63301	0.04359
1450.34724	0.04369
1449.06147	0.04370
1447.77570	0.04364
1446.48993	0.04350
1445.20416	0.04330
1443.91839	0.04306
1442.63262	0.04282
1441.34685	0.04256
1440.06109	0.04228
1438.77532	0.04199
1437.48955	0.04168
1436.20378	0.04129
1434.91801	0.04086
1433.63224	0.04044
1432.34647	0.04011
1431.06070	0.03986
1429.77494	0.03963
1428.48917	0.03940
1427.20340	0.03915
1425.91763	0.03890
1424.63186	0.03870
1423.34609	0.03856
1422.06032	0.03850
1420.77455	0.03852
1419.48878	0.03852
1418.20302	0.03845
1416.91725	0.03834
1415.63148	0.03830
1414.34571	0.03834
1413.05994	0.03841
1411.77417	0.03842
1410.48840	0.03835
1409.20263	0.03824
1407.91687	0.03816
1406.63110	0.03814
1405.34533	0.03813
1404.05956	0.03809
1402.77379	0.03801
1401.48802	0.03791
1400.20225	0.03782
1398.91648	0.03771
1397.63071	0.03760
1396.34495	0.03751
1395.05918	0.03743
1393.77341	0.03736
1392.48764	0.03729
1391.20187	0.03726
1389.91610	0.03725
1388.63033	0.03722
1387.34456	0.03714
1386.05880	0.03702
1384.77303	0.03690
1383.48726	0.03681
1382.20149	0.03672
1380.91572	0.03660
1379.62995	0.03645
1378.34418	0.03627
1377.05841	0.03609
1375.77264	0.03590
1374.48688	0.03571
1373.20111	0.03549
1371.91534	0.03524
1370.62957	0.03498
1369.34380	0.03471
1368.05803	0.03445
1366.77226	0.03417
1365.48649	0.03385
1364.20073	0.03350
1362.91496	0.03314
1361.62919	0.03280
1360.34342	0.03252
1359.05765	0.03229
1357.77188	0.03209
1356.48611	0.03191
1355.20034	0.03178
1353.91457	0.03170
1352.62881	0.03166
1351.34304	0.03164
1350.05727	0.03163
1348.77150	0.03164
1347.48573	0.03170
1346.19996	0.03179
1344.91419	0.03192
1343.62842	0.03208
1342.34266	0.03228
1341.05689	0.03251
1339.77112	0.03274
1338.48535	0.03294
1337.19958	0.03308
1335.91381	0.03316
1334.62804	0.03319
1333.34227	0.03315
1332.05650	0.03302
1330.77074	0.03280
1329.48497	0.03256
1328.19920	0.03236
1326.91343	0.03222
1325.62766	0.03209
1324.34189	0.03196
1323.05612	0.03179
1321.77035	0.03162
1320.48459	0.03146
1319.19882	0.03137
1317.91305	0.03136
1316.62728	0.03138
1315.34151	0.03138
1314.05574	0.03133
1312.76997	0.03127
1311.48420	0.03119
1310.19843	0.03113
1308.91267	0.03107
1307.62690	0.03102
1306.34113	0.03097
1305.05536	0.03090
1303.76959	0.03083
1302.48382	0.03075
1301.19805	0.03067
1299.91228	0.03060
1298.62652	0.03052
1297.34075	0.03047
1296.05498	0.03047
1294.76921	0.03050
1293.48344	0.03053
1292.19767	0.03054
1290.91190	0.03056
1289.62613	0.03061
1288.34036	0.03071
1287.05460	0.03081
1285.76883	0.03091
1284.48306	0.03100
1283.19729	0.03109
1281.91152	0.03116
1280.62575	0.03121
1279.33998	0.03126
1278.05421	0.03130
1276.76845	0.03132
1275.48268	0.03132
1274.19691	0.03132
1272.91114	0.03136
1271.62537	0.03144
1270.33960	0.03155
1269.05383	0.03166
1267.76806	0.03181
1266.48229	0.03203
1265.19653	0.03231
1263.91076	0.03259
1262.62499	0.03283
1261.33922	0.03300
1260.05345	0.03312
1258.76768	0.03321
1257.48191	0.03329
1256.19614	0.03339
1254.91037	0.03352
1253.62461	0.03369
1252.33884	0.03390
1251.05307	0.03413
1249.76730	0.03438
1248.48153	0.03464
1247.19576	0.03495
1245.90999	0.03529
1244.62422	0.03567
1243.33846	0.03607
1242.05269	0.03644
1240.76692	0.03677
1239.48115	0.03704
1238.19538	0.03727
1236.90961	0.03750
1235.62384	0.03772
1234.33807	0.03791
1233.05230	0.03803
1231.76654	0.03811
1230.48077	0.03815
1229.19500	0.03814
1227.90923	0.03807
1226.62346	0.03790
1225.33769	0.03762
1224.05192	0.03725
1222.76615	0.03683
1221.48039	0.03641
1220.19462	0.03602
1218.90885	0.03568
1217.62308	0.03538
1216.33731	0.03512
1215.05154	0.03489
1213.76577	0.03471
1212.48000	0.03460
1211.19423	0.03456
1209.90847	0.03459
1208.62270	0.03467
1207.33693	0.03476
1206.05116	0.03484
1204.76539	0.03490
1203.47962	0.03498
1202.19385	0.03503
1200.90808	0.03475
1199.62232	0.03400
1198.33655	0.03375
1197.05078	0.03350
1195.76501	0.03324
1194.47924	0.03300
1193.19347	0.03275
1191.90770	0.03250
1190.62193	0.03225
1189.33616	0.03202
1188.05040	0.03180
1186.76463	0.03160
1185.47886	0.03143
1184.19309	0.03128
1182.90732	0.03116
1181.62155	0.03109
1180.33578	0.03109
1179.05001	0.03115
1177.76425	0.03124
1176.47848	0.03130
1175.19271	0.03129
1173.90694	0.03123
1172.62117	0.03114
1171.33540	0.03107
1170.04963	0.03109
1168.76386	0.03120
1167.47809	0.03138
1166.19233	0.03156
1164.90656	0.03171
1163.62079	0.03181
1162.33502	0.03190
1161.04925	0.03201
1159.76348	0.03215
1158.47771	0.03227
1157.19194	0.03231
1155.90618	0.03225
1154.62041	0.03215
1153.33464	0.03205
1152.04887	0.03199
1150.76310	0.03196
1149.47733	0.03192
1148.19156	0.03184
1146.90579	0.03171
1145.62002	0.03151
1144.33426	0.03126
1143.04849	0.03104
1141.76272	0.03088
1140.47695	0.03079
1139.19118	0.03076
1137.90541	0.03075
1136.61964	0.03075
1135.33387	0.03077
1134.04811	0.03084
1132.76234	0.03095
1131.47657	0.03116
1130.19080	0.03152
1128.90503	0.03205
1127.61926	0.03271
1126.33349	0.03339
1125.04772	0.03404
1123.76195	0.03468
1122.47619	0.03532
1121.19042	0.03600
1119.90465	0.03673
1118.61888	0.03749
1117.33311	0.03830
1116.04734	0.03917
1114.76157	0.04008
1113.47580	0.04097
1112.19004	0.04176
1110.90427	0.04248
1109.61850	0.04318
1108.33273	0.04394
1107.04696	0.04479
1105.76119	0.04570
1104.47542	0.04659
1103.18965	0.04739
1101.90388	0.04806
1100.61812	0.04865
1099.33235	0.04926
1098.04658	0.04991
1096.76081	0.05053
1095.47504	0.05099
1094.18927	0.05128
1092.90350	0.05143
1091.61773	0.05152
1090.33197	0.05156
1089.04620	0.05157
1087.76043	0.05159
1086.47466	0.05171
1085.18889	0.05198
1083.90312	0.05244
1082.61735	0.05310
1081.33158	0.05390
1080.04581	0.05471
1078.76005	0.05543
1077.47428	0.05608
1076.18851	0.05676
1074.90274	0.05752
1073.61697	0.05833
1072.33120	0.05909
1071.04543	0.05972
1069.75966	0.06027
1068.47390	0.06080
1067.18813	0.06138
1065.90236	0.06198
1064.61659	0.06257
1063.33082	0.06315
1062.04505	0.06376
1060.75928	0.06440
1059.47351	0.06504
1058.18774	0.06560
1056.90198	0.06614
1055.61621	0.06673
1054.33044	0.06739
1053.04467	0.06806
1051.75890	0.06868
1050.47313	0.06926
1049.18736	0.06986
1047.90159	0.07051
1046.61583	0.07117
1045.33006	0.07183
1044.04429	0.07251
1042.75852	0.07322
1041.47275	0.07398
1040.18698	0.07474
1038.90121	0.07552
1037.61544	0.07635
1036.32967	0.07726
1035.04391	0.07824
1033.75814	0.07926
1032.47237	0.08021
1031.18660	0.08099
1029.90083	0.08147
1028.61506	0.08159
1027.32929	0.08136
1026.04352	0.08085
1024.75775	0.08020
1023.47199	0.07950
1022.18622	0.07881
1020.90045	0.07810
1019.61468	0.07734
1018.32891	0.07650
1017.04314	0.07559
1015.75737	0.07463
1014.47160	0.07366
1013.18584	0.07269
1011.90007	0.07173
1010.61430	0.07078
1009.32853	0.06985
1008.04276	0.06895
1006.75699	0.06806
1005.47122	0.06718
1004.18545	0.06631
1002.89968	0.06550
1001.61392	0.06476
1000.32815	0.06406
999.04238	0.06330
997.75661	0.06249
996.47084	0.06166
995.18507	0.06086
993.89930	0.06007
992.61353	0.05930
991.32777	0.05859
990.04200	0.05798
988.75623	0.05742
987.47046	0.05685
986.18469	0.05620
984.89892	0.05551
983.61315	0.05483
982.32738	0.05425
981.04161	0.05373
979.75585	0.05323
978.47008	0.05271
977.18431	0.05218
975.89854	0.05165
974.61277	0.05112
973.32700	0.05062
972.04123	0.05019
970.75546	0.04988
969.46970	0.04971
968.18393	0.04969
966.89816	0.04979
965.61239	0.04990
964.32662	0.04991
963.04085	0.04978
961.75508	0.04957
960.46931	0.04932
959.18354	0.04901
957.89778	0.04861
956.61201	0.04812
955.32624	0.04760
954.04047	0.04711
952.75470	0.04666
951.46893	0.04624
950.18316	0.04583
948.89739	0.04543
947.61163	0.04506
946.32586	0.04471
945.04009	0.04435
943.75432	0.04398
942.46855	0.04362
941.18278	0.04333
939.89701	0.04309
938.61124	0.04286
937.32547	0.04262
936.03971	0.04232
934.75394	0.04197
933.46817	0.04158
932.18240	0.04121
930.89663	0.04086
929.61086	0.04051
928.32509	0.04015
927.03932	0.03978
925.75356	0.03947
924.46779	0.03925
923.18202	0.03909
921.89625	0.03891
920.61048	0.03868
919.32471	0.03843
918.03894	0.03817
916.75317	0.03788
915.46740	0.03756
914.18164	0.03721
912.89587	0.03690
911.61010	0.03668
910.32433	0.03650
909.03856	0.03628
907.75279	0.03598
906.46702	0.03563
905.18125	0.03531
903.89549	0.03502
902.60972	0.03471
901.32395	0.03440
900.03818	0.03418
898.75241	0.03409
897.46664	0.03408
896.18087	0.03405
894.89510	0.03393
893.60933	0.03372
892.32357	0.03346
891.03780	0.03321
889.75203	0.03298
888.46626	0.03275
887.18049	0.03248
885.89472	0.03216
884.60895	0.03190
883.32318	0.03185
882.03742	0.03203
880.75165	0.03230
879.46588	0.03249
878.18011	0.03257
876.89434	0.03254
875.60857	0.03243
874.32280	0.03226
873.03703	0.03212
871.75126	0.03207
870.46550	0.03211
869.17973	0.03212
867.89396	0.03205
866.60819	0.03196
865.32242	0.03187
864.03665	0.03179
862.75088	0.03166
861.46511	0.03149
860.17935	0.03132
858.89358	0.03118
857.60781	0.03109
856.32204	0.03102
855.03627	0.03095
853.75050	0.03087
852.46473	0.03074
851.17896	0.03055
849.89319	0.03031
848.60743	0.03005
847.32166	0.02976
846.03589	0.02943
844.75012	0.02909
843.46435	0.02878
842.17858	0.02855
840.89281	0.02840
839.60704	0.02833
838.32128	0.02829
837.03551	0.02825
835.74974	0.02814
834.46397	0.02799
833.17820	0.02780
831.89243	0.02763
830.60666	0.02747
829.32089	0.02732
828.03512	0.02718
826.74936	0.02708
825.46359	0.02702
824.17782	0.02697
822.89205	0.02689
821.60628	0.02679
820.32051	0.02669
819.03474	0.02661
817.74897	0.02659
816.46321	0.02664
815.17744	0.02672
813.89167	0.02677
812.60590	0.02675
811.32013	0.02669
810.03436	0.02662
808.74859	0.02650
807.46282	0.02635
806.17705	0.02620
804.89129	0.02616
803.60552	0.02621
802.31975	0.02629
801.03398	0.02631
799.74821	0.02626
798.46244	0.02619
797.17667	0.02615
795.89090	0.02612
794.60513	0.02609
793.31937	0.02602
792.03360	0.02594
790.74783	0.02585
789.46206	0.02576
788.17629	0.02567
786.89052	0.02555
785.60475	0.02539
784.31898	0.02522
783.03322	0.02509
781.74745	0.02503
780.46168	0.02504
779.17591	0.02506
777.89014	0.02505
776.60437	0.02500
775.31860	0.02491
774.03283	0.02483
772.74706	0.02477
771.46130	0.02471
770.17553	0.02467
768.88976	0.02467
767.60399	0.02476
766.31822	0.02491
765.03245	0.02510
763.74668	0.02528
762.46091	0.02540
761.17515	0.02546
759.88938	0.02545
758.60361	0.02537
757.31784	0.02523
756.03207	0.02505
754.74630	0.02488
753.46053	0.02480
752.17476	0.02488
750.88899	0.02510
749.60323	0.02538
748.31746	0.02560
747.03169	0.02569
745.74592	0.02565
744.46015	0.02554
743.17438	0.02547
741.88861	0.02548
740.60284	0.02551
739.31708	0.02547
738.03131	0.02534
736.74554	0.02515
735.45977	0.02496
734.17400	0.02485
732.88823	0.02486
731.60246	0.02500
730.31669	0.02521
729.03092	0.02538
727.74516	0.02542
726.45939	0.02534
725.17362	0.02521
723.88785	0.02509
722.60208	0.02508
721.31631	0.02519
720.03054	0.02539
718.74477	0.02563
717.45901	0.02582
716.17324	0.02587
714.88747	0.02581
713.60170	0.02570
712.31593	0.02563
711.03016	0.02564
709.74439	0.02571
708.45862	0.02580
707.17285	0.02588
705.88709	0.02589
704.60132	0.02586
703.31555	0.02580
702.02978	0.02576
700.74401	0.02579
699.45824	0.02587
698.17247	0.02596
696.88670	0.02600
695.60094	0.02600
694.31517	0.02601
693.02940	0.02601
691.74363	0.02600
690.45786	0.02595
689.17209	0.02587
687.88632	0.02580
686.60055	0.02575
685.31478	0.02569
684.02902	0.02563
682.74325	0.02555
681.45748	0.02553
680.17171	0.02558
678.88594	0.02567
677.60017	0.02574
676.31440	0.02572
675.02863	0.02568
673.74287	0.02565
672.45710	0.02564
671.17133	0.02565
669.88556	0.02569
668.59979	0.02572
667.31402	0.02572
666.02825	0.02574
664.74248	0.02578
663.45671	0.02584
662.17095	0.02591
660.88518	0.02596
659.59941	0.02598
658.31364	0.02595
657.02787	0.02592
655.74210	0.02590
654.45633	0.02591
653.17056	0.02592
651.88480	0.02592
650.59903	0.02587
649.31326	0.02581
648.02749	0.02580
646.74172	0.02582
645.45595	0.02585
644.17018	0.02580
642.88441	0.02567
641.59864	0.02548
640.31288	0.02532
639.02711	0.02527
637.74134	0.02532
636.45557	0.02541
635.16980	0.02552
633.88403	0.02554
632.59826	0.02537
631.31249	0.02558
630.02673	0.02869
628.74096	0.03357
627.45519	0.03047
626.16942	0.03622
624.88365	0.04787
623.59788	0.05848
622.31211	0.06495
621.02634	0.06600
619.74057	0.06188
618.45481	0.05442
617.16904	0.04622
615.88327	0.03955
614.59750	0.03577
613.31173	0.03535
612.02596	0.03800
610.74019	0.04288
609.45442	0.04874
608.16866	0.05426
606.88289	0.05839
605.59712	0.06068
604.31135	0.06127
603.02558	0.06067
601.73981	0.05938
600.45404	0.05768
599.16827	0.05568
597.88250	0.05346
596.59674	0.05115
595.31097	0.04896
594.02520	0.04712
592.73943	0.04579
591.45366	0.04491
590.16789	0.04431
588.88212	0.04387
587.59635	0.04359
586.31059	0.04354
585.02482	0.04376
583.73905	0.04426
582.45328	0.04501
581.16751	0.04596
579.88174	0.04702
578.59597	0.04807
577.31020	0.04902
576.02443	0.04983
574.73867	0.05056
573.45290	0.05131
572.16713	0.05226
570.88136	0.05348
569.59559	0.05494
568.30982	0.05642
567.02405	0.05764
565.73828	0.05840
564.45251	0.05865
563.16675	0.05852
561.88098	0.05813
560.59521	0.05750
559.30944	0.05665
558.02367	0.05563
556.73790	0.05455
555.45213	0.05351
554.16636	0.05256
552.88060	0.05172
551.59483	0.05101
550.30906	0.05044
549.02329	0.04992
547.73752	0.04934
546.45175	0.04866
545.16598	0.04791
543.88021	0.04719
542.59444	0.04660
541.30868	0.04618
540.02291	0.04587
538.73714	0.04551
537.45137	0.04497
536.16560	0.04429
534.87983	0.04361
533.59406	0.04307
532.30829	0.04268
531.02253	0.04237
529.73676	0.04208
528.45099	0.04173
527.16522	0.04130
525.87945	0.04081
524.59368	0.04027
523.30791	0.03973
522.02214	0.03923
520.73637	0.03884
519.45061	0.03855
518.16484	0.03829
516.87907	0.03798
515.59330	0.03760
514.30753	0.03719
513.02176	0.03678
511.73599	0.03641
510.45022	0.03609
509.16446	0.03578
507.87869	0.03544
506.59292	0.03505
505.30715	0.03463
504.02138	0.03424
502.73561	0.03386
501.44984	0.03347
500.16407	0.03303
498.87830	0.03255
497.59254	0.03207
496.30677	0.03165
495.02100	0.03137
493.73523	0.03122
492.44946	0.03114
491.16369	0.03107
489.87792	0.03096
488.59215	0.03080
487.30639	0.03061
486.02062	0.03040
484.73485	0.03019
483.44908	0.02996
482.16331	0.02967
480.87754	0.02935
479.59177	0.02908
478.30600	0.02890
477.02023	0.02883
475.73447	0.02880
474.44870	0.02878
473.16293	0.02877
471.87716	0.02874
470.59139	0.02868
469.30562	0.02860
468.01985	0.02847
466.73408	0.02826
465.44832	0.02793
464.16255	0.02751
462.87678	0.02711
461.59101	0.02682
460.30524	0.02667
459.01947	0.02660
457.73370	0.02651
456.44793	0.02636
455.16216	0.02614
453.87640	0.02590
452.59063	0.02564
451.30486	0.02537
450.01909	0.02509
448.73332	0.02479
447.44755	0.02449
446.16178	0.02421
444.87601	0.02399
443.59025	0.02381
442.30448	0.02366
441.01871	0.02354
439.73294	0.02345
438.44717	0.02342
437.16140	0.02344
435.87563	0.02350
434.58986	0.02354
433.30409	0.02355
432.01833	0.02352
430.73256	0.02341
429.44679	0.02324
428.16102	0.02305
426.87525	0.02289
425.58948	0.02280
424.30371	0.02273
423.01794	0.02264
421.73218	0.02249
420.44641	0.02232
419.16064	0.02217
417.87487	0.02205
416.58910	0.02198
415.30333	0.02193
414.01756	0.02188
412.73179	0.02182
411.44602	0.02172
410.16026	0.02159
408.87449	0.02145
407.58872	0.02133
406.30295	0.02125
405.01718	0.02117
403.73141	0.02108
402.44564	0.02095
401.15987	0.02084
399.87411	0.02074
