3997.45528	0.02606
3996.16951	0.02518
3994.88374	0.02411
3993.59798	0.02295
3992.31221	0.02207
3991.02644	0.02176
3989.74067	0.02207
3988.45490	0.02271
3987.16913	0.02336
3985.88336	0.02389
3984.59759	0.02425
3983.31183	0.02426
3982.02606	0.02374
3980.74029	0.02290
3979.45452	0.02231
3978.16875	0.02234
3976.88298	0.02285
3975.59721	0.02326
3974.31144	0.02314
3973.02567	0.02248
3971.73991	0.02159
3970.45414	0.02084
3969.16837	0.02047
3967.88260	0.02054
3966.59683	0.02090
3965.31106	0.02134
3964.02529	0.02165
3962.73952	0.02173
3961.45376	0.02169
3960.16799	0.02164
3958.88222	0.02169
3957.59645	0.02181
3956.31068	0.02191
3955.02491	0.02187
3953.73914	0.02169
3952.45337	0.02141
3951.16760	0.02113
3949.88184	0.02097
3948.59607	0.02109
3947.31030	0.02153
3946.02453	0.02216
3944.73876	0.02273
3943.45299	0.02306
3942.16722	0.02323
3940.88145	0.02324
3939.59569	0.02300
3938.30992	0.02246
3937.02415	0.02176
3935.73838	0.02116
3934.45261	0.02081
3933.16684	0.02071
3931.88107	0.02079
3930.59530	0.02099
3929.30953	0.02123
3928.02377	0.02136
3926.73800	0.02123
3925.45223	0.02083
3924.16646	0.02044
3922.88069	0.02039
3921.59492	0.02078
3920.30915	0.02140
3919.02338	0.02185
3917.73762	0.02195
3916.45185	0.02178
3915.16608	0.02154
3913.88031	0.02133
3912.59454	0.02123
3911.30877	0.02137
3910.02300	0.02185
3908.73723	0.02250
3907.45146	0.02296
3906.16570	0.02299
3904.87993	0.02280
3903.59416	0.02281
3902.30839	0.02308
3901.02262	0.02328
3899.73685	0.02320
3898.45108	0.02296
3897.16531	0.02276
3895.87955	0.02261
3894.59378	0.02236
3893.30801	0.02196
3892.02224	0.02161
3890.73647	0.02180
3889.45070	0.02267
3888.16493	0.02369
3886.87916	0.02428
3885.59339	0.02437
3884.30763	0.02416
3883.02186	0.02370
3881.73609	0.02306
3880.45032	0.02252
3879.16455	0.02229
3877.87878	0.02236
3876.59301	0.02266
3875.30724	0.02320
3874.02148	0.02390
3872.73571	0.02427
3871.44994	0.02390
3870.16417	0.02310
3868.87840	0.02262
3867.59263	0.02264
3866.30686	0.02286
3865.02109	0.02309
3863.73532	0.02321
3862.44956	0.02300
3861.16379	0.02238
3859.87802	0.02167
3858.59225	0.02139
3857.30648	0.02170
3856.02071	0.02219
3854.73494	0.02231
3853.44917	0.02208
3852.16341	0.02174
3850.87764	0.02145
3849.59187	0.02139
3848.30610	0.02163
3847.02033	0.02198
3845.73456	0.02211
3844.44879	0.02195
3843.16302	0.02178
3841.87725	0.02196
3840.59149	0.02245
3839.30572	0.02292
3838.01995	0.02317
3836.73418	0.02317
3835.44841	0.02288
3834.16264	0.02235
3832.87687	0.02177
3831.59110	0.02126
3830.30534	0.02080
3829.01957	0.02049
3827.73380	0.02058
3826.44803	0.02120
3825.16226	0.02188
3823.87649	0.02172
3822.59072	0.02051
3821.30495	0.01922
3820.01918	0.01896
3818.73342	0.01966
3817.44765	0.02050
3816.16188	0.02108
3814.87611	0.02142
3813.59034	0.02148
3812.30457	0.02136
3811.01880	0.02143
3809.73303	0.02167
3808.44726	0.02173
3807.16150	0.02158
3805.87573	0.02146
3804.58996	0.02114
3803.30419	0.02032
3802.01842	0.01940
3800.73265	0.01916
3799.44688	0.01964
3798.16111	0.02020
3796.87535	0.02043
3795.58958	0.02041
3794.30381	0.02024
3793.01804	0.01995
3791.73227	0.01968
3790.44650	0.01961
3789.16073	0.01987
3787.87496	0.02039
3786.58919	0.02095
3785.30343	0.02133
3784.01766	0.02152
3782.73189	0.02160
3781.44612	0.02161
3780.16035	0.02159
3778.87458	0.02158
3777.58881	0.02159
3776.30304	0.02159
3775.01728	0.02158
3773.73151	0.02147
3772.44574	0.02107
3771.15997	0.02046
3769.87420	0.02007
3768.58843	0.02016
3767.30266	0.02055
3766.01689	0.02100
3764.73112	0.02144
3763.44536	0.02184
3762.15959	0.02206
3760.87382	0.02202
3759.58805	0.02173
3758.30228	0.02129
3757.01651	0.02101
3755.73074	0.02112
3754.44497	0.02141
3753.15921	0.02145
3751.87344	0.02109
3750.58767	0.02059
3749.30190	0.02045
3748.01613	0.02075
3746.73036	0.02084
3745.44459	0.02040
3744.15882	0.02002
3742.87305	0.02005
3741.58729	0.02003
3740.30152	0.01988
3739.01575	0.01990
3737.72998	0.02012
3736.44421	0.02036
3735.15844	0.02048
3733.87267	0.02037
3732.58690	0.02010
3731.30114	0.01995
3730.01537	0.02000
3728.72960	0.02018
3727.44383	0.02055
3726.15806	0.02124
3724.87229	0.02200
3723.58652	0.02237
3722.30075	0.02217
3721.01498	0.02156
3719.72922	0.02086
3718.44345	0.02033
3717.15768	0.02012
3715.87191	0.02017
3714.58614	0.02015
3713.30037	0.01985
3712.01460	0.01938
3710.72883	0.01902
3709.44307	0.01891
3708.15730	0.01901
3706.87153	0.01917
3705.58576	0.01920
3704.29999	0.01899
3703.01422	0.01863
3701.72845	0.01837
3700.44268	0.01836
3699.15691	0.01853
3697.87115	0.01870
3696.58538	0.01886
3695.29961	0.01908
3694.01384	0.01949
3692.72807	0.02010
3691.44230	0.02053
3690.15653	0.02027
3688.87076	0.01933
3687.58500	0.01838
3686.29923	0.01795
3685.01346	0.01803
3683.72769	0.01837
3682.44192	0.01865
3681.15615	0.01867
3679.87038	0.01843
3678.58461	0.01803
3677.29884	0.01760
3676.01308	0.01758
3674.72731	0.01833
3673.44154	0.01930
3672.15577	0.01962
3670.87000	0.01927
3669.58423	0.01903
3668.29846	0.01929
3667.01269	0.01983
3665.72693	0.02026
3664.44116	0.02034
3663.15539	0.02009
3661.86962	0.01981
3660.58385	0.01978
3659.29808	0.01994
3658.01231	0.01998
3656.72654	0.01983
3655.44077	0.01968
3654.15501	0.01956
3652.86924	0.01931
3651.58347	0.01901
3650.29770	0.01895
3649.01193	0.01927
3647.72616	0.01983
3646.44039	0.02036
3645.15462	0.02066
3643.86886	0.02056
3642.58309	0.02013
3641.29732	0.01974
3640.01155	0.01982
3638.72578	0.02044
3637.44001	0.02120
3636.15424	0.02168
3634.86847	0.02188
3633.58270	0.02212
3632.29694	0.02245
3631.01117	0.02257
3629.72540	0.02252
3628.43963	0.02279
3627.15386	0.02348
3625.86809	0.02409
3624.58232	0.02418
3623.29655	0.02379
3622.01079	0.02314
3620.72502	0.02261
3619.43925	0.02267
3618.15348	0.02347
3616.86771	0.02454
3615.58194	0.02525
3614.29617	0.02542
3613.01040	0.02534
3611.72463	0.02525
3610.43887	0.02510
3609.15310	0.02496
3607.86733	0.02509
3606.58156	0.02563
3605.29579	0.02631
3604.01002	0.02680
3602.72425	0.02701
3601.43848	0.02710
3600.15272	0.02723
3598.86695	0.02724
3597.58118	0.02685
3596.29541	0.02609
3595.00964	0.02543
3593.72387	0.02537
3592.43810	0.02593
3591.15233	0.02658
3589.86656	0.02679
3588.58080	0.02655
3587.29503	0.02625
3586.00926	0.02622
3584.72349	0.02652
3583.43772	0.02715
3582.15195	0.02802
3580.86618	0.02896
3579.58041	0.02974
3578.29464	0.03029
3577.00888	0.03060
3575.72311	0.03069
3574.43734	0.03061
3573.15157	0.03043
3571.86580	0.03026
3570.58003	0.03010
3569.29426	0.02997
3568.00849	0.02998
3566.72273	0.03024
3565.43696	0.03068
3564.15119	0.03107
3562.86542	0.03124
3561.57965	0.03119
3560.29388	0.03098
3559.00811	0.03074
3557.72234	0.03057
3556.43657	0.03052
3555.15081	0.03057
3553.86504	0.03068
3552.57927	0.03095
3551.29350	0.03144
3550.00773	0.03209
3548.72196	0.03267
3547.43619	0.03308
3546.15042	0.03331
3544.86466	0.03336
3543.57889	0.03326
3542.29312	0.03315
3541.00735	0.03325
3539.72158	0.03359
3538.43581	0.03394
3537.15004	0.03407
3535.86427	0.03400
3534.57850	0.03396
3533.29274	0.03418
3532.00697	0.03468
3530.72120	0.03530
3529.43543	0.03582
3528.14966	0.03612
3526.86389	0.03624
3525.57812	0.03627
3524.29235	0.03626
3523.00659	0.03621
3521.72082	0.03612
3520.43505	0.03600
3519.14928	0.03588
3517.86351	0.03580
3516.57774	0.03586
3515.29197	0.03612
3514.00620	0.03653
3512.72043	0.03692
3511.43467	0.03719
3510.14890	0.03735
3508.86313	0.03748
3507.57736	0.03756
3506.29159	0.03756
3505.00582	0.03756
3503.72005	0.03771
3502.43428	0.03807
3501.14852	0.03845
3499.86275	0.03855
3498.57698	0.03829
3497.29121	0.03785
3496.00544	0.03754
3494.71967	0.03747
3493.43390	0.03758
3492.14813	0.03786
3490.86236	0.03844
3489.57660	0.03937
3488.29083	0.04036
3487.00506	0.04092
3485.71929	0.04082
3484.43352	0.04035
3483.14775	0.04004
3481.86198	0.04020
3480.57621	0.04065
3479.29045	0.04102
3478.00468	0.04115
3476.71891	0.04119
3475.43314	0.04136
3474.14737	0.04175
3472.86160	0.04221
3471.57583	0.04256
3470.29006	0.04281
3469.00429	0.04307
3467.71853	0.04346
3466.43276	0.04391
3465.14699	0.04418
3463.86122	0.04408
3462.57545	0.04368
3461.28968	0.04335
3460.00391	0.04336
3458.71814	0.04358
3457.43238	0.04361
3456.14661	0.04331
3454.86084	0.04295
3453.57507	0.04302
3452.28930	0.04366
3451.00353	0.04455
3449.71776	0.04512
3448.43199	0.04504
3447.14622	0.04453
3445.86046	0.04411
3444.57469	0.04415
3443.28892	0.04455
3442.00315	0.04490
3440.71738	0.04494
3439.43161	0.04470
3438.14584	0.04442
3436.86007	0.04431
3435.57431	0.04448
3434.28854	0.04488
3433.00277	0.04539
3431.71700	0.04581
3430.43123	0.04599
3429.14546	0.04592
3427.85969	0.04577
3426.57392	0.04567
3425.28815	0.04570
3424.00239	0.04586
3422.71662	0.04611
3421.43085	0.04638
3420.14508	0.04655
3418.85931	0.04650
3417.57354	0.04626
3416.28777	0.04608
3415.00200	0.04619
3413.71624	0.04664
3412.43047	0.04721
3411.14470	0.04770
3409.85893	0.04805
3408.57316	0.04831
3407.28739	0.04851
3406.00162	0.04858
3404.71585	0.04851
3403.43008	0.04840
3402.14432	0.04843
3400.85855	0.04861
3399.57278	0.04879
3398.28701	0.04881
3397.00124	0.04870
3395.71547	0.04859
3394.42970	0.04865
3393.14393	0.04889
3391.85817	0.04917
3390.57240	0.04928
3389.28663	0.04923
3388.00086	0.04924
3386.71509	0.04947
3385.42932	0.04980
3384.14355	0.05006
3382.85778	0.05026
3381.57201	0.05047
3380.28625	0.05063
3379.00048	0.05055
3377.71471	0.05017
3376.42894	0.04971
3375.14317	0.04953
3373.85740	0.04986
3372.57163	0.05063
3371.28586	0.05146
3370.00010	0.05196
3368.71433	0.05205
3367.42856	0.05199
3366.14279	0.05207
3364.85702	0.05232
3363.57125	0.05262
3362.28548	0.05285
3360.99971	0.05299
3359.71394	0.05310
3358.42818	0.05323
3357.14241	0.05342
3355.85664	0.05365
3354.57087	0.05379
3353.28510	0.05377
3351.99933	0.05369
3350.71356	0.05373
3349.42779	0.05395
3348.14202	0.05422
3346.85626	0.05441
3345.57049	0.05453
3344.28472	0.05468
3342.99895	0.05499
3341.71318	0.05553
3340.42741	0.05623
3339.14164	0.05686
3337.85587	0.05718
3336.57011	0.05711
3335.28434	0.05680
3333.99857	0.05648
3332.71280	0.05633
3331.42703	0.05639
3330.14126	0.05659
3328.85549	0.05687
3327.56972	0.05716
3326.28395	0.05743
3324.99819	0.05763
3323.71242	0.05775
3322.42665	0.05791
3321.14088	0.05819
3319.85511	0.05852
3318.56934	0.05881
3317.28357	0.05900
3315.99780	0.05917
3314.71204	0.05939
3313.42627	0.05970
3312.14050	0.06006
3310.85473	0.06029
3309.56896	0.06025
3308.28319	0.05994
3306.99742	0.05954
3305.71165	0.05931
3304.42588	0.05940
3303.14012	0.05981
3301.85435	0.06037
3300.56858	0.06087
3299.28281	0.06114
3297.99704	0.06119
3296.71127	0.06121
3295.42550	0.06139
3294.13973	0.06170
3292.85397	0.06189
3291.56820	0.06170
3290.28243	0.06115
3288.99666	0.06058
3287.71089	0.06038
3286.42512	0.06067
3285.13935	0.06118
3283.85358	0.06160
3282.56781	0.06183
3281.28205	0.06198
3279.99628	0.06207
3278.71051	0.06201
3277.42474	0.06173
3276.13897	0.06131
3274.85320	0.06092
3273.56743	0.06064
3272.28166	0.06054
3270.99590	0.06063
3269.71013	0.06086
3268.42436	0.06113
3267.13859	0.06129
3265.85282	0.06119
3264.56705	0.06085
3263.28128	0.06043
3261.99551	0.06013
3260.70974	0.06010
3259.42398	0.06031
3258.13821	0.06062
3256.85244	0.06081
3255.56667	0.06075
3254.28090	0.06049
3252.99513	0.06019
3251.70936	0.05994
3250.42359	0.05968
3249.13783	0.05930
3247.85206	0.05889
3246.56629	0.05863
3245.28052	0.05858
3243.99475	0.05855
3242.70898	0.05834
3241.42321	0.05799
3240.13744	0.05772
3238.85167	0.05773
3237.56591	0.05794
3236.28014	0.05814
3234.99437	0.05819
3233.70860	0.05815
3232.42283	0.05813
3231.13706	0.05817
3229.85129	0.05826
3228.56552	0.05834
3227.27976	0.05838
3225.99399	0.05836
3224.70822	0.05830
3223.42245	0.05827
3222.13668	0.05835
3220.85091	0.05850
3219.56514	0.05855
3218.27937	0.05834
3216.99360	0.05777
3215.70784	0.05697
3214.42207	0.05619
3213.13630	0.05566
3211.85053	0.05552
3210.56476	0.05576
3209.27899	0.05624
3207.99322	0.05675
3206.70745	0.05708
3205.42169	0.05717
3204.13592	0.05707
3202.85015	0.05680
3201.56438	0.05642
3200.27861	0.05602
3198.99284	0.05575
3197.70707	0.05565
3196.42130	0.05560
3195.13553	0.05548
3193.84977	0.05532
3192.56400	0.05522
3191.27823	0.05523
3189.99246	0.05533
3188.70669	0.05542
3187.42092	0.05544
3186.13515	0.05533
3184.84938	0.05503
3183.56362	0.05464
3182.27785	0.05439
3180.99208	0.05444
3179.70631	0.05474
3178.42054	0.05499
3177.13477	0.05486
3175.84900	0.05428
3174.56323	0.05351
3173.27746	0.05299
3171.99170	0.05296
3170.70593	0.05322
3169.42016	0.05338
3168.13439	0.05326
3166.84862	0.05297
3165.56285	0.05266
3164.27708	0.05240
3162.99131	0.05224
3161.70555	0.05229
3160.41978	0.05253
3159.13401	0.05278
3157.84824	0.05283
3156.56247	0.05269
3155.27670	0.05253
3153.99093	0.05246
3152.70516	0.05238
3151.41939	0.05216
3150.13363	0.05179
3148.84786	0.05139
3147.56209	0.05101
3146.27632	0.05063
3144.99055	0.05034
3143.70478	0.05028
3142.41901	0.05044
3141.13324	0.05059
3139.84748	0.05048
3138.56171	0.05010
3137.27594	0.04958
3135.99017	0.04906
3134.70440	0.04862
3133.41863	0.04838
3132.13286	0.04840
3130.84709	0.04866
3129.56132	0.04899
3128.27556	0.04917
3126.98979	0.04907
3125.70402	0.04880
3124.41825	0.04851
3123.13248	0.04834
3121.84671	0.04825
3120.56094	0.04820
3119.27517	0.04816
3117.98940	0.04815
3116.70364	0.04815
3115.41787	0.04812
3114.13210	0.04806
3112.84633	0.04797
3111.56056	0.04785
3110.27479	0.04767
3108.98902	0.04743
3107.70325	0.04717
3106.41749	0.04695
3105.13172	0.04687
3103.84595	0.04701
3102.56018	0.04737
3101.27441	0.04782
3099.98864	0.04814
3098.70287	0.04818
3097.41710	0.04797
3096.13133	0.04772
3094.84557	0.04767
3093.55980	0.04794
3092.27403	0.04843
3090.98826	0.04885
3089.70249	0.04900
3088.41672	0.04889
3087.13095	0.04873
3085.84518	0.04869
3084.55942	0.04873
3083.27365	0.04874
3081.98788	0.04861
3080.70211	0.04836
3079.41634	0.04808
3078.13057	0.04790
3076.84480	0.04796
3075.55903	0.04827
3074.27326	0.04869
3072.98750	0.04900
3071.70173	0.04906
3070.41596	0.04894
3069.13019	0.04884
3067.84442	0.04888
3066.55865	0.04900
3065.27288	0.04905
3063.98711	0.04896
3062.70135	0.04880
3061.41558	0.04865
3060.12981	0.04857
3058.84404	0.04855
3057.55827	0.04855
3056.27250	0.04849
3054.98673	0.04831
3053.70096	0.04805
3052.41519	0.04788
3051.12943	0.04789
3049.84366	0.04804
3048.55789	0.04814
3047.27212	0.04807
3045.98635	0.04780
3044.70058	0.04745
3043.41481	0.04708
3042.12904	0.04672
3040.84328	0.04639
3039.55751	0.04613
3038.27174	0.04599
3036.98597	0.04596
3035.70020	0.04598
3034.41443	0.04594
3033.12866	0.04581
3031.84289	0.04559
3030.55712	0.04536
3029.27136	0.04521
3027.98559	0.04518
3026.69982	0.04522
3025.41405	0.04521
3024.12828	0.04511
3022.84251	0.04503
3021.55674	0.04506
3020.27097	0.04514
3018.98521	0.04513
3017.69944	0.04499
3016.41367	0.04480
3015.12790	0.04468
3013.84213	0.04464
3012.55636	0.04464
3011.27059	0.04461
3009.98482	0.04448
3008.69905	0.04424
3007.41329	0.04398
3006.12752	0.04382
3004.84175	0.04383
3003.55598	0.04398
3002.27021	0.04415
3000.98444	0.04427
2999.69867	0.04429
2998.41290	0.04429
2997.12714	0.04432
2995.84137	0.04439
2994.55560	0.04445
2993.26983	0.04449
2991.98406	0.04451
2990.69829	0.04451
2989.41252	0.04446
2988.12675	0.04437
2986.84098	0.04436
2985.55522	0.04449
2984.26945	0.04472
2982.98368	0.04496
2981.69791	0.04522
2980.41214	0.04556
2979.12637	0.04592
2977.84060	0.04618
2976.55483	0.04634
2975.26907	0.04650
2973.98330	0.04677
2972.69753	0.04706
2971.41176	0.04722
2970.12599	0.04720
2968.84022	0.04709
2967.55445	0.04704
2966.26868	0.04711
2964.98291	0.04727
2963.69715	0.04740
2962.41138	0.04745
2961.12561	0.04741
2959.83984	0.04743
2958.55407	0.04766
2957.26830	0.04809
2955.98253	0.04843
2954.69676	0.04849
2953.41100	0.04828
2952.12523	0.04800
2950.83946	0.04777
2949.55369	0.04759
2948.26792	0.04745
2946.98215	0.04742
2945.69638	0.04758
2944.41061	0.04793
2943.12484	0.04832
2941.83908	0.04865
2940.55331	0.04889
2939.26754	0.04904
2937.98177	0.04912
2936.69600	0.04910
2935.41023	0.04899
2934.12446	0.04884
2932.83869	0.04873
2931.55293	0.04874
2930.26716	0.04891
2928.98139	0.04921
2927.69562	0.04955
2926.40985	0.04981
2925.12408	0.04993
2923.83831	0.04993
2922.55254	0.04988
2921.26677	0.04982
2919.98101	0.04979
2918.69524	0.04976
2917.40947	0.04966
2916.12370	0.04943
2914.83793	0.04908
2913.55216	0.04866
2912.26639	0.04824
2910.98062	0.04788
2909.69486	0.04758
2908.40909	0.04729
2907.12332	0.04701
2905.83755	0.04669
2904.55178	0.04630
2903.26601	0.04585
2901.98024	0.04542
2900.69447	0.04512
2899.40870	0.04500
2898.12294	0.04505
2896.83717	0.04518
2895.55140	0.04532
2894.26563	0.04540
2892.97986	0.04542
2891.69409	0.04541
2890.40832	0.04538
2889.12255	0.04531
2887.83678	0.04513
2886.55102	0.04477
2885.26525	0.04427
2883.97948	0.04378
2882.69371	0.04352
2881.40794	0.04357
2880.12217	0.04377
2878.83640	0.04388
2877.55063	0.04383
2876.26487	0.04377
2874.97910	0.04385
2873.69333	0.04407
2872.40756	0.04429
2871.12179	0.04444
2869.83602	0.04453
2868.55025	0.04457
2867.26448	0.04447
2865.97871	0.04422
2864.69295	0.04390
2863.40718	0.04366
2862.12141	0.04361
2860.83564	0.04369
2859.54987	0.04380
2858.26410	0.04381
2856.97833	0.04367
2855.69256	0.04338
2854.40680	0.04303
2853.12103	0.04271
2851.83526	0.04253
2850.54949	0.04255
2849.26372	0.04263
2847.97795	0.04259
2846.69218	0.04236
2845.40641	0.04206
2844.12064	0.04185
2842.83488	0.04176
2841.54911	0.04170
2840.26334	0.04154
2838.97757	0.04127
2837.69180	0.04095
2836.40603	0.04068
2835.12026	0.04050
2833.83449	0.04041
2832.54873	0.04036
2831.26296	0.04031
2829.97719	0.04024
2828.69142	0.04011
2827.40565	0.03993
2826.11988	0.03976
2824.83411	0.03964
2823.54834	0.03952
2822.26257	0.03932
2820.97681	0.03911
2819.69104	0.03900
2818.40527	0.03907
2817.11950	0.03921
2815.83373	0.03921
2814.54796	0.03899
2813.26219	0.03864
2811.97642	0.03830
2810.69066	0.03812
2809.40489	0.03816
2808.11912	0.03840
2806.83335	0.03871
2805.54758	0.03893
2804.26181	0.03891
2802.97604	0.03864
2801.69027	0.03822
2800.40450	0.03784
2799.11874	0.03768
2797.83297	0.03778
2796.54720	0.03803
2795.26143	0.03821
2793.97566	0.03820
2792.68989	0.03798
2791.40412	0.03766
2790.11835	0.03734
2788.83259	0.03712
2787.54682	0.03713
2786.26105	0.03738
2784.97528	0.03774
2783.68951	0.03797
2782.40374	0.03792
2781.11797	0.03759
2779.83220	0.03716
2778.54643	0.03679
2777.26067	0.03653
2775.97490	0.03638
2774.68913	0.03633
2773.40336	0.03636
2772.11759	0.03643
2770.83182	0.03646
2769.54605	0.03643
2768.26028	0.03638
2766.97452	0.03637
2765.68875	0.03639
2764.40298	0.03636
2763.11721	0.03620
2761.83144	0.03591
2760.54567	0.03560
2759.25990	0.03540
2757.97413	0.03528
2756.68836	0.03515
2755.40260	0.03496
2754.11683	0.03477
2752.83106	0.03470
2751.54529	0.03477
2750.25952	0.03493
2748.97375	0.03506
2747.68798	0.03514
2746.40221	0.03520
2745.11645	0.03523
2743.83068	0.03518
2742.54491	0.03500
2741.25914	0.03478
2739.97337	0.03460
2738.68760	0.03448
2737.40183	0.03437
2736.11606	0.03424
2734.83029	0.03413
2733.54453	0.03406
2732.25876	0.03402
2730.97299	0.03397
2729.68722	0.03387
2728.40145	0.03373
2727.11568	0.03366
2725.82991	0.03378
2724.54414	0.03412
2723.25838	0.03454
2721.97261	0.03478
2720.68684	0.03471
2719.40107	0.03438
2718.11530	0.03391
2716.82953	0.03342
2715.54376	0.03299
2714.25799	0.03271
2712.97222	0.03261
2711.68646	0.03264
2710.40069	0.03267
2709.11492	0.03262
2707.82915	0.03251
2706.54338	0.03251
2705.25761	0.03267
2703.97184	0.03292
2702.68607	0.03312
2701.40031	0.03322
2700.11454	0.03320
2698.82877	0.03302
2697.54300	0.03268
2696.25723	0.03234
2694.97146	0.03218
2693.68569	0.03222
2692.39992	0.03230
2691.11415	0.03228
2689.82839	0.03215
2688.54262	0.03201
2687.25685	0.03188
2685.97108	0.03173
2684.68531	0.03155
2683.39954	0.03141
2682.11377	0.03133
2680.82800	0.03127
2679.54224	0.03119
2678.25647	0.03114
2676.97070	0.03118
2675.68493	0.03131
2674.39916	0.03146
2673.11339	0.03156
2671.82762	0.03158
2670.54185	0.03151
2669.25608	0.03141
2667.97032	0.03133
2666.68455	0.03129
2665.39878	0.03126
2664.11301	0.03121
2662.82724	0.03117
2661.54147	0.03119
2660.25570	0.03132
2658.96993	0.03151
2657.68417	0.03167
2656.39840	0.03166
2655.11263	0.03143
2653.82686	0.03112
2652.54109	0.03089
2651.25532	0.03077
2649.96955	0.03064
2648.68378	0.03041
2647.39801	0.03021
2646.11225	0.03020
2644.82648	0.03039
2643.54071	0.03062
2642.25494	0.03074
2640.96917	0.03076
2639.68340	0.03067
2638.39763	0.03041
2637.11186	0.02998
2635.82609	0.02953
2634.54033	0.02925
2633.25456	0.02921
2631.96879	0.02928
2630.68302	0.02930
2629.39725	0.02926
2628.11148	0.02924
2626.82571	0.02931
2625.53994	0.02942
2624.25418	0.02946
2622.96841	0.02935
2621.68264	0.02911
2620.39687	0.02886
2619.11110	0.02872
2617.82533	0.02871
2616.53956	0.02874
2615.25379	0.02875
2613.96802	0.02874
2612.68226	0.02867
2611.39649	0.02848
2610.11072	0.02818
2608.82495	0.02784
2607.53918	0.02757
2606.25341	0.02738
2604.96764	0.02722
2603.68187	0.02709
2602.39611	0.02700
2601.11034	0.02698
2599.82457	0.02706
2598.53880	0.02725
2597.25303	0.02752
2595.96726	0.02772
2594.68149	0.02763
2593.39572	0.02714
2592.10995	0.02637
2590.82419	0.02567
2589.53842	0.02536
2588.25265	0.02547
2586.96688	0.02577
2585.68111	0.02603
2584.39534	0.02613
2583.10957	0.02604
2581.82380	0.02580
2580.53804	0.02550
2579.25227	0.02526
2577.96650	0.02519
2576.68073	0.02526
2575.39496	0.02532
2574.10919	0.02525
2572.82342	0.02508
2571.53765	0.02502
2570.25188	0.02514
2568.96612	0.02533
2567.68035	0.02541
2566.39458	0.02538
2565.10881	0.02529
2563.82304	0.02513
2562.53727	0.02484
2561.25150	0.02454
2559.96573	0.02431
2558.67997	0.02411
2557.39420	0.02383
2556.10843	0.02351
2554.82266	0.02337
2553.53689	0.02347
2552.25112	0.02370
2550.96535	0.02388
2549.67958	0.02394
2548.39381	0.02400
2547.10805	0.02412
2545.82228	0.02428
2544.53651	0.02438
2543.25074	0.02446
2541.96497	0.02460
2540.67920	0.02479
2539.39343	0.02485
2538.10766	0.02467
2536.82190	0.02434
2535.53613	0.02408
2534.25036	0.02396
2532.96459	0.02391
2531.67882	0.02384
2530.39305	0.02370
2529.10728	0.02349
2527.82151	0.02331
2526.53574	0.02331
2525.24998	0.02361
2523.96421	0.02411
2522.67844	0.02455
2521.39267	0.02472
2520.10690	0.02464
2518.82113	0.02445
2517.53536	0.02428
2516.24959	0.02418
2514.96383	0.02409
2513.67806	0.02391
2512.39229	0.02358
2511.10652	0.02320
2509.82075	0.02297
2508.53498	0.02298
2507.24921	0.02319
2505.96344	0.02342
2504.67767	0.02357
2503.39191	0.02364
2502.10614	0.02372
2500.82037	0.02384
2499.53460	0.02389
2498.24883	0.02374
2496.96306	0.02339
2495.67729	0.02303
2494.39152	0.02277
2493.10576	0.02262
2491.81999	0.02260
2490.53422	0.02280
2489.24845	0.02319
2487.96268	0.02357
2486.67691	0.02366
2485.39114	0.02337
2484.10537	0.02287
2482.81960	0.02243
2481.53384	0.02222
2480.24807	0.02225
2478.96230	0.02241
2477.67653	0.02254
2476.39076	0.02258
2475.10499	0.02265
2473.81922	0.02288
2472.53345	0.02321
2471.24769	0.02341
2469.96192	0.02340
2468.67615	0.02333
2467.39038	0.02339
2466.10461	0.02356
2464.81884	0.02366
2463.53307	0.02360
2462.24730	0.02340
2460.96153	0.02317
2459.67577	0.02304
2458.39000	0.02307
2457.10423	0.02320
2455.81846	0.02330
2454.53269	0.02324
2453.24692	0.02308
2451.96115	0.02295
2450.67538	0.02294
2449.38962	0.02300
2448.10385	0.02305
2446.81808	0.02302
2445.53231	0.02287
2444.24654	0.02258
2442.96077	0.02222
2441.67500	0.02187
2440.38923	0.02164
2439.10346	0.02155
2437.81770	0.02164
2436.53193	0.02193
2435.24616	0.02227
2433.96039	0.02251
2432.67462	0.02257
2431.38885	0.02247
2430.10308	0.02222
2428.81731	0.02190
2427.53155	0.02167
2426.24578	0.02170
2424.96001	0.02200
2423.67424	0.02239
2422.38847	0.02267
2421.10270	0.02277
2419.81693	0.02276
2418.53116	0.02271
2417.24539	0.02263
2415.95963	0.02251
2414.67386	0.02242
2413.38809	0.02252
2412.10232	0.02283
2410.81655	0.02321
2409.53078	0.02341
2408.24501	0.02332
2406.95924	0.02304
2405.67347	0.02274
2404.38771	0.02256
2403.10194	0.02251
2401.81617	0.02256
2400.53040	0.02266
2399.24463	0.02278
2397.95886	0.02276
2396.67309	0.02266
2395.38732	0.02253
2394.10156	0.02240
2392.81579	0.02234
2391.53002	0.02241
2390.24425	0.02260
2388.95848	0.02281
2387.67271	0.02291
2386.38694	0.02280
2385.10117	0.02254
2383.81540	0.02228
2382.52964	0.02223
2381.24387	0.02241
2379.95810	0.02270
2378.67233	0.02289
2377.38656	0.02290
2376.10079	0.02276
2374.81502	0.02266
2373.52925	0.02274
2372.24349	0.02286
2370.95772	0.02281
2369.67195	0.02255
2368.38618	0.02229
2367.10041	0.02227
2365.81464	0.02244
2364.52887	0.02268
2363.24310	0.02292
2361.95733	0.02316
2360.67157	0.02348
2359.38580	0.02377
2358.10003	0.02390
2356.81426	0.02386
2355.52849	0.02375
2354.24272	0.02360
2352.95695	0.02350
2351.67118	0.02354
2350.38542	0.02358
2349.09965	0.02347
2347.81388	0.02331
2346.52811	0.02334
2345.24234	0.02344
2343.95657	0.02336
2342.67080	0.02312
2341.38503	0.02323
2340.09926	0.02364
2338.81350	0.02366
2337.52773	0.02333
2336.24196	0.02345
2334.95619	0.02387
2333.67042	0.02390
2332.38465	0.02362
2331.09888	0.02374
2329.81311	0.02369
2328.52735	0.02338
2327.24158	0.02367
2325.95581	0.02447
2324.67004	0.02515
2323.38427	0.02557
2322.09850	0.02571
2320.81273	0.02526
2319.52696	0.02462
2318.24119	0.02409
2316.95543	0.02368
2315.66966	0.02346
2314.38389	0.02329
2313.09812	0.02307
2311.81235	0.02290
2310.52658	0.02266
2309.24081	0.02240
2307.95504	0.02227
2306.66928	0.02227
2305.38351	0.02231
2304.09774	0.02225
2302.81197	0.02208
2301.52620	0.02195
2300.24043	0.02194
2298.95466	0.02201
2297.66889	0.02204
2296.38312	0.02199
2295.09736	0.02194
2293.81159	0.02196
2292.52582	0.02194
2291.24005	0.02170
2289.95428	0.02121
2288.66851	0.02073
2287.38274	0.02057
2286.09697	0.02086
2284.81121	0.02139
2283.52544	0.02184
2282.23967	0.02200
2280.95390	0.02182
2279.66813	0.02136
2278.38236	0.02070
2277.09659	0.01999
2275.81082	0.01940
2274.52505	0.01905
2273.23929	0.01898
2271.95352	0.01920
2270.66775	0.01967
2269.38198	0.02025
2268.09621	0.02066
2266.81044	0.02066
2265.52467	0.02019
2264.23890	0.01937
2262.95314	0.01848
2261.66737	0.01785
2260.38160	0.01763
2259.09583	0.01776
2257.81006	0.01796
2256.52429	0.01792
2255.23852	0.01752
2253.95275	0.01683
2252.66698	0.01604
2251.38122	0.01540
2250.09545	0.01515
2248.80968	0.01542
2247.52391	0.01580
2246.23814	0.01616
2244.95237	0.01630
2243.66660	0.01623
2242.38083	0.01615
2241.09507	0.01626
2239.80930	0.01649
2238.52353	0.01655
2237.23776	0.01623
2235.95199	0.01565
2234.66622	0.01518
2233.38045	0.01507
2232.09468	0.01532
2230.80891	0.01570
2229.52315	0.01582
2228.23738	0.01535
2226.95161	0.01439
2225.66584	0.01355
2224.38007	0.01348
2223.09430	0.01433
2221.80853	0.01560
2220.52276	0.01658
2219.23700	0.01685
2217.95123	0.01651
2216.66546	0.01603
2215.37969	0.01581
2214.09392	0.01591
2212.80815	0.01601
2211.52238	0.01578
2210.23661	0.01507
2208.95084	0.01408
2207.66508	0.01322
2206.37931	0.01283
2205.09354	0.01291
2203.80777	0.01312
2202.52200	0.01323
2201.23623	0.01314
2199.95046	0.01279
2198.66469	0.01224
2197.37893	0.01182
2196.09316	0.01196
2194.80739	0.01269
2193.52162	0.01365
2192.23585	0.01454
2190.95008	0.01513
2189.66431	0.01513
2188.37854	0.01439
2187.09277	0.01333
2185.80701	0.01273
2184.52124	0.01289
2183.23547	0.01323
2181.94970	0.01297
2180.66393	0.01194
2179.37816	0.01053
2178.09239	0.00911
2176.80662	0.00801
2175.52085	0.00775
2174.23509	0.00870
2172.94932	0.01044
2171.66355	0.01201
2170.37778	0.01282
2169.09201	0.01305
2167.80624	0.01312
2166.52047	0.01311
2165.23470	0.01289
2163.94894	0.01252
2162.66317	0.01216
2161.37740	0.01152
2160.09163	0.01004
2158.80586	0.00774
2157.52009	0.00567
2156.23432	0.00498
2154.94855	0.00582
2153.66278	0.00745
2152.37702	0.00900
2151.09125	0.01009
2149.80548	0.01087
2148.51971	0.01153
2147.23394	0.01190
2145.94817	0.01162
2144.66240	0.01064
2143.37663	0.00944
2142.09087	0.00865
2140.80510	0.00856
2139.51933	0.00901
2138.23356	0.00969
2136.94779	0.01025
2135.66202	0.01051
2134.37625	0.01055
2133.09048	0.01066
2131.80471	0.01098
2130.51895	0.01150
2129.23318	0.01211
2127.94741	0.01276
2126.66164	0.01339
2125.37587	0.01396
2124.09010	0.01439
2122.80433	0.01464
2121.51856	0.01467
2120.23280	0.01445
2118.94703	0.01401
2117.66126	0.01351
2116.37549	0.01328
2115.08972	0.01354
2113.80395	0.01405
2112.51818	0.01426
2111.23241	0.01388
2109.94664	0.01316
2108.66088	0.01265
2107.37511	0.01267
2106.08934	0.01308
2104.80357	0.01348
2103.51780	0.01365
2102.23203	0.01369
2100.94626	0.01379
2099.66049	0.01406
2098.37473	0.01413
2097.08896	0.01401
2095.80319	0.01389
2094.51742	0.01381
2093.23165	0.01370
2091.94588	0.01348
2090.66011	0.01321
2089.37434	0.01299
2088.08857	0.01291
2086.80281	0.01289
2085.51704	0.01280
2084.23127	0.01258
2082.94550	0.01232
2081.65973	0.01217
2080.37396	0.01219
2079.08819	0.01233
2077.80242	0.01250
2076.51666	0.01258
2075.23089	0.01254
2073.94512	0.01246
2072.65935	0.01251
2071.37358	0.01273
2070.08781	0.01301
2068.80204	0.01321
2067.51627	0.01321
2066.23050	0.01297
2064.94474	0.01250
2063.65897	0.01194
2062.37320	0.01153
2061.08743	0.01142
2059.80166	0.01152
2058.51589	0.01156
2057.23012	0.01138
2055.94435	0.01103
2054.65859	0.01083
2053.37282	0.01102
2052.08705	0.01160
2050.80128	0.01225
2049.51551	0.01257
2048.22974	0.01237
2046.94397	0.01189
2045.65820	0.01154
2044.37243	0.01139
2043.08667	0.01107
2041.80090	0.01021
2040.51513	0.00903
2039.22936	0.00813
2037.94359	0.00789
2036.65782	0.00824
2035.37205	0.00893
2034.08628	0.00978
2032.80052	0.01063
2031.51475	0.01112
2030.22898	0.01085
2028.94321	0.00969
2027.65744	0.00789
2026.37167	0.00600
2025.08590	0.00460
2023.80013	0.00405
2022.51436	0.00437
2021.22860	0.00521
2019.94283	0.00602
2018.65706	0.00641
2017.37129	0.00639
2016.08552	0.00625
2014.79975	0.00626
2013.51398	0.00651
2012.22821	0.00696
2010.94245	0.00753
2009.65668	0.00805
2008.37091	0.00838
2007.08514	0.00856
2005.79937	0.00866
2004.51360	0.00863
2003.22783	0.00837
2001.94206	0.00800
2000.65629	0.00775
1999.37053	0.00781
1998.08476	0.00815
1996.79899	0.00868
1995.51322	0.00931
1994.22745	0.01001
1992.94168	0.01080
1991.65591	0.01161
1990.37014	0.01228
1989.08438	0.01254
1987.79861	0.01225
1986.51284	0.01158
1985.22707	0.01089
1983.94130	0.01048
1982.65553	0.01035
1981.36976	0.01037
1980.08399	0.01049
1978.79822	0.01075
1977.51246	0.01102
1976.22669	0.01101
1974.94092	0.01053
1973.65515	0.00971
1972.36938	0.00887
1971.08361	0.00832
1969.79784	0.00817
1968.51207	0.00824
1967.22631	0.00822
1965.94054	0.00791
1964.65477	0.00745
1963.36900	0.00725
1962.08323	0.00757
1960.79746	0.00826
1959.51169	0.00893
1958.22592	0.00933
1956.94015	0.00950
1955.65439	0.00960
1954.36862	0.00968
1953.08285	0.00971
1951.79708	0.00974
1950.51131	0.00991
1949.22554	0.01021
1947.93977	0.01045
1946.65400	0.01038
1945.36823	0.00998
1944.08247	0.00953
1942.79670	0.00945
1941.51093	0.00996
1940.22516	0.01077
1938.93939	0.01137
1937.65362	0.01145
1936.36785	0.01110
1935.08208	0.01067
1933.79632	0.01042
1932.51055	0.01045
1931.22478	0.01067
1929.93901	0.01086
1928.65324	0.01083
1927.36747	0.01062
1926.08170	0.01040
1924.79593	0.01033
1923.51016	0.01035
1922.22440	0.01034
1920.93863	0.01022
1919.65286	0.01010
1918.36709	0.01015
1917.08132	0.01046
1915.79555	0.01095
1914.50978	0.01148
1913.22401	0.01197
1911.93825	0.01233
1910.65248	0.01250
1909.36671	0.01243
1908.08094	0.01222
1906.79517	0.01199
1905.50940	0.01184
1904.22363	0.01177
1902.93786	0.01175
1901.65209	0.01176
1900.36633	0.01175
1899.08056	0.01165
1897.79479	0.01144
1896.50902	0.01121
1895.22325	0.01110
1893.93748	0.01115
1892.65171	0.01132
1891.36594	0.01158
1890.08018	0.01191
1888.79441	0.01227
1887.50864	0.01251
1886.22287	0.01255
1884.93710	0.01245
1883.65133	0.01234
1882.36556	0.01223
1881.07979	0.01208
1879.79402	0.01190
1878.50826	0.01176
1877.22249	0.01173
1875.93672	0.01178
1874.65095	0.01191
1873.36518	0.01209
1872.07941	0.01221
1870.79364	0.01215
1869.50787	0.01193
1868.22211	0.01173
1866.93634	0.01175
1865.65057	0.01202
1864.36480	0.01237
1863.07903	0.01257
1861.79326	0.01254
1860.50749	0.01234
1859.22172	0.01213
1857.93595	0.01197
1856.65019	0.01184
1855.36442	0.01173
1854.07865	0.01165
1852.79288	0.01166
1851.50711	0.01175
1850.22134	0.01186
1848.93557	0.01197
1847.64980	0.01209
1846.36404	0.01216
1845.07827	0.01219
1843.79250	0.01222
1842.50673	0.01226
1841.22096	0.01221
1839.93519	0.01207
1838.64942	0.01194
1837.36365	0.01191
1836.07788	0.01197
1834.79212	0.01207
1833.50635	0.01218
1832.22058	0.01229
1830.93481	0.01237
1829.64904	0.01244
1828.36327	0.01247
1827.07750	0.01241
1825.79173	0.01228
1824.50597	0.01218
1823.22020	0.01215
1821.93443	0.01211
1820.64866	0.01200
1819.36289	0.01178
1818.07712	0.01153
1816.79135	0.01136
1815.50558	0.01138
1814.21981	0.01159
1812.93405	0.01188
1811.64828	0.01214
1810.36251	0.01232
1809.07674	0.01240
1807.79097	0.01243
1806.50520	0.01246
1805.21943	0.01252
1803.93366	0.01254
1802.64790	0.01244
1801.36213	0.01223
1800.07636	0.01204
1798.79059	0.01198
1797.50482	0.01211
1796.21905	0.01239
1794.93328	0.01265
1793.64751	0.01277
1792.36174	0.01275
1791.07598	0.01264
1789.79021	0.01249
1788.50444	0.01234
1787.21867	0.01227
1785.93290	0.01229
1784.64713	0.01237
1783.36136	0.01247
1782.07559	0.01256
1780.78983	0.01265
1779.50406	0.01275
1778.21829	0.01280
1776.93252	0.01274
1775.64675	0.01259
1774.36098	0.01241
1773.07521	0.01233
1771.78944	0.01245
1770.50367	0.01261
1769.21791	0.01263
1767.93214	0.01251
1766.64637	0.01243
1765.36060	0.01244
1764.07483	0.01246
1762.78906	0.01249
1761.50329	0.01259
1760.21752	0.01276
1758.93176	0.01287
1757.64599	0.01285
1756.36022	0.01282
1755.07445	0.01285
1753.78868	0.01286
1752.50291	0.01280
1751.21714	0.01274
1749.93137	0.01278
1748.64560	0.01288
1747.35984	0.01303
1746.07407	0.01321
1744.78830	0.01340
1743.50253	0.01354
1742.21676	0.01359
1740.93099	0.01360
1739.64522	0.01371
1738.35945	0.01400
1737.07369	0.01430
1735.78792	0.01435
1734.50215	0.01425
1733.21638	0.01423
1731.93061	0.01434
1730.64484	0.01442
1729.35907	0.01447
1728.07330	0.01462
1726.78753	0.01486
1725.50177	0.01508
1724.21600	0.01519
1722.93023	0.01526
1721.64446	0.01539
1720.35869	0.01555
1719.07292	0.01568
1717.78715	0.01584
1716.50138	0.01608
1715.21561	0.01633
1713.92985	0.01653
1712.64408	0.01676
1711.35831	0.01711
1710.07254	0.01760
1708.78677	0.01817
1707.50100	0.01875
1706.21523	0.01937
1704.92946	0.02012
1703.64370	0.02092
1702.35793	0.02160
1701.07216	0.02225
1699.78639	0.02317
1698.50062	0.02428
1697.21485	0.02522
1695.92908	0.02601
1694.64331	0.02696
1693.35754	0.02807
1692.07178	0.02911
1690.78601	0.03010
1689.50024	0.03121
1688.21447	0.03239
1686.92870	0.03342
1685.64293	0.03425
1684.35716	0.03516
1683.07139	0.03632
1681.78563	0.03758
1680.49986	0.03879
1679.21409	0.04002
1677.92832	0.04124
1676.64255	0.04238
1675.35678	0.04351
1674.07101	0.04479
1672.78524	0.04613
1671.49947	0.04738
1670.21371	0.04855
1668.92794	0.04978
1667.64217	0.05111
1666.35640	0.05244
1665.07063	0.05369
1663.78486	0.05487
1662.49909	0.05608
1661.21332	0.05729
1659.92756	0.05843
1658.64179	0.05950
1657.35602	0.06056
1656.07025	0.06148
1654.78448	0.06207
1653.49871	0.06251
1652.21294	0.06315
1650.92717	0.06399
1649.64140	0.06463
1648.35564	0.06493
1647.06987	0.06514
1645.78410	0.06545
1644.49833	0.06585
1643.21256	0.06619
1641.92679	0.06645
1640.64102	0.06670
1639.35525	0.06695
1638.06949	0.06703
1636.78372	0.06687
1635.49795	0.06662
1634.21218	0.06646
1632.92641	0.06634
1631.64064	0.06610
1630.35487	0.06572
1629.06910	0.06522
1627.78333	0.06460
1626.49757	0.06385
1625.21180	0.06292
1623.92603	0.06188
1622.64026	0.06087
1621.35449	0.05994
1620.06872	0.05894
1618.78295	0.05772
1617.49718	0.05632
1616.21142	0.05496
1614.92565	0.05375
1613.63988	0.05256
1612.35411	0.05130
1611.06834	0.05004
1609.78257	0.04881
1608.49680	0.04761
1607.21103	0.04647
1605.92526	0.04544
1604.63950	0.04454
1603.35373	0.04374
1602.06796	0.04301
1600.78219	0.04231
1599.49642	0.04161
1598.21065	0.04094
1596.92488	0.04031
1595.63911	0.03975
1594.35335	0.03925
1593.06758	0.03879
1591.78181	0.03839
1590.49604	0.03806
1589.21027	0.03785
1587.92450	0.03775
1586.63873	0.03773
1585.35296	0.03772
1584.06719	0.03771
1582.78143	0.03775
1581.49566	0.03791
1580.20989	0.03818
1578.92412	0.03844
1577.63835	0.03857
1576.35258	0.03869
1575.06681	0.03905
1573.78104	0.03957
1572.49528	0.04003
1571.20951	0.04042
1569.92374	0.04089
1568.63797	0.04156
1567.35220	0.04233
1566.06643	0.04311
1564.78066	0.04395
1563.49489	0.04487
1562.20912	0.04568
1560.92336	0.04622
1559.63759	0.04664
1558.35182	0.04726
1557.06605	0.04805
1555.78028	0.04877
1554.49451	0.04940
1553.20874	0.05005
1551.92297	0.05070
1550.63721	0.05124
1549.35144	0.05167
1548.06567	0.05204
1546.77990	0.05240
1545.49413	0.05282
1544.20836	0.05334
1542.92259	0.05385
1541.63682	0.05413
1540.35105	0.05416
1539.06529	0.05416
1537.77952	0.05425
1536.49375	0.05433
1535.20798	0.05430
1533.92221	0.05421
1532.63644	0.05421
1531.35067	0.05423
1530.06490	0.05417
1528.77914	0.05403
1527.49337	0.05389
1526.20760	0.05378
1524.92183	0.05368
1523.63606	0.05347
1522.35029	0.05316
1521.06452	0.05290
1519.77875	0.05272
1518.49298	0.05245
1517.20722	0.05200
1515.92145	0.05151
1514.63568	0.05104
1513.34991	0.05058
1512.06414	0.05014
1510.77837	0.04972
1509.49260	0.04918
1508.20683	0.04839
1506.92107	0.04745
1505.63530	0.04659
1504.34953	0.04583
1503.06376	0.04501
1501.77799	0.04409
1500.49222	0.04319
1499.20645	0.04236
1497.92068	0.04154
1496.63491	0.04072
1495.34915	0.03997
1494.06338	0.03927
1492.77761	0.03852
1491.49184	0.03769
1490.20607	0.03684
1488.92030	0.03604
1487.63453	0.03530
1486.34876	0.03465
1485.06299	0.03410
1483.77723	0.03362
1482.49146	0.03322
1481.20569	0.03298
1479.91992	0.03291
1478.63415	0.03296
1477.34838	0.03307
1476.06261	0.03321
1474.77684	0.03336
1473.49108	0.03353
1472.20531	0.03383
1470.91954	0.03429
1469.63377	0.03479
1468.34800	0.03519
1467.06223	0.03545
1465.77646	0.03564
1464.49069	0.03586
1463.20492	0.03618
1461.91916	0.03660
1460.63339	0.03702
1459.34762	0.03734
1458.06185	0.03754
1456.77608	0.03778
1455.49031	0.03814
1454.20454	0.03848
1452.91877	0.03866
1451.63301	0.03868
1450.34724	0.03864
1449.06147	0.03857
1447.77570	0.03848
1446.48993	0.03839
1445.20416	0.03825
1443.91839	0.03805
1442.63262	0.03784
1441.34685	0.03769
1440.06109	0.03756
1438.77532	0.03734
1437.48955	0.03706
1436.20378	0.03684
1434.91801	0.03671
1433.63224	0.03653
1432.34647	0.03621
1431.06070	0.03582
1429.77494	0.03548
1428.48917	0.03526
1427.20340	0.03516
1425.91763	0.03514
1424.63186	0.03516
1423.34609	0.03522
1422.06032	0.03523
1420.77455	0.03514
1419.48878	0.03503
1418.20302	0.03500
1416.91725	0.03498
1415.63148	0.03489
1414.34571	0.03476
1413.05994	0.03468
1411.77417	0.03469
1410.48840	0.03478
1409.20263	0.03486
1407.91687	0.03489
1406.63110	0.03485
1405.34533	0.03482
1404.05956	0.03486
1402.77379	0.03495
1401.48802	0.03500
1400.20225	0.03499
1398.91648	0.03494
1397.63071	0.03487
1396.34495	0.03478
1395.05918	0.03471
1393.77341	0.03471
1392.48764	0.03476
1391.20187	0.03474
1389.91610	0.03461
1388.63033	0.03438
1387.34456	0.03414
1386.05880	0.03395
1384.77303	0.03382
1383.48726	0.03373
1382.20149	0.03366
1380.91572	0.03360
1379.62995	0.03350
1378.34418	0.03335
1377.05841	0.03313
1375.77264	0.03285
1374.48688	0.03254
1373.20111	0.03224
1371.91534	0.03199
1370.62957	0.03179
1369.34380	0.03159
1368.05803	0.03137
1366.77226	0.03112
1365.48649	0.03083
1364.20073	0.03052
1362.91496	0.03022
1361.62919	0.02996
1360.34342	0.02974
1359.05765	0.02956
1357.77188	0.02942
1356.48611	0.02932
1355.20034	0.02923
1353.91457	0.02915
1352.62881	0.02913
1351.34304	0.02919
1350.05727	0.02931
1348.77150	0.02944
1347.48573	0.02955
1346.19996	0.02965
1344.91419	0.02978
1343.62842	0.02995
1342.34266	0.03013
1341.05689	0.03026
1339.77112	0.03036
1338.48535	0.03045
1337.19958	0.03052
1335.91381	0.03056
1334.62804	0.03054
1333.34227	0.03047
1332.05650	0.03038
1330.77074	0.03030
1329.48497	0.03020
1328.19920	0.03010
1326.91343	0.03000
1325.62766	0.02991
1324.34189	0.02985
1323.05612	0.02982
1321.77035	0.02979
1320.48459	0.02977
1319.19882	0.02977
1317.91305	0.02980
1316.62728	0.02982
1315.34151	0.02980
1314.05574	0.02975
1312.76997	0.02969
1311.48420	0.02963
1310.19843	0.02958
1308.91267	0.02954
1307.62690	0.02953
1306.34113	0.02954
1305.05536	0.02951
1303.76959	0.02943
1302.48382	0.02932
1301.19805	0.02924
1299.91228	0.02921
1298.62652	0.02920
1297.34075	0.02918
1296.05498	0.02916
1294.76921	0.02917
1293.48344	0.02923
1292.19767	0.02935
1290.91190	0.02950
1289.62613	0.02966
1288.34036	0.02984
1287.05460	0.03000
1285.76883	0.03015
1284.48306	0.03029
1283.19729	0.03043
1281.91152	0.03058
1280.62575	0.03074
1279.33998	0.03091
1278.05421	0.03105
1276.76845	0.03115
1275.48268	0.03121
1274.19691	0.03124
1272.91114	0.03128
1271.62537	0.03134
1270.33960	0.03144
1269.05383	0.03160
1267.76806	0.03181
1266.48229	0.03204
1265.19653	0.03226
1263.91076	0.03247
1262.62499	0.03267
1261.33922	0.03286
1260.05345	0.03306
1258.76768	0.03327
1257.48191	0.03351
1256.19614	0.03378
1254.91037	0.03409
1253.62461	0.03441
1252.33884	0.03472
1251.05307	0.03502
1249.76730	0.03533
1248.48153	0.03565
1247.19576	0.03599
1245.90999	0.03633
1244.62422	0.03667
1243.33846	0.03696
1242.05269	0.03719
1240.76692	0.03739
1239.48115	0.03759
1238.19538	0.03781
1236.90961	0.03804
1235.62384	0.03820
1234.33807	0.03826
1233.05230	0.03820
1231.76654	0.03808
1230.48077	0.03795
1229.19500	0.03781
1227.90923	0.03765
1226.62346	0.03746
1225.33769	0.03725
1224.05192	0.03700
1222.76615	0.03671
1221.48039	0.03638
1220.19462	0.03606
1218.90885	0.03579
1217.62308	0.03559
1216.33731	0.03544
1215.05154	0.03529
1213.76577	0.03512
1212.48000	0.03493
1211.19423	0.03476
1209.90847	0.03467
1208.62270	0.03466
1207.33693	0.03474
1206.05116	0.03482
1204.76539	0.03484
1203.47962	0.03477
1202.19385	0.03463
1200.90808	0.03443
1199.62232	0.03422
1198.33655	0.03401
1197.05078	0.03379
1195.76501	0.03359
1194.47924	0.03340
1193.19347	0.03322
1191.90770	0.03305
1190.62193	0.03294
1189.33616	0.03290
1188.05040	0.03288
1186.76463	0.03281
1185.47886	0.03267
1184.19309	0.03253
1182.90732	0.03244
1181.62155	0.03244
1180.33578	0.03247
1179.05001	0.03252
1177.76425	0.03257
1176.47848	0.03263
1175.19271	0.03271
1173.90694	0.03283
1172.62117	0.03299
1171.33540	0.03319
1170.04963	0.03342
1168.76386	0.03365
1167.47809	0.03388
1166.19233	0.03407
1164.90656	0.03420
1163.62079	0.03430
1162.33502	0.03441
1161.04925	0.03455
1159.76348	0.03468
1158.47771	0.03476
1157.19194	0.03479
1155.90618	0.03483
1154.62041	0.03489
1153.33464	0.03500
1152.04887	0.03511
1150.76310	0.03518
1149.47733	0.03521
1148.19156	0.03520
1146.90579	0.03520
1145.62002	0.03520
1144.33426	0.03521
1143.04849	0.03523
1141.76272	0.03524
1140.47695	0.03523
1139.19118	0.03521
1137.90541	0.03525
1136.61964	0.03538
1135.33387	0.03560
1134.04811	0.03592
1132.76234	0.03634
1131.47657	0.03682
1130.19080	0.03727
1128.90503	0.03764
1127.61926	0.03794
1126.33349	0.03826
1125.04772	0.03866
1123.76195	0.03917
1122.47619	0.03978
1121.19042	0.04044
1119.90465	0.04112
1118.61888	0.04178
1117.33311	0.04238
1116.04734	0.04294
1114.76157	0.04350
1113.47580	0.04414
1112.19004	0.04486
1110.90427	0.04561
1109.61850	0.04629
1108.33273	0.04689
1107.04696	0.04746
1105.76119	0.04804
1104.47542	0.04865
1103.18965	0.04924
1101.90388	0.04979
1100.61812	0.05027
1099.33235	0.05065
1098.04658	0.05093
1096.76081	0.05118
1095.47504	0.05145
1094.18927	0.05175
1092.90350	0.05203
1091.61773	0.05224
1090.33197	0.05232
1089.04620	0.05231
1087.76043	0.05226
1086.47466	0.05226
1085.18889	0.05239
1083.90312	0.05266
1082.61735	0.05304
1081.33158	0.05347
1080.04581	0.05393
1078.76005	0.05440
1077.47428	0.05486
1076.18851	0.05527
1074.90274	0.05562
1073.61697	0.05592
1072.33120	0.05623
1071.04543	0.05654
1069.75966	0.05685
1068.47390	0.05714
1067.18813	0.05745
1065.90236	0.05774
1064.61659	0.05801
1063.33082	0.05824
1062.04505	0.05849
1060.75928	0.05881
1059.47351	0.05919
1058.18774	0.05959
1056.90198	0.05998
1055.61621	0.06035
1054.33044	0.06071
1053.04467	0.06104
1051.75890	0.06136
1050.47313	0.06167
1049.18736	0.06199
1047.90159	0.06231
1046.61583	0.06263
1045.33006	0.06302
1044.04429	0.06349
1042.75852	0.06404
1041.47275	0.06463
1040.18698	0.06520
1038.90121	0.06574
1037.61544	0.06626
1036.32967	0.06680
1035.04391	0.06737
1033.75814	0.06796
1032.47237	0.06850
1031.18660	0.06888
1029.90083	0.06902
1028.61506	0.06889
1027.32929	0.06854
1026.04352	0.06804
1024.75775	0.06745
1023.47199	0.06676
1022.18622	0.06595
1020.90045	0.06498
1019.61468	0.06391
1018.32891	0.06279
1017.04314	0.06162
1015.75737	0.06043
1014.47160	0.05929
1013.18584	0.05827
1011.90007	0.05735
1010.61430	0.05646
1009.32853	0.05554
1008.04276	0.05463
1006.75699	0.05373
1005.47122	0.05286
1004.18545	0.05204
1002.89968	0.05129
1001.61392	0.05065
1000.32815	0.05008
999.04238	0.04953
997.75661	0.04898
996.47084	0.04840
995.18507	0.04780
993.89930	0.04716
992.61353	0.04655
991.32777	0.04602
990.04200	0.04564
988.75623	0.04539
987.47046	0.04520
986.18469	0.04495
984.89892	0.04463
983.61315	0.04429
982.32738	0.04402
981.04161	0.04382
979.75585	0.04362
978.47008	0.04337
977.18431	0.04313
975.89854	0.04293
974.61277	0.04279
973.32700	0.04266
972.04123	0.04253
970.75546	0.04246
969.46970	0.04252
968.18393	0.04271
966.89816	0.04298
965.61239	0.04318
964.32662	0.04320
963.04085	0.04301
961.75508	0.04272
960.46931	0.04244
959.18354	0.04218
957.89778	0.04188
956.61201	0.04147
955.32624	0.04099
954.04047	0.04048
952.75470	0.03996
951.46893	0.03940
950.18316	0.03884
948.89739	0.03835
947.61163	0.03804
946.32586	0.03789
945.04009	0.03779
943.75432	0.03758
942.46855	0.03723
941.18278	0.03681
939.89701	0.03643
938.61124	0.03611
937.32547	0.03580
936.03971	0.03545
934.75394	0.03507
933.46817	0.03469
932.18240	0.03431
930.89663	0.03393
929.61086	0.03356
928.32509	0.03322
927.03932	0.03294
925.75356	0.03270
924.46779	0.03246
923.18202	0.03219
921.89625	0.03193
920.61048	0.03172
919.32471	0.03152
918.03894	0.03130
916.75317	0.03104
915.46740	0.03077
914.18164	0.03054
912.89587	0.03034
911.61010	0.03010
910.32433	0.02979
909.03856	0.02943
907.75279	0.02909
906.46702	0.02886
905.18125	0.02873
903.89549	0.02866
902.60972	0.02861
901.32395	0.02859
900.03818	0.02860
898.75241	0.02865
897.46664	0.02866
896.18087	0.02858
894.89510	0.02842
893.60933	0.02823
892.32357	0.02805
891.03780	0.02790
889.75203	0.02779
888.46626	0.02774
887.18049	0.02774
885.89472	0.02780
884.60895	0.02787
883.32318	0.02790
882.03742	0.02786
880.75165	0.02780
879.46588	0.02776
878.18011	0.02774
876.89434	0.02770
875.60857	0.02762
874.32280	0.02749
873.03703	0.02735
871.75126	0.02722
870.46550	0.02712
869.17973	0.02704
867.89396	0.02694
866.60819	0.02681
865.32242	0.02671
864.03665	0.02671
862.75088	0.02679
861.46511	0.02685
860.17935	0.02679
858.89358	0.02658
857.60781	0.02633
856.32204	0.02612
855.03627	0.02595
853.75050	0.02579
852.46473	0.02562
851.17896	0.02549
849.89319	0.02543
848.60743	0.02540
847.32166	0.02531
846.03589	0.02514
844.75012	0.02492
843.46435	0.02472
842.17858	0.02458
840.89281	0.02452
839.60704	0.02448
838.32128	0.02439
837.03551	0.02424
835.74974	0.02407
834.46397	0.02394
833.17820	0.02388
831.89243	0.02386
830.60666	0.02386
829.32089	0.02386
828.03512	0.02381
826.74936	0.02374
825.46359	0.02371
824.17782	0.02370
822.89205	0.02364
821.60628	0.02348
820.32051	0.02327
819.03474	0.02310
817.74897	0.02299
816.46321	0.02293
815.17744	0.02293
813.89167	0.02299
812.60590	0.02307
811.32013	0.02314
810.03436	0.02315
808.74859	0.02314
807.46282	0.02312
806.17705	0.02310
804.89129	0.02308
803.60552	0.02306
802.31975	0.02310
801.03398	0.02319
799.74821	0.02326
798.46244	0.02324
797.17667	0.02317
795.89090	0.02312
794.60513	0.02315
793.31937	0.02318
792.03360	0.02318
790.74783	0.02313
789.46206	0.02309
788.17629	0.02306
786.89052	0.02306
785.60475	0.02308
784.31898	0.02308
783.03322	0.02302
781.74745	0.02294
780.46168	0.02291
779.17591	0.02293
777.89014	0.02296
776.60437	0.02294
775.31860	0.02292
774.03283	0.02297
772.74706	0.02307
771.46130	0.02317
770.17553	0.02321
768.88976	0.02323
767.60399	0.02328
766.31822	0.02337
765.03245	0.02350
763.74668	0.02365
762.46091	0.02381
761.17515	0.02393
759.88938	0.02395
758.60361	0.02388
757.31784	0.02383
756.03207	0.02384
754.74630	0.02392
753.46053	0.02400
752.17476	0.02406
750.88899	0.02408
749.60323	0.02404
748.31746	0.02397
747.03169	0.02397
745.74592	0.02409
744.46015	0.02427
743.17438	0.02437
741.88861	0.02435
740.60284	0.02427
739.31708	0.02419
738.03131	0.02415
736.74554	0.02415
735.45977	0.02414
734.17400	0.02407
732.88823	0.02403
731.60246	0.02409
730.31669	0.02423
729.03092	0.02441
727.74516	0.02459
726.45939	0.02476
725.17362	0.02489
723.88785	0.02496
722.60208	0.02505
721.31631	0.02514
720.03054	0.02520
718.74477	0.02521
717.45901	0.02519
716.17324	0.02516
714.88747	0.02516
713.60170	0.02520
712.31593	0.02526
711.03016	0.02535
709.74439	0.02543
708.45862	0.02551
707.17285	0.02558
705.88709	0.02567
704.60132	0.02577
703.31555	0.02586
702.02978	0.02594
700.74401	0.02600
699.45824	0.02606
698.17247	0.02612
696.88670	0.02617
695.60094	0.02620
694.31517	0.02620
693.02940	0.02620
691.74363	0.02619
690.45786	0.02618
689.17209	0.02619
687.88632	0.02623
686.60055	0.02631
685.31478	0.02639
684.02902	0.02645
682.74325	0.02644
681.45748	0.02636
680.17171	0.02622
678.88594	0.02611
677.60017	0.02608
676.31440	0.02614
675.02863	0.02624
673.74287	0.02634
672.45710	0.02644
671.17133	0.02653
669.88556	0.02659
668.59979	0.02662
667.31402	0.02661
666.02825	0.02660
664.74248	0.02659
663.45671	0.02659
662.17095	0.02661
660.88518	0.02664
659.59941	0.02667
658.31364	0.02668
657.02787	0.02668
655.74210	0.02670
654.45633	0.02673
653.17056	0.02675
651.88480	0.02674
650.59903	0.02673
649.31326	0.02674
648.02749	0.02677
646.74172	0.02680
645.45595	0.02681
644.17018	0.02677
642.88441	0.02673
641.59864	0.02667
640.31288	0.02659
639.02711	0.02649
637.74134	0.02638
636.45557	0.02630
635.16980	0.02628
633.88403	0.02632
632.59826	0.02643
631.31249	0.02660
630.02673	0.02688
628.74096	0.02728
627.45519	0.02725
626.16942	0.02747
624.88365	0.02803
623.59788	0.02895
622.31211	0.03010
621.02634	0.03088
619.74057	0.03071
618.45481	0.02977
617.16904	0.02878
615.88327	0.02829
614.59750	0.02829
613.31173	0.02865
612.02596	0.02967
610.74019	0.03196
609.45442	0.03530
608.16866	0.03830
606.88289	0.03965
605.59712	0.03925
604.31135	0.03795
603.02558	0.03668
601.73981	0.03594
600.45404	0.03575
599.16827	0.03586
597.88250	0.03594
596.59674	0.03579
595.31097	0.03535
594.02520	0.03478
592.73943	0.03431
591.45366	0.03404
590.16789	0.03395
588.88212	0.03391
587.59635	0.03384
586.31059	0.03377
585.02482	0.03378
583.73905	0.03398
582.45328	0.03444
581.16751	0.03518
579.88174	0.03609
578.59597	0.03698
577.31020	0.03767
576.02443	0.03810
574.73867	0.03837
573.45290	0.03866
572.16713	0.03910
570.88136	0.03971
569.59559	0.04042
568.30982	0.04112
567.02405	0.04173
565.73828	0.04220
564.45251	0.04252
563.16675	0.04269
561.88098	0.04271
560.59521	0.04255
559.30944	0.04223
558.02367	0.04174
556.73790	0.04113
555.45213	0.04046
554.16636	0.03986
552.88060	0.03944
551.59483	0.03919
550.30906	0.03901
549.02329	0.03881
547.73752	0.03858
546.45175	0.03832
545.16598	0.03804
543.88021	0.03775
542.59444	0.03746
541.30868	0.03721
540.02291	0.03703
538.73714	0.03695
537.45137	0.03692
536.16560	0.03685
534.87983	0.03673
533.59406	0.03662
532.30829	0.03658
531.02253	0.03659
529.73676	0.03662
528.45099	0.03660
527.16522	0.03653
525.87945	0.03642
524.59368	0.03634
523.30791	0.03629
522.02214	0.03621
520.73637	0.03605
519.45061	0.03583
518.16484	0.03562
516.87907	0.03546
515.59330	0.03534
514.30753	0.03519
513.02176	0.03506
511.73599	0.03502
510.45022	0.03508
509.16446	0.03510
507.87869	0.03490
506.59292	0.03446
505.30715	0.03394
504.02138	0.03354
502.73561	0.03327
501.44984	0.03308
500.16407	0.03286
498.87830	0.03256
497.59254	0.03224
496.30677	0.03194
495.02100	0.03168
493.73523	0.03140
492.44946	0.03108
491.16369	0.03071
489.87792	0.03033
488.59215	0.03000
487.30639	0.02974
486.02062	0.02953
484.73485	0.02934
483.44908	0.02916
482.16331	0.02896
480.87754	0.02871
479.59177	0.02843
478.30600	0.02816
477.02023	0.02797
475.73447	0.02784
474.44870	0.02773
473.16293	0.02760
471.87716	0.02745
470.59139	0.02735
469.30562	0.02732
468.01985	0.02733
466.73408	0.02729
465.44832	0.02713
464.16255	0.02684
462.87678	0.02648
461.59101	0.02613
460.30524	0.02580
459.01947	0.02551
457.73370	0.02524
456.44793	0.02505
455.16216	0.02497
453.87640	0.02497
452.59063	0.02499
451.30486	0.02494
450.01909	0.02480
448.73332	0.02461
447.44755	0.02443
446.16178	0.02425
444.87601	0.02407
443.59025	0.02389
442.30448	0.02377
441.01871	0.02370
439.73294	0.02365
438.44717	0.02356
437.16140	0.02347
435.87563	0.02340
434.58986	0.02335
433.30409	0.02326
432.01833	0.02311
430.73256	0.02294
429.44679	0.02279
428.16102	0.02269
426.87525	0.02258
425.58948	0.02247
424.30371	0.02236
423.01794	0.02229
421.73218	0.02223
420.44641	0.02215
419.16064	0.02206
417.87487	0.02198
416.58910	0.02189
415.30333	0.02180
414.01756	0.02173
412.73179	0.02167
411.44602	0.02161
410.16026	0.02154
408.87449	0.02147
407.58872	0.02138
406.30295	0.02126
405.01718	0.02108
403.73141	0.02091
402.44564	0.02078
401.15987	0.02073
399.87411	0.02070
