3997.45528	0.04737
3996.16951	0.04706
3994.88374	0.04693
3993.59798	0.04704
3992.31221	0.04727
3991.02644	0.04753
3989.74067	0.04784
3988.45490	0.04815
3987.16913	0.04842
3985.88336	0.04873
3984.59759	0.04904
3983.31183	0.04919
3982.02606	0.04909
3980.74029	0.04893
3979.45452	0.04890
3978.16875	0.04889
3976.88298	0.04863
3975.59721	0.04811
3974.31144	0.04754
3973.02567	0.04711
3971.73991	0.04698
3970.45414	0.04729
3969.16837	0.04804
3967.88260	0.04890
3966.59683	0.04938
3965.31106	0.04917
3964.02529	0.04830
3962.73952	0.04701
3961.45376	0.04567
3960.16799	0.04464
3958.88222	0.04416
3957.59645	0.04422
3956.31068	0.04458
3955.02491	0.04498
3953.73914	0.04522
3952.45337	0.04534
3951.16760	0.04548
3949.88184	0.04583
3948.59607	0.04637
3947.31030	0.04689
3946.02453	0.04713
3944.73876	0.04708
3943.45299	0.04699
3942.16722	0.04703
3940.88145	0.04705
3939.59569	0.04682
3938.30992	0.04645
3937.02415	0.04618
3935.73838	0.04603
3934.45261	0.04582
3933.16684	0.04554
3931.88107	0.04549
3930.59530	0.04587
3929.30953	0.04642
3928.02377	0.04670
3926.73800	0.04653
3925.45223	0.04619
3924.16646	0.04604
3922.88069	0.04605
3921.59492	0.04593
3920.30915	0.04554
3919.02338	0.04501
3917.73762	0.04458
3916.45185	0.04441
3915.16608	0.04446
3913.88031	0.04463
3912.59454	0.04487
3911.30877	0.04519
3910.02300	0.04549
3908.73723	0.04561
3907.45146	0.04552
3906.16570	0.04537
3904.87993	0.04543
3903.59416	0.04583
3902.30839	0.04629
3901.02262	0.04642
3899.73685	0.04611
3898.45108	0.04564
3897.16531	0.04528
3895.87955	0.04511
3894.59378	0.04513
3893.30801	0.04528
3892.02224	0.04552
3890.73647	0.04588
3889.45070	0.04616
3888.16493	0.04597
3886.87916	0.04537
3885.59339	0.04491
3884.30763	0.04482
3883.02186	0.04481
3881.73609	0.04467
3880.45032	0.04464
3879.16455	0.04490
3877.87878	0.04525
3876.59301	0.04549
3875.30724	0.04579
3874.02148	0.04624
3872.73571	0.04646
3871.44994	0.04609
3870.16417	0.04550
3868.87840	0.04523
3867.59263	0.04509
3866.30686	0.04468
3865.02109	0.04421
3863.73532	0.04408
3862.44956	0.04423
3861.16379	0.04446
3859.87802	0.04472
3858.59225	0.04495
3857.30648	0.04489
3856.02071	0.04427
3854.73494	0.04335
3853.44917	0.04292
3852.16341	0.04326
3850.87764	0.04381
3849.59187	0.04404
3848.30610	0.04393
3847.02033	0.04368
3845.73456	0.04346
3844.44879	0.04338
3843.16302	0.04347
3841.87725	0.04351
3840.59149	0.04317
3839.30572	0.04245
3838.01995	0.04187
3836.73418	0.04188
3835.44841	0.04225
3834.16264	0.04250
3832.87687	0.04252
3831.59110	0.04246
3830.30534	0.04250
3829.01957	0.04271
3827.73380	0.04312
3826.44803	0.04370
3825.16226	0.04419
3823.87649	0.04413
3822.59072	0.04349
3821.30495	0.04296
3820.01918	0.04306
3818.73342	0.04339
3817.44765	0.04341
3816.16188	0.04333
3814.87611	0.04352
3813.59034	0.04372
3812.30457	0.04366
3811.01880	0.04353
3809.73303	0.04330
3808.44726	0.04276
3807.16150	0.04220
3805.87573	0.04209
3804.58996	0.04228
3803.30419	0.04241
3802.01842	0.04270
3800.73265	0.04349
3799.44688	0.04421
3798.16111	0.04418
3796.87535	0.04372
3795.58958	0.04364
3794.30381	0.04395
3793.01804	0.04402
3791.73227	0.04350
3790.44650	0.04261
3789.16073	0.04187
3787.87496	0.04166
3786.58919	0.04182
3785.30343	0.04185
3784.01766	0.04143
3782.73189	0.04074
3781.44612	0.04022
3780.16035	0.04017
3778.87458	0.04053
3777.58881	0.04096
3776.30304	0.04120
3775.01728	0.04124
3773.73151	0.04116
3772.44574	0.04095
3771.15997	0.04067
3769.87420	0.04057
3768.58843	0.04076
3767.30266	0.04113
3766.01689	0.04164
3764.73112	0.04226
3763.44536	0.04271
3762.15959	0.04264
3760.87382	0.04208
3759.58805	0.04146
3758.30228	0.04101
3757.01651	0.04075
3755.73074	0.04057
3754.44497	0.04038
3753.15921	0.04038
3751.87344	0.04077
3750.58767	0.04140
3749.30190	0.04198
3748.01613	0.04221
3746.73036	0.04160
3745.44459	0.04038
3744.15882	0.03978
3742.87305	0.04027
3741.58729	0.04099
3740.30152	0.04125
3739.01575	0.04107
3737.72998	0.04069
3736.44421	0.04041
3735.15844	0.04041
3733.87267	0.04052
3732.58690	0.04065
3731.30114	0.04087
3730.01537	0.04097
3728.72960	0.04054
3727.44383	0.03983
3726.15806	0.03951
3724.87229	0.03976
3723.58652	0.04009
3722.30075	0.04006
3721.01498	0.03965
3719.72922	0.03907
3718.44345	0.03859
3717.15768	0.03845
3715.87191	0.03863
3714.58614	0.03886
3713.30037	0.03910
3712.01460	0.03965
3710.72883	0.04064
3709.44307	0.04166
3708.15730	0.04215
3706.87153	0.04194
3705.58576	0.04124
3704.29999	0.04040
3703.01422	0.03971
3701.72845	0.03933
3700.44268	0.03926
3699.15691	0.03924
3697.87115	0.03910
3696.58538	0.03898
3695.29961	0.03906
3694.01384	0.03934
3692.72807	0.03967
3691.44230	0.03976
3690.15653	0.03947
3688.87076	0.03920
3687.58500	0.03941
3686.29923	0.03988
3685.01346	0.04008
3683.72769	0.03996
3682.44192	0.03974
3681.15615	0.03965
3679.87038	0.03984
3678.58461	0.04019
3677.29884	0.04042
3676.01308	0.04061
3674.72731	0.04102
3673.44154	0.04134
3672.15577	0.04098
3670.87000	0.04022
3669.58423	0.03984
3668.29846	0.03995
3667.01269	0.04013
3665.72693	0.04017
3664.44116	0.04015
3663.15539	0.04015
3661.86962	0.04020
3660.58385	0.04036
3659.29808	0.04060
3658.01231	0.04089
3656.72654	0.04137
3655.44077	0.04220
3654.15501	0.04305
3652.86924	0.04330
3651.58347	0.04279
3650.29770	0.04212
3649.01193	0.04197
3647.72616	0.04250
3646.44039	0.04343
3645.15462	0.04439
3643.86886	0.04520
3642.58309	0.04577
3641.29732	0.04607
3640.01155	0.04613
3638.72578	0.04615
3637.44001	0.04630
3636.15424	0.04657
3634.86847	0.04692
3633.58270	0.04743
3632.29694	0.04796
3631.01117	0.04827
3629.72540	0.04846
3628.43963	0.04887
3627.15386	0.04943
3625.86809	0.04972
3624.58232	0.04972
3623.29655	0.04979
3622.01079	0.04996
3620.72502	0.05006
3619.43925	0.05013
3618.15348	0.05038
3616.86771	0.05086
3615.58194	0.05137
3614.29617	0.05174
3613.01040	0.05199
3611.72463	0.05209
3610.43887	0.05204
3609.15310	0.05199
3607.86733	0.05218
3606.58156	0.05267
3605.29579	0.05336
3604.01002	0.05415
3602.72425	0.05499
3601.43848	0.05586
3600.15272	0.05677
3598.86695	0.05758
3597.58118	0.05810
3596.29541	0.05830
3595.00964	0.05844
3593.72387	0.05876
3592.43810	0.05929
3591.15233	0.05981
3589.86656	0.06011
3588.58080	0.06033
3587.29503	0.06077
3586.00926	0.06148
3584.72349	0.06217
3583.43772	0.06265
3582.15195	0.06298
3580.86618	0.06332
3579.58041	0.06375
3578.29464	0.06426
3577.00888	0.06482
3575.72311	0.06541
3574.43734	0.06599
3573.15157	0.06652
3571.86580	0.06707
3570.58003	0.06765
3569.29426	0.06817
3568.00849	0.06855
3566.72273	0.06879
3565.43696	0.06902
3564.15119	0.06934
3562.86542	0.06984
3561.57965	0.07041
3560.29388	0.07079
3559.00811	0.07085
3557.72234	0.07075
3556.43657	0.07081
3555.15081	0.07127
3553.86504	0.07204
3552.57927	0.07292
3551.29350	0.07374
3550.00773	0.07448
3548.72196	0.07517
3547.43619	0.07585
3546.15042	0.07657
3544.86466	0.07732
3543.57889	0.07792
3542.29312	0.07810
3541.00735	0.07779
3539.72158	0.07726
3538.43581	0.07695
3537.15004	0.07714
3535.86427	0.07780
3534.57850	0.07868
3533.29274	0.07959
3532.00697	0.08044
3530.72120	0.08121
3529.43543	0.08179
3528.14966	0.08214
3526.86389	0.08235
3525.57812	0.08252
3524.29235	0.08269
3523.00659	0.08284
3521.72082	0.08292
3520.43505	0.08303
3519.14928	0.08331
3517.86351	0.08382
3516.57774	0.08440
3515.29197	0.08489
3514.00620	0.08537
3512.72043	0.08606
3511.43467	0.08702
3510.14890	0.08807
3508.86313	0.08889
3507.57736	0.08927
3506.29159	0.08919
3505.00582	0.08890
3503.72005	0.08880
3502.43428	0.08909
3501.14852	0.08963
3499.86275	0.09012
3498.57698	0.09046
3497.29121	0.09084
3496.00544	0.09148
3494.71967	0.09240
3493.43390	0.09337
3492.14813	0.09412
3490.86236	0.09450
3489.57660	0.09460
3488.29083	0.09466
3487.00506	0.09485
3485.71929	0.09511
3484.43352	0.09523
3483.14775	0.09522
3481.86198	0.09537
3480.57621	0.09594
3479.29045	0.09683
3478.00468	0.09773
3476.71891	0.09847
3475.43314	0.09904
3474.14737	0.09934
3472.86160	0.09926
3471.57583	0.09890
3470.29006	0.09869
3469.00429	0.09901
3467.71853	0.09984
3466.43276	0.10083
3465.14699	0.10168
3463.86122	0.10238
3462.57545	0.10297
3461.28968	0.10344
3460.00391	0.10375
3458.71814	0.10392
3457.43238	0.10401
3456.14661	0.10401
3454.86084	0.10387
3453.57507	0.10369
3452.28930	0.10360
3451.00353	0.10377
3449.71776	0.10428
3448.43199	0.10506
3447.14622	0.10590
3445.86046	0.10651
3444.57469	0.10673
3443.28892	0.10671
3442.00315	0.10684
3440.71738	0.10732
3439.43161	0.10800
3438.14584	0.10852
3436.86007	0.10864
3435.57431	0.10849
3434.28854	0.10843
3433.00277	0.10875
3431.71700	0.10941
3430.43123	0.11010
3429.14546	0.11067
3427.85969	0.11120
3426.57392	0.11183
3425.28815	0.11246
3424.00239	0.11281
3422.71662	0.11273
3421.43085	0.11248
3420.14508	0.11249
3418.85931	0.11302
3417.57354	0.11397
3416.28777	0.11505
3415.00200	0.11595
3413.71624	0.11653
3412.43047	0.11680
3411.14470	0.11694
3409.85893	0.11711
3408.57316	0.11732
3407.28739	0.11749
3406.00162	0.11764
3404.71585	0.11797
3403.43008	0.11866
3402.14432	0.11965
3400.85855	0.12064
3399.57278	0.12136
3398.28701	0.12174
3397.00124	0.12192
3395.71547	0.12202
3394.42970	0.12209
3393.14393	0.12220
3391.85817	0.12244
3390.57240	0.12286
3389.28663	0.12343
3388.00086	0.12408
3386.71509	0.12468
3385.42932	0.12515
3384.14355	0.12547
3382.85778	0.12569
3381.57201	0.12599
3380.28625	0.12650
3379.00048	0.12716
3377.71471	0.12766
3376.42894	0.12779
3375.14317	0.12763
3373.85740	0.12758
3372.57163	0.12796
3371.28586	0.12883
3370.00010	0.13002
3368.71433	0.13128
3367.42856	0.13238
3366.14279	0.13318
3364.85702	0.13363
3363.57125	0.13375
3362.28548	0.13368
3360.99971	0.13361
3359.71394	0.13382
3358.42818	0.13453
3357.14241	0.13567
3355.85664	0.13689
3354.57087	0.13790
3353.28510	0.13866
3351.99933	0.13928
3350.71356	0.13980
3349.42779	0.14021
3348.14202	0.14056
3346.85626	0.14100
3345.57049	0.14162
3344.28472	0.14242
3342.99895	0.14333
3341.71318	0.14424
3340.42741	0.14506
3339.14164	0.14571
3337.85587	0.14617
3336.57011	0.14657
3335.28434	0.14705
3333.99857	0.14764
3332.71280	0.14824
3331.42703	0.14876
3330.14126	0.14923
3328.85549	0.14973
3327.56972	0.15024
3326.28395	0.15070
3324.99819	0.15111
3323.71242	0.15158
3322.42665	0.15213
3321.14088	0.15270
3319.85511	0.15321
3318.56934	0.15367
3317.28357	0.15416
3315.99780	0.15472
3314.71204	0.15530
3313.42627	0.15584
3312.14050	0.15637
3310.85473	0.15700
3309.56896	0.15783
3308.28319	0.15883
3306.99742	0.15981
3305.71165	0.16053
3304.42588	0.16097
3303.14012	0.16129
3301.85435	0.16175
3300.56858	0.16236
3299.28281	0.16293
3297.99704	0.16316
3296.71127	0.16296
3295.42550	0.16251
3294.13973	0.16216
3292.85397	0.16216
3291.56820	0.16251
3290.28243	0.16298
3288.99666	0.16336
3287.71089	0.16359
3286.42512	0.16376
3285.13935	0.16394
3283.85358	0.16406
3282.56781	0.16403
3281.28205	0.16389
3279.99628	0.16382
3278.71051	0.16389
3277.42474	0.16401
3276.13897	0.16402
3274.85320	0.16390
3273.56743	0.16372
3272.28166	0.16355
3270.99590	0.16334
3269.71013	0.16302
3268.42436	0.16256
3267.13859	0.16201
3265.85282	0.16145
3264.56705	0.16097
3263.28128	0.16062
3261.99551	0.16036
3260.70974	0.16008
3259.42398	0.15966
3258.13821	0.15911
3256.85244	0.15851
3255.56667	0.15795
3254.28090	0.15755
3252.99513	0.15735
3251.70936	0.15738
3250.42359	0.15754
3249.13783	0.15764
3247.85206	0.15740
3246.56629	0.15670
3245.28052	0.15570
3243.99475	0.15470
3242.70898	0.15394
3241.42321	0.15340
3240.13744	0.15298
3238.85167	0.15258
3237.56591	0.15220
3236.28014	0.15193
3234.99437	0.15187
3233.70860	0.15194
3232.42283	0.15195
3231.13706	0.15172
3229.85129	0.15132
3228.56552	0.15088
3227.27976	0.15046
3225.99399	0.14999
3224.70822	0.14945
3223.42245	0.14890
3222.13668	0.14848
3220.85091	0.14829
3219.56514	0.14826
3218.27937	0.14812
3216.99360	0.14766
3215.70784	0.14698
3214.42207	0.14645
3213.13630	0.14634
3211.85053	0.14657
3210.56476	0.14690
3209.27899	0.14708
3207.99322	0.14692
3206.70745	0.14635
3205.42169	0.14548
3204.13592	0.14467
3202.85015	0.14423
3201.56438	0.14420
3200.27861	0.14429
3198.99284	0.14424
3197.70707	0.14397
3196.42130	0.14351
3195.13553	0.14296
3193.84977	0.14245
3192.56400	0.14213
3191.27823	0.14204
3189.99246	0.14202
3188.70669	0.14190
3187.42092	0.14163
3186.13515	0.14119
3184.84938	0.14057
3183.56362	0.13969
3182.27785	0.13860
3180.99208	0.13755
3179.70631	0.13687
3178.42054	0.13666
3177.13477	0.13669
3175.84900	0.13660
3174.56323	0.13627
3173.27746	0.13594
3171.99170	0.13584
3170.70593	0.13584
3169.42016	0.13559
3168.13439	0.13492
3166.84862	0.13407
3165.56285	0.13335
3164.27708	0.13283
3162.99131	0.13233
3161.70555	0.13173
3160.41978	0.13111
3159.13401	0.13056
3157.84824	0.13011
3156.56247	0.12967
3155.27670	0.12919
3153.99093	0.12868
3152.70516	0.12816
3151.41939	0.12768
3150.13363	0.12730
3148.84786	0.12712
3147.56209	0.12716
3146.27632	0.12731
3144.99055	0.12733
3143.70478	0.12707
3142.41901	0.12658
3141.13324	0.12600
3139.84748	0.12543
3138.56171	0.12491
3137.27594	0.12442
3135.99017	0.12399
3134.70440	0.12364
3133.41863	0.12338
3132.13286	0.12319
3130.84709	0.12298
3129.56132	0.12268
3128.27556	0.12238
3126.98979	0.12217
3125.70402	0.12206
3124.41825	0.12193
3123.13248	0.12167
3121.84671	0.12131
3120.56094	0.12100
3119.27517	0.12092
3117.98940	0.12112
3116.70364	0.12148
3115.41787	0.12167
3114.13210	0.12146
3112.84633	0.12091
3111.56056	0.12043
3110.27479	0.12036
3108.98902	0.12074
3107.70325	0.12128
3106.41749	0.12164
3105.13172	0.12164
3103.84595	0.12133
3102.56018	0.12098
3101.27441	0.12088
3099.98864	0.12121
3098.70287	0.12189
3097.41710	0.12262
3096.13133	0.12313
3094.84557	0.12335
3093.55980	0.12336
3092.27403	0.12331
3090.98826	0.12329
3089.70249	0.12338
3088.41672	0.12354
3087.13095	0.12365
3085.84518	0.12359
3084.55942	0.12342
3083.27365	0.12341
3081.98788	0.12374
3080.70211	0.12434
3079.41634	0.12495
3078.13057	0.12534
3076.84480	0.12542
3075.55903	0.12533
3074.27326	0.12522
3072.98750	0.12519
3071.70173	0.12522
3070.41596	0.12528
3069.13019	0.12534
3067.84442	0.12539
3066.55865	0.12538
3065.27288	0.12523
3063.98711	0.12488
3062.70135	0.12442
3061.41558	0.12405
3060.12981	0.12390
3058.84404	0.12392
3057.55827	0.12395
3056.27250	0.12389
3054.98673	0.12380
3053.70096	0.12371
3052.41519	0.12356
3051.12943	0.12324
3049.84366	0.12276
3048.55789	0.12223
3047.27212	0.12179
3045.98635	0.12147
3044.70058	0.12126
3043.41481	0.12115
3042.12904	0.12107
3040.84328	0.12100
3039.55751	0.12085
3038.27174	0.12062
3036.98597	0.12030
3035.70020	0.11989
3034.41443	0.11939
3033.12866	0.11887
3031.84289	0.11838
3030.55712	0.11794
3029.27136	0.11753
3027.98559	0.11710
3026.69982	0.11667
3025.41405	0.11628
3024.12828	0.11594
3022.84251	0.11558
3021.55674	0.11518
3020.27097	0.11480
3018.98521	0.11453
3017.69944	0.11442
3016.41367	0.11443
3015.12790	0.11441
3013.84213	0.11433
3012.55636	0.11428
3011.27059	0.11435
3009.98482	0.11453
3008.69905	0.11462
3007.41329	0.11446
3006.12752	0.11407
3004.84175	0.11366
3003.55598	0.11339
3002.27021	0.11327
3000.98444	0.11318
2999.69867	0.11307
2998.41290	0.11315
2997.12714	0.11345
2995.84137	0.11389
2994.55560	0.11433
2993.26983	0.11467
2991.98406	0.11487
2990.69829	0.11499
2989.41252	0.11505
2988.12675	0.11515
2986.84098	0.11536
2985.55522	0.11572
2984.26945	0.11615
2982.98368	0.11658
2981.69791	0.11706
2980.41214	0.11771
2979.12637	0.11851
2977.84060	0.11931
2976.55483	0.11996
2975.26907	0.12047
2973.98330	0.12100
2972.69753	0.12167
2971.41176	0.12251
2970.12599	0.12343
2968.84022	0.12425
2967.55445	0.12490
2966.26868	0.12544
2964.98291	0.12600
2963.69715	0.12667
2962.41138	0.12734
2961.12561	0.12777
2959.83984	0.12782
2958.55407	0.12763
2957.26830	0.12751
2955.98253	0.12757
2954.69676	0.12768
2953.41100	0.12765
2952.12523	0.12748
2950.83946	0.12730
2949.55369	0.12723
2948.26792	0.12728
2946.98215	0.12742
2945.69638	0.12763
2944.41061	0.12793
2943.12484	0.12832
2941.83908	0.12882
2940.55331	0.12946
2939.26754	0.13018
2937.98177	0.13088
2936.69600	0.13144
2935.41023	0.13184
2934.12446	0.13219
2932.83869	0.13267
2931.55293	0.13334
2930.26716	0.13407
2928.98139	0.13458
2927.69562	0.13476
2926.40985	0.13471
2925.12408	0.13457
2923.83831	0.13439
2922.55254	0.13413
2921.26677	0.13381
2919.98101	0.13338
2918.69524	0.13280
2917.40947	0.13200
2916.12370	0.13096
2914.83793	0.12972
2913.55216	0.12832
2912.26639	0.12689
2910.98062	0.12559
2909.69486	0.12453
2908.40909	0.12374
2907.12332	0.12311
2905.83755	0.12245
2904.55178	0.12171
2903.26601	0.12097
2901.98024	0.12036
2900.69447	0.11993
2899.40870	0.11965
2898.12294	0.11943
2896.83717	0.11913
2895.55140	0.11866
2894.26563	0.11800
2892.97986	0.11730
2891.69409	0.11673
2890.40832	0.11643
2889.12255	0.11636
2887.83678	0.11638
2886.55102	0.11637
2885.26525	0.11636
2883.97948	0.11641
2882.69371	0.11650
2881.40794	0.11654
2880.12217	0.11653
2878.83640	0.11653
2877.55063	0.11655
2876.26487	0.11655
2874.97910	0.11652
2873.69333	0.11651
2872.40756	0.11658
2871.12179	0.11661
2869.83602	0.11643
2868.55025	0.11596
2867.26448	0.11536
2865.97871	0.11492
2864.69295	0.11486
2863.40718	0.11512
2862.12141	0.11542
2860.83564	0.11543
2859.54987	0.11512
2858.26410	0.11478
2856.97833	0.11470
2855.69256	0.11490
2854.40680	0.11520
2853.12103	0.11532
2851.83526	0.11507
2850.54949	0.11444
2849.26372	0.11360
2847.97795	0.11272
2846.69218	0.11180
2845.40641	0.11072
2844.12064	0.10947
2842.83488	0.10820
2841.54911	0.10714
2840.26334	0.10639
2838.97757	0.10581
2837.69180	0.10528
2836.40603	0.10478
2835.12026	0.10441
2833.83449	0.10414
2832.54873	0.10385
2831.26296	0.10347
2829.97719	0.10305
2828.69142	0.10269
2827.40565	0.10240
2826.11988	0.10208
2824.83411	0.10169
2823.54834	0.10125
2822.26257	0.10085
2820.97681	0.10058
2819.69104	0.10046
2818.40527	0.10048
2817.11950	0.10054
2815.83373	0.10046
2814.54796	0.10014
2813.26219	0.09961
2811.97642	0.09913
2810.69066	0.09891
2809.40489	0.09888
2808.11912	0.09876
2806.83335	0.09838
2805.54758	0.09788
2804.26181	0.09751
2802.97604	0.09743
2801.69027	0.09753
2800.40450	0.09758
2799.11874	0.09738
2797.83297	0.09686
2796.54720	0.09614
2795.26143	0.09552
2793.97566	0.09527
2792.68989	0.09545
2791.40412	0.09583
2790.11835	0.09610
2788.83259	0.09614
2787.54682	0.09599
2786.26105	0.09578
2784.97528	0.09556
2783.68951	0.09538
2782.40374	0.09521
2781.11797	0.09503
2779.83220	0.09477
2778.54643	0.09440
2777.26067	0.09396
2775.97490	0.09354
2774.68913	0.09322
2773.40336	0.09301
2772.11759	0.09287
2770.83182	0.09273
2769.54605	0.09254
2768.26028	0.09229
2766.97452	0.09202
2765.68875	0.09180
2764.40298	0.09164
2763.11721	0.09144
2761.83144	0.09111
2760.54567	0.09069
2759.25990	0.09030
2757.97413	0.09001
2756.68836	0.08980
2755.40260	0.08961
2754.11683	0.08949
2752.83106	0.08947
2751.54529	0.08957
2750.25952	0.08968
2748.97375	0.08965
2747.68798	0.08944
2746.40221	0.08911
2745.11645	0.08873
2743.83068	0.08829
2742.54491	0.08777
2741.25914	0.08718
2739.97337	0.08663
2738.68760	0.08624
2737.40183	0.08607
2736.11606	0.08606
2734.83029	0.08604
2733.54453	0.08595
2732.25876	0.08584
2730.97299	0.08579
2729.68722	0.08576
2728.40145	0.08565
2727.11568	0.08539
2725.82991	0.08504
2724.54414	0.08468
2723.25838	0.08440
2721.97261	0.08420
2720.68684	0.08406
2719.40107	0.08389
2718.11530	0.08367
2716.82953	0.08343
2715.54376	0.08322
2714.25799	0.08303
2712.97222	0.08282
2711.68646	0.08257
2710.40069	0.08229
2709.11492	0.08198
2707.82915	0.08169
2706.54338	0.08149
2705.25761	0.08142
2703.97184	0.08139
2702.68607	0.08130
2701.40031	0.08111
2700.11454	0.08080
2698.82877	0.08043
2697.54300	0.08006
2696.25723	0.07979
2694.97146	0.07972
2693.68569	0.07979
2692.39992	0.07986
2691.11415	0.07981
2689.82839	0.07967
2688.54262	0.07954
2687.25685	0.07944
2685.97108	0.07929
2684.68531	0.07899
2683.39954	0.07863
2682.11377	0.07838
2680.82800	0.07828
2679.54224	0.07819
2678.25647	0.07798
2676.97070	0.07767
2675.68493	0.07736
2674.39916	0.07711
2673.11339	0.07689
2671.82762	0.07670
2670.54185	0.07655
2669.25608	0.07647
2667.97032	0.07639
2666.68455	0.07626
2665.39878	0.07609
2664.11301	0.07595
2662.82724	0.07587
2661.54147	0.07582
2660.25570	0.07573
2658.96993	0.07556
2657.68417	0.07533
2656.39840	0.07508
2655.11263	0.07479
2653.82686	0.07443
2652.54109	0.07401
2651.25532	0.07359
2649.96955	0.07323
2648.68378	0.07290
2647.39801	0.07258
2646.11225	0.07229
2644.82648	0.07209
2643.54071	0.07193
2642.25494	0.07178
2640.96917	0.07160
2639.68340	0.07139
2638.39763	0.07113
2637.11186	0.07086
2635.82609	0.07061
2634.54033	0.07031
2633.25456	0.06981
2631.96879	0.06914
2630.68302	0.06851
2629.39725	0.06813
2628.11148	0.06804
2626.82571	0.06808
2625.53994	0.06812
2624.25418	0.06813
2622.96841	0.06809
2621.68264	0.06800
2620.39687	0.06785
2619.11110	0.06760
2617.82533	0.06727
2616.53956	0.06689
2615.25379	0.06652
2613.96802	0.06611
2612.68226	0.06561
2611.39649	0.06510
2610.11072	0.06478
2608.82495	0.06472
2607.53918	0.06472
2606.25341	0.06459
2604.96764	0.06433
2603.68187	0.06403
2602.39611	0.06370
2601.11034	0.06333
2599.82457	0.06299
2598.53880	0.06283
2597.25303	0.06284
2595.96726	0.06289
2594.68149	0.06283
2593.39572	0.06265
2592.10995	0.06248
2590.82419	0.06239
2589.53842	0.06233
2588.25265	0.06228
2586.96688	0.06226
2585.68111	0.06228
2584.39534	0.06229
2583.10957	0.06221
2581.82380	0.06201
2580.53804	0.06176
2579.25227	0.06159
2577.96650	0.06150
2576.68073	0.06141
2575.39496	0.06126
2574.10919	0.06101
2572.82342	0.06067
2571.53765	0.06031
2570.25188	0.06010
2568.96612	0.06023
2567.68035	0.06060
2566.39458	0.06091
2565.10881	0.06088
2563.82304	0.06055
2562.53727	0.06015
2561.25150	0.05988
2559.96573	0.05977
2558.67997	0.05975
2557.39420	0.05977
2556.10843	0.05980
2554.82266	0.05982
2553.53689	0.05978
2552.25112	0.05963
2550.96535	0.05934
2549.67958	0.05898
2548.39381	0.05866
2547.10805	0.05843
2545.82228	0.05823
2544.53651	0.05800
2543.25074	0.05785
2541.96497	0.05787
2540.67920	0.05801
2539.39343	0.05816
2538.10766	0.05828
2536.82190	0.05837
2535.53613	0.05830
2534.25036	0.05794
2532.96459	0.05740
2531.67882	0.05691
2530.39305	0.05666
2529.10728	0.05661
2527.82151	0.05664
2526.53574	0.05665
2525.24998	0.05667
2523.96421	0.05680
2522.67844	0.05708
2521.39267	0.05737
2520.10690	0.05757
2518.82113	0.05767
2517.53536	0.05779
2516.24959	0.05792
2514.96383	0.05795
2513.67806	0.05778
2512.39229	0.05753
2511.10652	0.05742
2509.82075	0.05747
2508.53498	0.05750
2507.24921	0.05733
2505.96344	0.05700
2504.67767	0.05678
2503.39191	0.05685
2502.10614	0.05725
2500.82037	0.05781
2499.53460	0.05821
2498.24883	0.05816
2496.96306	0.05765
2495.67729	0.05699
2494.39152	0.05660
2493.10576	0.05669
2491.81999	0.05715
2490.53422	0.05763
2489.24845	0.05777
2487.96268	0.05738
2486.67691	0.05665
2485.39114	0.05595
2484.10537	0.05556
2482.81960	0.05547
2481.53384	0.05559
2480.24807	0.05584
2478.96230	0.05618
2477.67653	0.05651
2476.39076	0.05676
2475.10499	0.05695
2473.81922	0.05720
2472.53345	0.05751
2471.24769	0.05768
2469.96192	0.05752
2468.67615	0.05708
2467.39038	0.05663
2466.10461	0.05642
2464.81884	0.05646
2463.53307	0.05662
2462.24730	0.05678
2460.96153	0.05683
2459.67577	0.05672
2458.39000	0.05646
2457.10423	0.05617
2455.81846	0.05596
2454.53269	0.05586
2453.24692	0.05586
2451.96115	0.05598
2450.67538	0.05622
2449.38962	0.05655
2448.10385	0.05686
2446.81808	0.05707
2445.53231	0.05709
2444.24654	0.05688
2442.96077	0.05659
2441.67500	0.05643
2440.38923	0.05647
2439.10346	0.05656
2437.81770	0.05660
2436.53193	0.05660
2435.24616	0.05653
2433.96039	0.05631
2432.67462	0.05598
2431.38885	0.05576
2430.10308	0.05585
2428.81731	0.05614
2427.53155	0.05640
2426.24578	0.05652
2424.96001	0.05664
2423.67424	0.05690
2422.38847	0.05722
2421.10270	0.05737
2419.81693	0.05723
2418.53116	0.05687
2417.24539	0.05649
2415.95963	0.05618
2414.67386	0.05603
2413.38809	0.05610
2412.10232	0.05631
2410.81655	0.05648
2409.53078	0.05641
2408.24501	0.05608
2406.95924	0.05564
2405.67347	0.05529
2404.38771	0.05522
2403.10194	0.05547
2401.81617	0.05592
2400.53040	0.05634
2399.24463	0.05648
2397.95886	0.05650
2396.67309	0.05650
2395.38732	0.05651
2394.10156	0.05655
2392.81579	0.05657
2391.53002	0.05657
2390.24425	0.05655
2388.95848	0.05655
2387.67271	0.05656
2386.38694	0.05653
2385.10117	0.05647
2383.81540	0.05643
2382.52964	0.05647
2381.24387	0.05663
2379.95810	0.05686
2378.67233	0.05710
2377.38656	0.05731
2376.10079	0.05753
2374.81502	0.05773
2373.52925	0.05786
2372.24349	0.05791
2370.95772	0.05798
2369.67195	0.05807
2368.38618	0.05823
2367.10041	0.05843
2365.81464	0.05866
2364.52887	0.05885
2363.24310	0.05902
2361.95733	0.05925
2360.67157	0.05956
2359.38580	0.05969
2358.10003	0.05950
2356.81426	0.05911
2355.52849	0.05870
2354.24272	0.05838
2352.95695	0.05821
2351.67118	0.05825
2350.38542	0.05836
2349.09965	0.05831
2347.81388	0.05819
2346.52811	0.05836
2345.24234	0.05872
2343.95657	0.05878
2342.67080	0.05854
2341.38503	0.05873
2340.09926	0.05928
2338.81350	0.05913
2337.52773	0.05833
2336.24196	0.05829
2334.95619	0.05873
2333.67042	0.05819
2332.38465	0.05709
2331.09888	0.05697
2329.81311	0.05700
2328.52735	0.05630
2327.24158	0.05633
2325.95581	0.05680
2324.67004	0.05647
2323.38427	0.05626
2322.09850	0.05648
2320.81273	0.05620
2319.52696	0.05607
2318.24119	0.05596
2316.95543	0.05529
2315.66966	0.05478
2314.38389	0.05451
2313.09812	0.05417
2311.81235	0.05395
2310.52658	0.05354
2309.24081	0.05298
2307.95504	0.05253
2306.66928	0.05212
2305.38351	0.05192
2304.09774	0.05179
2302.81197	0.05157
2301.52620	0.05122
2300.24043	0.05069
2298.95466	0.05012
2297.66889	0.04960
2296.38312	0.04920
2295.09736	0.04888
2293.81159	0.04856
2292.52582	0.04821
2291.24005	0.04790
2289.95428	0.04774
2288.66851	0.04783
2287.38274	0.04812
2286.09697	0.04842
2284.81121	0.04845
2283.52544	0.04806
2282.23967	0.04737
2280.95390	0.04664
2279.66813	0.04600
2278.38236	0.04536
2277.09659	0.04466
2275.81082	0.04400
2274.52505	0.04357
2273.23929	0.04339
2271.95352	0.04329
2270.66775	0.04309
2269.38198	0.04271
2268.09621	0.04227
2266.81044	0.04201
2265.52467	0.04206
2264.23890	0.04230
2262.95314	0.04244
2261.66737	0.04228
2260.38160	0.04184
2259.09583	0.04130
2257.81006	0.04084
2256.52429	0.04057
2255.23852	0.04051
2253.95275	0.04055
2252.66698	0.04053
2251.38122	0.04034
2250.09545	0.04007
2248.80968	0.03978
2247.52391	0.03906
2246.23814	0.03827
2244.95237	0.03764
2243.66660	0.03743
2242.38083	0.03765
2241.09507	0.03802
2239.80930	0.03824
2238.52353	0.03822
2237.23776	0.03801
2235.95199	0.03772
2234.66622	0.03749
2233.38045	0.03741
2232.09468	0.03735
2230.80891	0.03702
2229.52315	0.03634
2228.23738	0.03549
2226.95161	0.03469
2225.66584	0.03405
2224.38007	0.03360
2223.09430	0.03336
2221.80853	0.03323
2220.52276	0.03304
2219.23700	0.03270
2217.95123	0.03236
2216.66546	0.03228
2215.37969	0.03250
2214.09392	0.03265
2212.80815	0.03235
2211.52238	0.03167
2210.23661	0.03106
2208.95084	0.03093
2207.66508	0.03125
2206.37931	0.03157
2205.09354	0.03136
2203.80777	0.03053
2202.52200	0.02961
2201.23623	0.02916
2199.95046	0.02916
2198.66469	0.02920
2197.37893	0.02907
2196.09316	0.02882
2194.80739	0.02841
2193.52162	0.02770
2192.23585	0.02680
2190.95008	0.02604
2189.66431	0.02563
2188.37854	0.02564
2187.09277	0.02614
2185.80701	0.02709
2184.52124	0.02814
2183.23547	0.02880
2181.94970	0.02880
2180.66393	0.02833
2179.37816	0.02776
2178.09239	0.02734
2176.80662	0.02702
2175.52085	0.02677
2174.23509	0.02675
2172.94932	0.02699
2171.66355	0.02712
2170.37778	0.02653
2169.09201	0.02504
2167.80624	0.02320
2166.52047	0.02191
2165.23470	0.02172
2163.94894	0.02236
2162.66317	0.02285
2161.37740	0.02215
2160.09163	0.02019
2158.80586	0.01820
2157.52009	0.01760
2156.23432	0.01853
2154.94855	0.02005
2153.66278	0.02145
2152.37702	0.02261
2151.09125	0.02362
2149.80548	0.02442
2148.51971	0.02490
2147.23394	0.02511
2145.94817	0.02515
2144.66240	0.02513
2143.37663	0.02521
2142.09087	0.02551
2140.80510	0.02608
2139.51933	0.02679
2138.23356	0.02737
2136.94779	0.02750
2135.66202	0.02719
2134.37625	0.02685
2133.09048	0.02700
2131.80471	0.02778
2130.51895	0.02880
2129.23318	0.02960
2127.94741	0.02993
2126.66164	0.02993
2125.37587	0.02993
2124.09010	0.03029
2122.80433	0.03105
2121.51856	0.03189
2120.23280	0.03238
2118.94703	0.03241
2117.66126	0.03224
2116.37549	0.03215
2115.08972	0.03212
2113.80395	0.03187
2112.51818	0.03125
2111.23241	0.03042
2109.94664	0.02972
2108.66088	0.02943
2107.37511	0.02966
2106.08934	0.03028
2104.80357	0.03096
2103.51780	0.03141
2102.23203	0.03150
2100.94626	0.03146
2099.66049	0.03479
2098.37473	0.03610
2097.08896	0.03548
2095.80319	0.03438
2094.51742	0.03324
2093.23165	0.03216
2091.94588	0.03122
2090.66011	0.03047
2089.37434	0.02987
2088.08857	0.02942
2086.80281	0.02921
2085.51704	0.02928
2084.23127	0.02955
2082.94550	0.02988
2081.65973	0.03025
2080.37396	0.03079
2079.08819	0.03161
2077.80242	0.03259
2076.51666	0.03343
2075.23089	0.03386
2073.94512	0.03382
2072.65935	0.03346
2071.37358	0.03303
2070.08781	0.03260
2068.80204	0.03214
2067.51627	0.03153
2066.23050	0.03072
2064.94474	0.02976
2063.65897	0.02891
2062.37320	0.02844
2061.08743	0.02837
2059.80166	0.02836
2058.51589	0.02792
2057.23012	0.02689
2055.94435	0.02550
2054.65859	0.02426
2053.37282	0.02368
2052.08705	0.02413
2050.80128	0.02544
2049.51551	0.02685
2048.22974	0.02758
2046.94397	0.02751
2045.65820	0.02721
2044.37243	0.02715
2043.08667	0.02726
2041.80090	0.02722
2040.51513	0.02704
2039.22936	0.02709
2037.94359	0.02770
2036.65782	0.02877
2035.37205	0.02983
2034.08628	0.03038
2032.80052	0.03024
2031.51475	0.02963
2030.22898	0.02887
2028.94321	0.02804
2027.65744	0.02685
2026.37167	0.02508
2025.08590	0.02313
2023.80013	0.02192
2022.51436	0.02205
2021.22860	0.02305
2019.94283	0.02384
2018.65706	0.02365
2017.37129	0.02268
2016.08552	0.02166
2014.79975	0.02125
2013.51398	0.02166
2012.22821	0.02280
2010.94245	0.02452
2009.65668	0.02660
2008.37091	0.02852
2007.08514	0.02956
2005.79937	0.02927
2004.51360	0.02781
2003.22783	0.02576
2001.94206	0.02369
2000.65629	0.02198
1999.37053	0.02086
1998.08476	0.02047
1996.79899	0.02078
1995.51322	0.02155
1994.22745	0.02231
1992.94168	0.02262
1991.65591	0.02232
1990.37014	0.02161
1989.08438	0.02097
1987.79861	0.02097
1986.51284	0.02176
1985.22707	0.02307
1983.94130	0.02458
1982.65553	0.02638
1981.36976	0.02865
1980.08399	0.03116
1978.79822	0.03315
1977.51246	0.03388
1976.22669	0.03335
1974.94092	0.03225
1973.65515	0.03138
1972.36938	0.03098
1971.08361	0.03057
1969.79784	0.02951
1968.51207	0.02774
1967.22631	0.02592
1965.94054	0.02491
1964.65477	0.02511
1963.36900	0.02619
1962.08323	0.02736
1960.79746	0.02789
1959.51169	0.02753
1958.22592	0.02654
1956.94015	0.02541
1955.65439	0.02462
1954.36862	0.02447
1953.08285	0.02500
1951.79708	0.02593
1950.51131	0.02681
1949.22554	0.02736
1947.93977	0.02755
1946.65400	0.02750
1945.36823	0.02737
1944.08247	0.02741
1942.79670	0.02784
1941.51093	0.02870
1940.22516	0.02962
1938.93939	0.03019
1937.65362	0.03032
1936.36785	0.03028
1935.08208	0.03032
1933.79632	0.03045
1932.51055	0.03055
1931.22478	0.03051
1929.93901	0.03033
1928.65324	0.03003
1927.36747	0.02970
1926.08170	0.02945
1924.79593	0.02933
1923.51016	0.02934
1922.22440	0.02954
1920.93863	0.02991
1919.65286	0.03041
1918.36709	0.03096
1917.08132	0.03144
1915.79555	0.03168
1914.50978	0.03158
1913.22401	0.03124
1911.93825	0.03088
1910.65248	0.03064
1909.36671	0.03054
1908.08094	0.03055
1906.79517	0.03069
1905.50940	0.03093
1904.22363	0.03121
1902.93786	0.03144
1901.65209	0.03161
1900.36633	0.03175
1899.08056	0.03184
1897.79479	0.03180
1896.50902	0.03163
1895.22325	0.03146
1893.93748	0.03144
1892.65171	0.03154
1891.36594	0.03167
1890.08018	0.03176
1888.79441	0.03182
1887.50864	0.03179
1886.22287	0.03166
1884.93710	0.03151
1883.65133	0.03144
1882.36556	0.03146
1881.07979	0.03151
1879.79402	0.03151
1878.50826	0.03146
1877.22249	0.03141
1875.93672	0.03139
1874.65095	0.03144
1873.36518	0.03158
1872.07941	0.03173
1870.79364	0.03176
1869.50787	0.03165
1868.22211	0.03153
1866.93634	0.03156
1865.65057	0.03177
1864.36480	0.03207
1863.07903	0.03233
1861.79326	0.03248
1860.50749	0.03251
1859.22172	0.03243
1857.93595	0.03233
1856.65019	0.03228
1855.36442	0.03226
1854.07865	0.03221
1852.79288	0.03210
1851.50711	0.03197
1850.22134	0.03188
1848.93557	0.03185
1847.64980	0.03185
1846.36404	0.03181
1845.07827	0.03173
1843.79250	0.03164
1842.50673	0.03154
1841.22096	0.03140
1839.93519	0.03128
1838.64942	0.03134
1837.36365	0.03158
1836.07788	0.03188
1834.79212	0.03209
1833.50635	0.03214
1832.22058	0.03207
1830.93481	0.03206
1829.64904	0.03230
1828.36327	0.03276
1827.07750	0.03322
1825.79173	0.03354
1824.50597	0.03383
1823.22020	0.03421
1821.93443	0.03467
1820.64866	0.03504
1819.36289	0.03509
1818.07712	0.03465
1816.79135	0.03381
1815.50558	0.03286
1814.21981	0.03206
1812.93405	0.03155
1811.64828	0.03131
1810.36251	0.03132
1809.07674	0.03149
1807.79097	0.03172
1806.50520	0.03194
1805.21943	0.03214
1803.93366	0.03236
1802.64790	0.03259
1801.36213	0.03284
1800.07636	0.03307
1798.79059	0.03325
1797.50482	0.03335
1796.21905	0.03337
1794.93328	0.03330
1793.64751	0.03319
1792.36174	0.03320
1791.07598	0.03344
1789.79021	0.03380
1788.50444	0.03411
1787.21867	0.03430
1785.93290	0.03440
1784.64713	0.03449
1783.36136	0.03456
1782.07559	0.03457
1780.78983	0.03454
1779.50406	0.03450
1778.21829	0.03446
1776.93252	0.03438
1775.64675	0.03426
1774.36098	0.03409
1773.07521	0.03396
1771.78944	0.03396
1770.50367	0.03402
1769.21791	0.03397
1767.93214	0.03389
1766.64637	0.03396
1765.36060	0.03413
1764.07483	0.03428
1762.78906	0.03438
1761.50329	0.03453
1760.21752	0.03474
1758.93176	0.03492
1757.64599	0.03509
1756.36022	0.03537
1755.07445	0.03576
1753.78868	0.03613
1752.50291	0.03640
1751.21714	0.03672
1749.93137	0.03720
1748.64560	0.03773
1747.35984	0.03826
1746.07407	0.03882
1744.78830	0.03946
1743.50253	0.04013
1742.21676	0.04074
1740.93099	0.04126
1739.64522	0.04180
1738.35945	0.04243
1737.07369	0.04291
1735.78792	0.04306
1734.50215	0.04312
1733.21638	0.04348
1731.93061	0.04410
1730.64484	0.04462
1729.35907	0.04495
1728.07330	0.04524
1726.78753	0.04563
1725.50177	0.04614
1724.21600	0.04674
1722.93023	0.04741
1721.64446	0.04802
1720.35869	0.04843
1719.07292	0.04867
1717.78715	0.04904
1716.50138	0.04972
1715.21561	0.05057
1713.92985	0.05141
1712.64408	0.05223
1711.35831	0.05316
1710.07254	0.05429
1708.78677	0.05561
1707.50100	0.05709
1706.21523	0.05871
1704.92946	0.06053
1703.64370	0.06249
1702.35793	0.06445
1701.07216	0.06655
1699.78639	0.06913
1698.50062	0.07197
1697.21485	0.07460
1695.92908	0.07712
1694.64331	0.07994
1693.35754	0.08296
1692.07178	0.08585
1690.78601	0.08866
1689.50024	0.09160
1688.21447	0.09464
1686.92870	0.09754
1685.64293	0.10031
1684.35716	0.10333
1683.07139	0.10678
1681.78563	0.11038
1680.49986	0.11389
1679.21409	0.11744
1677.92832	0.12107
1676.64255	0.12477
1675.35678	0.12860
1674.07101	0.13265
1672.78524	0.13677
1671.49947	0.14075
1670.21371	0.14464
1668.92794	0.14861
1667.64217	0.15268
1666.35640	0.15667
1665.07063	0.16045
1663.78486	0.16411
1662.49909	0.16776
1661.21332	0.17136
1659.92756	0.17475
1658.64179	0.17788
1657.35602	0.18078
1656.07025	0.18334
1654.78448	0.18541
1653.49871	0.18728
1652.21294	0.18935
1650.92717	0.19144
1649.64140	0.19302
1648.35564	0.19400
1647.06987	0.19477
1645.78410	0.19562
1644.49833	0.19647
1643.21256	0.19712
1641.92679	0.19757
1640.64102	0.19796
1639.35525	0.19832
1638.06949	0.19852
1636.78372	0.19849
1635.49795	0.19836
1634.21218	0.19816
1632.92641	0.19766
1631.64064	0.19662
1630.35487	0.19506
1629.06910	0.19310
1627.78333	0.19080
1626.49757	0.18814
1625.21180	0.18504
1623.92603	0.18152
1622.64026	0.17774
1621.35449	0.17380
1620.06872	0.16965
1618.78295	0.16524
1617.49718	0.16074
1616.21142	0.15645
1614.92565	0.15241
1613.63988	0.14834
1612.35411	0.14410
1611.06834	0.13984
1609.78257	0.13573
1608.49680	0.13183
1607.21103	0.12816
1605.92526	0.12472
1604.63950	0.12150
1603.35373	0.11850
1602.06796	0.11572
1600.78219	0.11315
1599.49642	0.11080
1598.21065	0.10866
1596.92488	0.10669
1595.63911	0.10490
1594.35335	0.10330
1593.06758	0.10190
1591.78181	0.10069
1590.49604	0.09968
1589.21027	0.09888
1587.92450	0.09829
1586.63873	0.09790
1585.35296	0.09767
1584.06719	0.09755
1582.78143	0.09754
1581.49566	0.09769
1580.20989	0.09805
1578.92412	0.09854
1577.63835	0.09910
1576.35258	0.09994
1575.06681	0.10125
1573.78104	0.10286
1572.49528	0.10441
1571.20951	0.10591
1569.92374	0.10757
1568.63797	0.10954
1567.35220	0.11169
1566.06643	0.11387
1564.78066	0.11609
1563.49489	0.11839
1562.20912	0.12058
1560.92336	0.12259
1559.63759	0.12468
1558.35182	0.12714
1557.06605	0.12981
1555.78028	0.13224
1554.49451	0.13434
1553.20874	0.13633
1551.92297	0.13829
1550.63721	0.14013
1549.35144	0.14185
1548.06567	0.14346
1546.77990	0.14489
1545.49413	0.14616
1544.20836	0.14730
1542.92259	0.14824
1541.63682	0.14887
1540.35105	0.14925
1539.06529	0.14963
1537.77952	0.15008
1536.49375	0.15036
1535.20798	0.15030
1533.92221	0.15007
1532.63644	0.14989
1531.35067	0.14973
1530.06490	0.14944
1528.77914	0.14896
1527.49337	0.14833
1526.20760	0.14766
1524.92183	0.14696
1523.63606	0.14618
1522.35029	0.14534
1521.06452	0.14461
1519.77875	0.14403
1518.49298	0.14330
1517.20722	0.14223
1515.92145	0.14089
1514.63568	0.13931
1513.34991	0.13750
1512.06414	0.13550
1510.77837	0.13337
1509.49260	0.13102
1508.20683	0.12835
1506.92107	0.12557
1505.63530	0.12300
1504.34953	0.12063
1503.06376	0.11818
1501.77799	0.11555
1500.49222	0.11286
1499.20645	0.11018
1497.92068	0.10751
1496.63491	0.10489
1495.34915	0.10242
1494.06338	0.10007
1492.77761	0.09771
1491.49184	0.09538
1490.20607	0.09322
1488.92030	0.09130
1487.63453	0.08961
1486.34876	0.08813
1485.06299	0.08687
1483.77723	0.08580
1482.49146	0.08494
1481.20569	0.08434
1479.91992	0.08408
1478.63415	0.08415
1477.34838	0.08451
1476.06261	0.08510
1474.77684	0.08585
1473.49108	0.08672
1472.20531	0.08779
1470.91954	0.08905
1469.63377	0.09038
1468.34800	0.09166
1467.06223	0.09288
1465.77646	0.09406
1464.49069	0.09529
1463.20492	0.09658
1461.91916	0.09791
1460.63339	0.09922
1459.34762	0.10045
1458.06185	0.10164
1456.77608	0.10291
1455.49031	0.10426
1454.20454	0.10539
1452.91877	0.10609
1451.63301	0.10646
1450.34724	0.10664
1449.06147	0.10667
1447.77570	0.10657
1446.48993	0.10635
1445.20416	0.10598
1443.91839	0.10547
1442.63262	0.10486
1441.34685	0.10420
1440.06109	0.10341
1438.77532	0.10238
1437.48955	0.10118
1436.20378	0.10002
1434.91801	0.09899
1433.63224	0.09796
1432.34647	0.09684
1431.06070	0.09572
1429.77494	0.09472
1428.48917	0.09390
1427.20340	0.09324
1425.91763	0.09272
1424.63186	0.09234
1423.34609	0.09213
1422.06032	0.09197
1420.77455	0.09176
1419.48878	0.09157
1418.20302	0.09150
1416.91725	0.09153
1415.63148	0.09153
1414.34571	0.09150
1413.05994	0.09143
1411.77417	0.09134
1410.48840	0.09125
1409.20263	0.09117
1407.91687	0.09110
1406.63110	0.09100
1405.34533	0.09086
1404.05956	0.09072
1402.77379	0.09055
1401.48802	0.09033
1400.20225	0.09007
1398.91648	0.08987
1397.63071	0.08974
1396.34495	0.08960
1395.05918	0.08942
1393.77341	0.08928
1392.48764	0.08922
1391.20187	0.08920
1389.91610	0.08917
1388.63033	0.08911
1387.34456	0.08905
1386.05880	0.08899
1384.77303	0.08891
1383.48726	0.08876
1382.20149	0.08856
1380.91572	0.08831
1379.62995	0.08797
1378.34418	0.08752
1377.05841	0.08701
1375.77264	0.08648
1374.48688	0.08597
1373.20111	0.08549
1371.91534	0.08502
1370.62957	0.08449
1369.34380	0.08392
1368.05803	0.08334
1366.77226	0.08273
1365.48649	0.08211
1364.20073	0.08149
1362.91496	0.08091
1361.62919	0.08040
1360.34342	0.07998
1359.05765	0.07964
1357.77188	0.07942
1356.48611	0.07933
1355.20034	0.07938
1353.91457	0.07953
1352.62881	0.07975
1351.34304	0.08003
1350.05727	0.08039
1348.77150	0.08084
1347.48573	0.08138
1346.19996	0.08193
1344.91419	0.08244
1343.62842	0.08291
1342.34266	0.08333
1341.05689	0.08374
1339.77112	0.08414
1338.48535	0.08452
1337.19958	0.08481
1335.91381	0.08498
1334.62804	0.08502
1333.34227	0.08495
1332.05650	0.08474
1330.77074	0.08442
1329.48497	0.08406
1328.19920	0.08372
1326.91343	0.08345
1325.62766	0.08327
1324.34189	0.08314
1323.05612	0.08306
1321.77035	0.08299
1320.48459	0.08296
1319.19882	0.08300
1317.91305	0.08311
1316.62728	0.08323
1315.34151	0.08328
1314.05574	0.08326
1312.76997	0.08321
1311.48420	0.08317
1310.19843	0.08316
1308.91267	0.08319
1307.62690	0.08324
1306.34113	0.08328
1305.05536	0.08328
1303.76959	0.08325
1302.48382	0.08324
1301.19805	0.08327
1299.91228	0.08334
1298.62652	0.08344
1297.34075	0.08357
1296.05498	0.08375
1294.76921	0.08400
1293.48344	0.08432
1292.19767	0.08471
1290.91190	0.08514
1289.62613	0.08562
1288.34036	0.08615
1287.05460	0.08670
1285.76883	0.08724
1284.48306	0.08773
1283.19729	0.08814
1281.91152	0.08850
1280.62575	0.08882
1279.33998	0.08916
1278.05421	0.08952
1276.76845	0.08990
1275.48268	0.09028
1274.19691	0.09067
1272.91114	0.09108
1271.62537	0.09153
1270.33960	0.09202
1269.05383	0.09257
1267.76806	0.09320
1266.48229	0.09392
1265.19653	0.09471
1263.91076	0.09552
1262.62499	0.09629
1261.33922	0.09699
1260.05345	0.09764
1258.76768	0.09825
1257.48191	0.09884
1256.19614	0.09946
1254.91037	0.10014
1253.62461	0.10090
1252.33884	0.10173
1251.05307	0.10261
1249.76730	0.10353
1248.48153	0.10448
1247.19576	0.10548
1245.90999	0.10653
1244.62422	0.10762
1243.33846	0.10870
1242.05269	0.10974
1240.76692	0.11068
1239.48115	0.11150
1238.19538	0.11218
1236.90961	0.11273
1235.62384	0.11316
1234.33807	0.11348
1233.05230	0.11367
1231.76654	0.11374
1230.48077	0.11370
1229.19500	0.11356
1227.90923	0.11330
1226.62346	0.11288
1225.33769	0.11234
1224.05192	0.11169
1222.76615	0.11097
1221.48039	0.11021
1220.19462	0.10945
1218.90885	0.10875
1217.62308	0.10818
1216.33731	0.10775
1215.05154	0.10746
1213.76577	0.10727
1212.48000	0.10718
1211.19423	0.10720
1209.90847	0.10733
1208.62270	0.10755
1207.33693	0.10781
1206.05116	0.10808
1204.76539	0.10832
1203.47962	0.10850
1202.19385	0.10856
1200.90808	0.10826
1199.62232	0.10749
1198.33655	0.10714
1197.05078	0.10678
1195.76501	0.10646
1194.47924	0.10623
1193.19347	0.10609
1191.90770	0.10601
1190.62193	0.10595
1189.33616	0.10592
1188.05040	0.10594
1186.76463	0.10601
1185.47886	0.10612
1184.19309	0.10627
1182.90732	0.10647
1181.62155	0.10677
1180.33578	0.10720
1179.05001	0.10776
1177.76425	0.10842
1176.47848	0.10914
1175.19271	0.10988
1173.90694	0.11059
1172.62117	0.11125
1171.33540	0.11191
1170.04963	0.11263
1168.76386	0.11342
1167.47809	0.11423
1166.19233	0.11503
1164.90656	0.11580
1163.62079	0.11652
1162.33502	0.11721
1161.04925	0.11787
1159.76348	0.11852
1158.47771	0.11912
1157.19194	0.11966
1155.90618	0.12012
1154.62041	0.12051
1153.33464	0.12085
1152.04887	0.12110
1150.76310	0.12124
1149.47733	0.12132
1148.19156	0.12146
1146.90579	0.12171
1145.62002	0.12200
1144.33426	0.12223
1143.04849	0.12239
1141.76272	0.12258
1140.47695	0.12282
1139.19118	0.12312
1137.90541	0.12344
1136.61964	0.12378
1135.33387	0.12418
1134.04811	0.12464
1132.76234	0.12513
1131.47657	0.12565
1130.19080	0.12620
1128.90503	0.12677
1127.61926	0.12731
1126.33349	0.12777
1125.04772	0.12813
1123.76195	0.12841
1122.47619	0.12864
1121.19042	0.12886
1119.90465	0.12910
1118.61888	0.12937
1117.33311	0.12963
1116.04734	0.12987
1114.76157	0.13012
1113.47580	0.13039
1112.19004	0.13069
1110.90427	0.13105
1109.61850	0.13144
1108.33273	0.13185
1107.04696	0.13231
1105.76119	0.13285
1104.47542	0.13346
1103.18965	0.13408
1101.90388	0.13460
1100.61812	0.13504
1099.33235	0.13550
1098.04658	0.13607
1096.76081	0.13673
1095.47504	0.13739
1094.18927	0.13800
1092.90350	0.13853
1091.61773	0.13904
1090.33197	0.13961
1089.04620	0.14029
1087.76043	0.14108
1086.47466	0.14189
1085.18889	0.14261
1083.90312	0.14320
1082.61735	0.14367
1081.33158	0.14403
1080.04581	0.14426
1078.76005	0.14430
1077.47428	0.14417
1076.18851	0.14391
1074.90274	0.14360
1073.61697	0.14325
1072.33120	0.14289
1071.04543	0.14249
1069.75966	0.14202
1068.47390	0.14150
1067.18813	0.14096
1065.90236	0.14040
1064.61659	0.13980
1063.33082	0.13912
1062.04505	0.13840
1060.75928	0.13768
1059.47351	0.13693
1058.18774	0.13611
1056.90198	0.13522
1055.61621	0.13427
1054.33044	0.13329
1053.04467	0.13229
1051.75890	0.13126
1050.47313	0.13022
1049.18736	0.12922
1047.90159	0.12829
1046.61583	0.12744
1045.33006	0.12665
1044.04429	0.12588
1042.75852	0.12510
1041.47275	0.12432
1040.18698	0.12362
1038.90121	0.12304
1037.61544	0.12259
1036.32967	0.12227
1035.04391	0.12208
1033.75814	0.12202
1032.47237	0.12197
1031.18660	0.12182
1029.90083	0.12149
1028.61506	0.12097
1027.32929	0.12033
1026.04352	0.11964
1024.75775	0.11898
1023.47199	0.11843
1022.18622	0.11797
1020.90045	0.11752
1019.61468	0.11695
1018.32891	0.11624
1017.04314	0.11543
1015.75737	0.11458
1014.47160	0.11369
1013.18584	0.11271
1011.90007	0.11157
1010.61430	0.11030
1009.32853	0.10898
1008.04276	0.10768
1006.75699	0.10646
1005.47122	0.10530
1004.18545	0.10419
1002.89968	0.10317
1001.61392	0.10226
1000.32815	0.10148
999.04238	0.10080
997.75661	0.10019
996.47084	0.09960
995.18507	0.09901
993.89930	0.09846
992.61353	0.09802
991.32777	0.09771
990.04200	0.09751
988.75623	0.09738
987.47046	0.09727
986.18469	0.09722
984.89892	0.09723
983.61315	0.09730
982.32738	0.09742
981.04161	0.09760
979.75585	0.09783
978.47008	0.09806
977.18431	0.09827
975.89854	0.09844
974.61277	0.09855
973.32700	0.09865
972.04123	0.09879
970.75546	0.09902
969.46970	0.09929
968.18393	0.09955
966.89816	0.09971
965.61239	0.09975
964.32662	0.09970
963.04085	0.09968
961.75508	0.09977
960.46931	0.09993
959.18354	0.10004
957.89778	0.09997
956.61201	0.09970
955.32624	0.09925
954.04047	0.09871
952.75470	0.09811
951.46893	0.09754
950.18316	0.09703
948.89739	0.09654
947.61163	0.09603
946.32586	0.09545
945.04009	0.09483
943.75432	0.09417
942.46855	0.09348
941.18278	0.09279
939.89701	0.09211
938.61124	0.09144
937.32547	0.09073
936.03971	0.08992
934.75394	0.08902
933.46817	0.08810
932.18240	0.08722
930.89663	0.08639
929.61086	0.08557
928.32509	0.08473
927.03932	0.08388
925.75356	0.08305
924.46779	0.08229
923.18202	0.08161
921.89625	0.08093
920.61048	0.08017
919.32471	0.07930
918.03894	0.07838
916.75317	0.07751
915.46740	0.07673
914.18164	0.07605
912.89587	0.07546
911.61010	0.07495
910.32433	0.07452
909.03856	0.07413
907.75279	0.07380
906.46702	0.07357
905.18125	0.07345
903.89549	0.07340
902.60972	0.07336
901.32395	0.07327
900.03818	0.07318
898.75241	0.07312
897.46664	0.07310
896.18087	0.07305
894.89510	0.07296
893.60933	0.07285
892.32357	0.07283
891.03780	0.07293
889.75203	0.07306
888.46626	0.07308
887.18049	0.07295
885.89472	0.07276
884.60895	0.07266
883.32318	0.07269
882.03742	0.07278
880.75165	0.07284
879.46588	0.07283
878.18011	0.07273
876.89434	0.07252
875.60857	0.07222
874.32280	0.07189
873.03703	0.07157
871.75126	0.07122
870.46550	0.07076
869.17973	0.07017
867.89396	0.06952
866.60819	0.06896
865.32242	0.06855
864.03665	0.06826
862.75088	0.06795
861.46511	0.06757
860.17935	0.06716
858.89358	0.06677
857.60781	0.06644
856.32204	0.06612
855.03627	0.06579
853.75050	0.06543
852.46473	0.06504
851.17896	0.06463
849.89319	0.06420
848.60743	0.06373
847.32166	0.06323
846.03589	0.06274
844.75012	0.06227
843.46435	0.06181
842.17858	0.06136
840.89281	0.06091
839.60704	0.06052
838.32128	0.06020
837.03551	0.05992
835.74974	0.05964
834.46397	0.05934
833.17820	0.05905
831.89243	0.05875
830.60666	0.05843
829.32089	0.05809
828.03512	0.05782
826.74936	0.05770
825.46359	0.05769
824.17782	0.05771
822.89205	0.05769
821.60628	0.05761
820.32051	0.05749
819.03474	0.05742
817.74897	0.05746
816.46321	0.05763
815.17744	0.05781
813.89167	0.05788
812.60590	0.05783
811.32013	0.05777
810.03436	0.05775
808.74859	0.05772
807.46282	0.05765
806.17705	0.05760
804.89129	0.05761
803.60552	0.05770
802.31975	0.05778
801.03398	0.05780
799.74821	0.05777
798.46244	0.05772
797.17667	0.05765
795.89090	0.05758
794.60513	0.05750
793.31937	0.05743
792.03360	0.05738
790.74783	0.05733
789.46206	0.05728
788.17629	0.05724
786.89052	0.05721
785.60475	0.05714
784.31898	0.05702
783.03322	0.05691
781.74745	0.05688
780.46168	0.05698
779.17591	0.05718
777.89014	0.05740
776.60437	0.05755
775.31860	0.05757
774.03283	0.05749
772.74706	0.05738
771.46130	0.05731
770.17553	0.05734
768.88976	0.05746
767.60399	0.05761
766.31822	0.05774
765.03245	0.05783
763.74668	0.05792
762.46091	0.05805
761.17515	0.05823
759.88938	0.05843
758.60361	0.05859
757.31784	0.05865
756.03207	0.05865
754.74630	0.05868
753.46053	0.05883
752.17476	0.05909
750.88899	0.05944
749.60323	0.05980
748.31746	0.06010
747.03169	0.06034
745.74592	0.06052
744.46015	0.06072
743.17438	0.06094
741.88861	0.06118
740.60284	0.06138
739.31708	0.06152
738.03131	0.06159
736.74554	0.06159
735.45977	0.06152
734.17400	0.06143
732.88823	0.06139
731.60246	0.06146
730.31669	0.06164
729.03092	0.06187
727.74516	0.06208
726.45939	0.06227
725.17362	0.06244
723.88785	0.06250
722.60208	0.06269
721.31631	0.06293
720.03054	0.06317
718.74477	0.06339
717.45901	0.06353
716.17324	0.06353
714.88747	0.06341
713.60170	0.06325
712.31593	0.06314
711.03016	0.06310
709.74439	0.06315
708.45862	0.06328
707.17285	0.06349
705.88709	0.06377
704.60132	0.06406
703.31555	0.06434
702.02978	0.06461
700.74401	0.06486
699.45824	0.06506
698.17247	0.06517
696.88670	0.06517
695.60094	0.06511
694.31517	0.06503
693.02940	0.06498
691.74363	0.06496
690.45786	0.06497
689.17209	0.06503
687.88632	0.06509
686.60055	0.06513
685.31478	0.06513
684.02902	0.06514
682.74325	0.06525
681.45748	0.06544
680.17171	0.06566
678.88594	0.06585
677.60017	0.06597
676.31440	0.06605
675.02863	0.06614
673.74287	0.06626
672.45710	0.06641
671.17133	0.06655
669.88556	0.06667
668.59979	0.06673
667.31402	0.06677
666.02825	0.06690
664.74248	0.06706
663.45671	0.06722
662.17095	0.06736
660.88518	0.06742
659.59941	0.06742
658.31364	0.06739
657.02787	0.06736
655.74210	0.06737
654.45633	0.06744
653.17056	0.06753
651.88480	0.06759
650.59903	0.06761
649.31326	0.06763
648.02749	0.06771
646.74172	0.06781
645.45595	0.06789
644.17018	0.06788
642.88441	0.06776
641.59864	0.06756
640.31288	0.06738
639.02711	0.06729
637.74134	0.06731
636.45557	0.06740
635.16980	0.06751
633.88403	0.06752
632.59826	0.06731
631.31249	0.06739
630.02673	0.06991
628.74096	0.07391
627.45519	0.07100
626.16942	0.07547
624.88365	0.08478
623.59788	0.09320
622.31211	0.09841
621.02634	0.09939
619.74057	0.09592
618.45481	0.08916
617.16904	0.08130
615.88327	0.07435
614.59750	0.06944
613.31173	0.06695
612.02596	0.06711
610.74019	0.06986
609.45442	0.07428
608.16866	0.07883
606.88289	0.08235
605.59712	0.08440
604.31135	0.08505
603.02558	0.08467
601.73981	0.08373
600.45404	0.08257
599.16827	0.08129
597.88250	0.08000
596.59674	0.07889
595.31097	0.07820
594.02520	0.07798
592.73943	0.07807
591.45366	0.07824
590.16789	0.07835
588.88212	0.07849
587.59635	0.07881
586.31059	0.07935
585.02482	0.08000
583.73905	0.08068
582.45328	0.08136
581.16751	0.08198
579.88174	0.08248
578.59597	0.08283
577.31020	0.08308
576.02443	0.08343
574.73867	0.08402
573.45290	0.08486
572.16713	0.08583
570.88136	0.08683
569.59559	0.08784
568.30982	0.08884
567.02405	0.08968
565.73828	0.09018
564.45251	0.09031
563.16675	0.09024
561.88098	0.09016
560.59521	0.09014
559.30944	0.09010
558.02367	0.09000
556.73790	0.08985
555.45213	0.08970
554.16636	0.08960
552.88060	0.08960
551.59483	0.08974
550.30906	0.09004
549.02329	0.09045
547.73752	0.09091
546.45175	0.09139
545.16598	0.09184
543.88021	0.09218
542.59444	0.09242
541.30868	0.09261
540.02291	0.09284
538.73714	0.09316
537.45137	0.09363
536.16560	0.09426
534.87983	0.09502
533.59406	0.09578
532.30829	0.09641
531.02253	0.09684
529.73676	0.09712
528.45099	0.09731
527.16522	0.09750
525.87945	0.09768
524.59368	0.09784
523.30791	0.09799
522.02214	0.09814
520.73637	0.09825
519.45061	0.09827
518.16484	0.09818
516.87907	0.09802
515.59330	0.09784
514.30753	0.09762
513.02176	0.09729
511.73599	0.09687
510.45022	0.09644
509.16446	0.09608
507.87869	0.09581
506.59292	0.09551
505.30715	0.09503
504.02138	0.09427
502.73561	0.09324
501.44984	0.09211
500.16407	0.09101
498.87830	0.08999
497.59254	0.08900
496.30677	0.08800
495.02100	0.08697
493.73523	0.08592
492.44946	0.08492
491.16369	0.08400
489.87792	0.08311
488.59215	0.08214
487.30639	0.08108
486.02062	0.08002
484.73485	0.07900
483.44908	0.07803
482.16331	0.07707
480.87754	0.07615
479.59177	0.07535
478.30600	0.07471
477.02023	0.07422
475.73447	0.07382
474.44870	0.07339
473.16293	0.07288
471.87716	0.07234
470.59139	0.07184
469.30562	0.07143
468.01985	0.07105
466.73408	0.07060
465.44832	0.07007
464.16255	0.06951
462.87678	0.06901
461.59101	0.06857
460.30524	0.06816
459.01947	0.06774
457.73370	0.06734
456.44793	0.06699
455.16216	0.06668
453.87640	0.06641
452.59063	0.06616
451.30486	0.06592
450.01909	0.06565
448.73332	0.06533
447.44755	0.06501
446.16178	0.06470
444.87601	0.06439
443.59025	0.06407
442.30448	0.06375
441.01871	0.06346
439.73294	0.06323
438.44717	0.06306
437.16140	0.06293
435.87563	0.06281
434.58986	0.06271
433.30409	0.06260
432.01833	0.06248
430.73256	0.06235
429.44679	0.06221
428.16102	0.06205
426.87525	0.06185
425.58948	0.06160
424.30371	0.06130
423.01794	0.06096
421.73218	0.06062
420.44641	0.06032
419.16064	0.06011
417.87487	0.05998
416.58910	0.05981
415.30333	0.05955
414.01756	0.05922
412.73179	0.05888
411.44602	0.05858
410.16026	0.05830
408.87449	0.05804
407.58872	0.05777
406.30295	0.05749
405.01718	0.05717
403.73141	0.05684
402.44564	0.05649
401.15987	0.05611
399.87411	0.05569
