3997.45528	0.03542
3996.16951	0.03498
3994.88374	0.03470
3993.59798	0.03481
3992.31221	0.03525
3991.02644	0.03575
3989.74067	0.03606
3988.45490	0.03619
3987.16913	0.03633
3985.88336	0.03659
3984.59759	0.03694
3983.31183	0.03718
3982.02606	0.03711
3980.74029	0.03669
3979.45452	0.03609
3978.16875	0.03552
3976.88298	0.03510
3975.59721	0.03488
3974.31144	0.03486
3973.02567	0.03499
3971.73991	0.03523
3970.45414	0.03564
3969.16837	0.03622
3967.88260	0.03676
3966.59683	0.03691
3965.31106	0.03651
3964.02529	0.03573
3962.73952	0.03491
3961.45376	0.03430
3960.16799	0.03397
3958.88222	0.03386
3957.59645	0.03390
3956.31068	0.03402
3955.02491	0.03418
3953.73914	0.03438
3952.45337	0.03467
3951.16760	0.03505
3949.88184	0.03541
3948.59607	0.03560
3947.31030	0.03555
3946.02453	0.03535
3944.73876	0.03518
3943.45299	0.03519
3942.16722	0.03531
3940.88145	0.03537
3939.59569	0.03526
3938.30992	0.03505
3937.02415	0.03482
3935.73838	0.03458
3934.45261	0.03431
3933.16684	0.03406
3931.88107	0.03389
3930.59530	0.03382
3929.30953	0.03388
3928.02377	0.03408
3926.73800	0.03437
3925.45223	0.03466
3924.16646	0.03489
3922.88069	0.03499
3921.59492	0.03493
3920.30915	0.03477
3919.02338	0.03455
3917.73762	0.03430
3916.45185	0.03409
3915.16608	0.03402
3913.88031	0.03422
3912.59454	0.03471
3911.30877	0.03528
3910.02300	0.03564
3908.73723	0.03569
3907.45146	0.03554
3906.16570	0.03535
3904.87993	0.03516
3903.59416	0.03490
3902.30839	0.03446
3901.02262	0.03385
3899.73685	0.03331
3898.45108	0.03317
3897.16531	0.03355
3895.87955	0.03429
3894.59378	0.03504
3893.30801	0.03552
3892.02224	0.03563
3890.73647	0.03546
3889.45070	0.03510
3888.16493	0.03459
3886.87916	0.03404
3885.59339	0.03371
3884.30763	0.03366
3883.02186	0.03364
3881.73609	0.03339
3880.45032	0.03297
3879.16455	0.03261
3877.87878	0.03248
3876.59301	0.03265
3875.30724	0.03314
3874.02148	0.03382
3872.73571	0.03442
3871.44994	0.03469
3870.16417	0.03469
3868.87840	0.03454
3867.59263	0.03415
3866.30686	0.03345
3865.02109	0.03270
3863.73532	0.03223
3862.44956	0.03210
3861.16379	0.03224
3859.87802	0.03257
3858.59225	0.03298
3857.30648	0.03325
3856.02071	0.03314
3854.73494	0.03273
3853.44917	0.03243
3852.16341	0.03247
3850.87764	0.03261
3849.59187	0.03255
3848.30610	0.03227
3847.02033	0.03207
3845.73456	0.03215
3844.44879	0.03252
3843.16302	0.03296
3841.87725	0.03320
3840.59149	0.03306
3839.30572	0.03256
3838.01995	0.03204
3836.73418	0.03189
3835.44841	0.03218
3834.16264	0.03272
3832.87687	0.03322
3831.59110	0.03347
3830.30534	0.03342
3829.01957	0.03318
3827.73380	0.03300
3826.44803	0.03305
3825.16226	0.03320
3823.87649	0.03310
3822.59072	0.03259
3821.30495	0.03199
3820.01918	0.03173
3818.73342	0.03179
3817.44765	0.03191
3816.16188	0.03202
3814.87611	0.03223
3813.59034	0.03245
3812.30457	0.03258
3811.01880	0.03257
3809.73303	0.03233
3808.44726	0.03189
3807.16150	0.03159
3805.87573	0.03178
3804.58996	0.03235
3803.30419	0.03282
3802.01842	0.03295
3800.73265	0.03280
3799.44688	0.03248
3798.16111	0.03217
3796.87535	0.03214
3795.58958	0.03245
3794.30381	0.03271
3793.01804	0.03260
3791.73227	0.03226
3790.44650	0.03214
3789.16073	0.03248
3787.87496	0.03308
3786.58919	0.03338
3785.30343	0.03300
3784.01766	0.03210
3782.73189	0.03123
3781.44612	0.03088
3780.16035	0.03107
3778.87458	0.03148
3777.58881	0.03177
3776.30304	0.03191
3775.01728	0.03205
3773.73151	0.03219
3772.44574	0.03220
3771.15997	0.03193
3769.87420	0.03139
3768.58843	0.03076
3767.30266	0.03026
3766.01689	0.03017
3764.73112	0.03049
3763.44536	0.03088
3762.15959	0.03091
3760.87382	0.03056
3759.58805	0.03021
3758.30228	0.03013
3757.01651	0.03026
3755.73074	0.03035
3754.44497	0.03021
3753.15921	0.02996
3751.87344	0.02984
3750.58767	0.02993
3749.30190	0.03022
3748.01613	0.03065
3746.73036	0.03099
3745.44459	0.03113
3744.15882	0.03117
3742.87305	0.03106
3741.58729	0.03060
3740.30152	0.02995
3739.01575	0.02946
3737.72998	0.02934
3736.44421	0.02966
3735.15844	0.03037
3733.87267	0.03123
3732.58690	0.03195
3731.30114	0.03231
3730.01537	0.03213
3728.72960	0.03140
3727.44383	0.03048
3726.15806	0.02992
3724.87229	0.02991
3723.58652	0.03017
3722.30075	0.03035
3721.01498	0.03034
3719.72922	0.03026
3718.44345	0.03023
3717.15768	0.03029
3715.87191	0.03031
3714.58614	0.03014
3713.30037	0.02982
3712.01460	0.02966
3710.72883	0.02987
3709.44307	0.03029
3708.15730	0.03049
3706.87153	0.03027
3705.58576	0.02984
3704.29999	0.02961
3703.01422	0.02984
3701.72845	0.03045
3700.44268	0.03109
3699.15691	0.03131
3697.87115	0.03091
3696.58538	0.03015
3695.29961	0.02961
3694.01384	0.02976
3692.72807	0.03051
3691.44230	0.03132
3690.15653	0.03165
3688.87076	0.03144
3687.58500	0.03097
3686.29923	0.03047
3685.01346	0.03008
3683.72769	0.03002
3682.44192	0.03037
3681.15615	0.03090
3679.87038	0.03133
3678.58461	0.03139
3677.29884	0.03095
3676.01308	0.03017
3674.72731	0.02948
3673.44154	0.02916
3672.15577	0.02925
3670.87000	0.02978
3669.58423	0.03059
3668.29846	0.03120
3667.01269	0.03121
3665.72693	0.03076
3664.44116	0.03039
3663.15539	0.03051
3661.86962	0.03111
3660.58385	0.03189
3659.29808	0.03252
3658.01231	0.03283
3656.72654	0.03292
3655.44077	0.03294
3654.15501	0.03289
3652.86924	0.03269
3651.58347	0.03233
3650.29770	0.03201
3649.01193	0.03188
3647.72616	0.03202
3646.44039	0.03239
3645.15462	0.03291
3643.86886	0.03346
3642.58309	0.03396
3641.29732	0.03436
3640.01155	0.03460
3638.72578	0.03465
3637.44001	0.03456
3636.15424	0.03447
3634.86847	0.03459
3633.58270	0.03503
3632.29694	0.03564
3631.01117	0.03612
3629.72540	0.03635
3628.43963	0.03644
3627.15386	0.03654
3625.86809	0.03668
3624.58232	0.03688
3623.29655	0.03710
3622.01079	0.03722
3620.72502	0.03714
3619.43925	0.03704
3618.15348	0.03724
3616.86771	0.03783
3615.58194	0.03861
3614.29617	0.03924
3613.01040	0.03944
3611.72463	0.03920
3610.43887	0.03875
3609.15310	0.03841
3607.86733	0.03841
3606.58156	0.03868
3605.29579	0.03905
3604.01002	0.03940
3602.72425	0.03971
3601.43848	0.04005
3600.15272	0.04056
3598.86695	0.04126
3597.58118	0.04195
3596.29541	0.04234
3595.00964	0.04240
3593.72387	0.04239
3592.43810	0.04266
3591.15233	0.04320
3589.86656	0.04372
3588.58080	0.04399
3587.29503	0.04408
3586.00926	0.04426
3584.72349	0.04464
3583.43772	0.04510
3582.15195	0.04545
3580.86618	0.04569
3579.58041	0.04589
3578.29464	0.04611
3577.00888	0.04644
3575.72311	0.04698
3574.43734	0.04776
3573.15157	0.04856
3571.86580	0.04906
3570.58003	0.04908
3569.29426	0.04883
3568.00849	0.04867
3566.72273	0.04880
3565.43696	0.04915
3564.15119	0.04954
3562.86542	0.04997
3561.57965	0.05048
3560.29388	0.05097
3559.00811	0.05133
3557.72234	0.05150
3556.43657	0.05158
3555.15081	0.05171
3553.86504	0.05184
3552.57927	0.05185
3551.29350	0.05173
3550.00773	0.05175
3548.72196	0.05220
3547.43619	0.05311
3546.15042	0.05420
3544.86466	0.05507
3543.57889	0.05546
3542.29312	0.05543
3541.00735	0.05522
3539.72158	0.05514
3538.43581	0.05534
3537.15004	0.05579
3535.86427	0.05634
3534.57850	0.05684
3533.29274	0.05721
3532.00697	0.05744
3530.72120	0.05763
3529.43543	0.05796
3528.14966	0.05848
3526.86389	0.05910
3525.57812	0.05964
3524.29235	0.06005
3523.00659	0.06044
3521.72082	0.06086
3520.43505	0.06130
3519.14928	0.06169
3517.86351	0.06199
3516.57774	0.06215
3515.29197	0.06214
3514.00620	0.06201
3512.72043	0.06196
3511.43467	0.06224
3510.14890	0.06289
3508.86313	0.06372
3507.57736	0.06435
3506.29159	0.06457
3505.00582	0.06449
3503.72005	0.06446
3502.43428	0.06466
3501.14852	0.06506
3499.86275	0.06549
3498.57698	0.06590
3497.29121	0.06630
3496.00544	0.06675
3494.71967	0.06723
3493.43390	0.06771
3492.14813	0.06816
3490.86236	0.06851
3489.57660	0.06878
3488.29083	0.06905
3487.00506	0.06935
3485.71929	0.06963
3484.43352	0.06982
3483.14775	0.06998
3481.86198	0.07025
3480.57621	0.07070
3479.29045	0.07120
3478.00468	0.07158
3476.71891	0.07175
3475.43314	0.07180
3474.14737	0.07185
3472.86160	0.07191
3471.57583	0.07190
3470.29006	0.07180
3469.00429	0.07177
3467.71853	0.07193
3466.43276	0.07220
3465.14699	0.07242
3463.86122	0.07259
3462.57545	0.07289
3461.28968	0.07342
3460.00391	0.07404
3458.71814	0.07445
3457.43238	0.07451
3456.14661	0.07439
3454.86084	0.07439
3453.57507	0.07464
3452.28930	0.07493
3451.00353	0.07501
3449.71776	0.07493
3448.43199	0.07500
3447.14622	0.07535
3445.86046	0.07576
3444.57469	0.07603
3443.28892	0.07630
3442.00315	0.07687
3440.71738	0.07773
3439.43161	0.07858
3438.14584	0.07907
3436.86007	0.07911
3435.57431	0.07885
3434.28854	0.07852
3433.00277	0.07835
3431.71700	0.07840
3430.43123	0.07859
3429.14546	0.07888
3427.85969	0.07933
3426.57392	0.07995
3425.28815	0.08059
3424.00239	0.08103
3422.71662	0.08120
3421.43085	0.08122
3420.14508	0.08126
3418.85931	0.08139
3417.57354	0.08161
3416.28777	0.08195
3415.00200	0.08232
3413.71624	0.08264
3412.43047	0.08291
3411.14470	0.08323
3409.85893	0.08365
3408.57316	0.08406
3407.28739	0.08434
3406.00162	0.08454
3404.71585	0.08487
3403.43008	0.08540
3402.14432	0.08604
3400.85855	0.08657
3399.57278	0.08685
3398.28701	0.08694
3397.00124	0.08698
3395.71547	0.08710
3394.42970	0.08736
3393.14393	0.08778
3391.85817	0.08837
3390.57240	0.08906
3389.28663	0.08973
3388.00086	0.09025
3386.71509	0.09055
3385.42932	0.09062
3384.14355	0.09059
3382.85778	0.09059
3381.57201	0.09073
3380.28625	0.09112
3379.00048	0.09170
3377.71471	0.09222
3376.42894	0.09242
3375.14317	0.09229
3373.85740	0.09213
3372.57163	0.09230
3371.28586	0.09294
3370.00010	0.09392
3368.71433	0.09492
3367.42856	0.09561
3366.14279	0.09589
3364.85702	0.09594
3363.57125	0.09604
3362.28548	0.09635
3360.99971	0.09677
3359.71394	0.09717
3358.42818	0.09755
3357.14241	0.09801
3355.85664	0.09861
3354.57087	0.09933
3353.28510	0.10010
3351.99933	0.10084
3350.71356	0.10146
3349.42779	0.10194
3348.14202	0.10237
3346.85626	0.10290
3345.57049	0.10357
3344.28472	0.10429
3342.99895	0.10487
3341.71318	0.10525
3340.42741	0.10555
3339.14164	0.10597
3337.85587	0.10660
3336.57011	0.10731
3335.28434	0.10784
3333.99857	0.10808
3332.71280	0.10816
3331.42703	0.10834
3330.14126	0.10883
3328.85549	0.10958
3327.56972	0.11033
3326.28395	0.11085
3324.99819	0.11108
3323.71242	0.11121
3322.42665	0.11142
3321.14088	0.11181
3319.85511	0.11226
3318.56934	0.11259
3317.28357	0.11276
3315.99780	0.11285
3314.71204	0.11297
3313.42627	0.11320
3312.14050	0.11361
3310.85473	0.11421
3309.56896	0.11500
3308.28319	0.11584
3306.99742	0.11655
3305.71165	0.11693
3304.42588	0.11691
3303.14012	0.11668
3301.85435	0.11660
3300.56858	0.11689
3299.28281	0.11750
3297.99704	0.11815
3296.71127	0.11857
3295.42550	0.11861
3294.13973	0.11835
3292.85397	0.11806
3291.56820	0.11802
3290.28243	0.11834
3288.99666	0.11889
3287.71089	0.11936
3286.42512	0.11953
3285.13935	0.11938
3283.85358	0.11905
3282.56781	0.11872
3281.28205	0.11852
3279.99628	0.11852
3278.71051	0.11863
3277.42474	0.11879
3276.13897	0.11896
3274.85320	0.11916
3273.56743	0.11935
3272.28166	0.11940
3270.99590	0.11921
3269.71013	0.11879
3268.42436	0.11826
3267.13859	0.11776
3265.85282	0.11739
3264.56705	0.11717
3263.28128	0.11702
3261.99551	0.11681
3260.70974	0.11643
3259.42398	0.11590
3258.13821	0.11537
3256.85244	0.11497
3255.56667	0.11476
3254.28090	0.11473
3252.99513	0.11482
3251.70936	0.11498
3250.42359	0.11509
3249.13783	0.11499
3247.85206	0.11459
3246.56629	0.11395
3245.28052	0.11326
3243.99475	0.11268
3242.70898	0.11226
3241.42321	0.11192
3240.13744	0.11163
3238.85167	0.11143
3237.56591	0.11128
3236.28014	0.11114
3234.99437	0.11097
3233.70860	0.11079
3232.42283	0.11066
3231.13706	0.11061
3229.85129	0.11060
3228.56552	0.11056
3227.27976	0.11036
3225.99399	0.10994
3224.70822	0.10939
3223.42245	0.10895
3222.13668	0.10880
3220.85091	0.10895
3219.56514	0.10919
3218.27937	0.10927
3216.99360	0.10904
3215.70784	0.10864
3214.42207	0.10835
3213.13630	0.10832
3211.85053	0.10838
3210.56476	0.10827
3209.27899	0.10786
3207.99322	0.10728
3206.70745	0.10672
3205.42169	0.10633
3204.13592	0.10614
3202.85015	0.10611
3201.56438	0.10611
3200.27861	0.10604
3198.99284	0.10588
3197.70707	0.10566
3196.42130	0.10535
3195.13553	0.10491
3193.84977	0.10439
3192.56400	0.10397
3191.27823	0.10376
3189.99246	0.10370
3188.70669	0.10370
3187.42092	0.10368
3186.13515	0.10361
3184.84938	0.10339
3183.56362	0.10293
3182.27785	0.10235
3180.99208	0.10191
3179.70631	0.10168
3178.42054	0.10150
3177.13477	0.10116
3175.84900	0.10065
3174.56323	0.10011
3173.27746	0.09970
3171.99170	0.09949
3170.70593	0.09939
3169.42016	0.09921
3168.13439	0.09887
3166.84862	0.09856
3165.56285	0.09843
3164.27708	0.09834
3162.99131	0.09796
3161.70555	0.09719
3160.41978	0.09631
3159.13401	0.09566
3157.84824	0.09533
3156.56247	0.09516
3155.27670	0.09500
3153.99093	0.09479
3152.70516	0.09454
3151.41939	0.09426
3150.13363	0.09395
3148.84786	0.09368
3147.56209	0.09347
3146.27632	0.09327
3144.99055	0.09298
3143.70478	0.09262
3142.41901	0.09228
3141.13324	0.09202
3139.84748	0.09173
3138.56171	0.09133
3137.27594	0.09083
3135.99017	0.09038
3134.70440	0.09004
3133.41863	0.08978
3132.13286	0.08961
3130.84709	0.08956
3129.56132	0.08967
3128.27556	0.08987
3126.98979	0.09000
3125.70402	0.08991
3124.41825	0.08956
3123.13248	0.08906
3121.84671	0.08856
3120.56094	0.08816
3119.27517	0.08789
3117.98940	0.08778
3116.70364	0.08790
3115.41787	0.08820
3114.13210	0.08849
3112.84633	0.08852
3111.56056	0.08824
3110.27479	0.08782
3108.98902	0.08756
3107.70325	0.08761
3106.41749	0.08793
3105.13172	0.08833
3103.84595	0.08862
3102.56018	0.08874
3101.27441	0.08878
3099.98864	0.08890
3098.70287	0.08915
3097.41710	0.08945
3096.13133	0.08966
3094.84557	0.08973
3093.55980	0.08973
3092.27403	0.08982
3090.98826	0.09004
3089.70249	0.09036
3088.41672	0.09061
3087.13095	0.09072
3085.84518	0.09070
3084.55942	0.09064
3083.27365	0.09061
3081.98788	0.09065
3080.70211	0.09079
3079.41634	0.09102
3078.13057	0.09127
3076.84480	0.09145
3075.55903	0.09155
3074.27326	0.09159
3072.98750	0.09164
3071.70173	0.09169
3070.41596	0.09166
3069.13019	0.09154
3067.84442	0.09131
3066.55865	0.09105
3065.27288	0.09083
3063.98711	0.09071
3062.70135	0.09069
3061.41558	0.09077
3060.12981	0.09092
3058.84404	0.09101
3057.55827	0.09087
3056.27250	0.09048
3054.98673	0.09006
3053.70096	0.08988
3052.41519	0.08994
3051.12943	0.08997
3049.84366	0.08971
3048.55789	0.08918
3047.27212	0.08860
3045.98635	0.08817
3044.70058	0.08794
3043.41481	0.08787
3042.12904	0.08799
3040.84328	0.08827
3039.55751	0.08855
3038.27174	0.08863
3036.98597	0.08842
3035.70020	0.08796
3034.41443	0.08738
3033.12866	0.08676
3031.84289	0.08615
3030.55712	0.08555
3029.27136	0.08498
3027.98559	0.08447
3026.69982	0.08404
3025.41405	0.08369
3024.12828	0.08333
3022.84251	0.08291
3021.55674	0.08253
3020.27097	0.08236
3018.98521	0.08244
3017.69944	0.08256
3016.41367	0.08253
3015.12790	0.08233
3013.84213	0.08208
3012.55636	0.08186
3011.27059	0.08173
3009.98482	0.08172
3008.69905	0.08185
3007.41329	0.08199
3006.12752	0.08201
3004.84175	0.08181
3003.55598	0.08153
3002.27021	0.08130
3000.98444	0.08113
2999.69867	0.08094
2998.41290	0.08088
2997.12714	0.08095
2995.84137	0.08122
2994.55560	0.08161
2993.26983	0.08200
2991.98406	0.08224
2990.69829	0.08230
2989.41252	0.08223
2988.12675	0.08212
2986.84098	0.08211
2985.55522	0.08236
2984.26945	0.08288
2982.98368	0.08356
2981.69791	0.08422
2980.41214	0.08473
2979.12637	0.08503
2977.84060	0.08514
2976.55483	0.08521
2975.26907	0.08545
2973.98330	0.08590
2972.69753	0.08641
2971.41176	0.08678
2970.12599	0.08702
2968.84022	0.08723
2967.55445	0.08747
2966.26868	0.08773
2964.98291	0.08802
2963.69715	0.08839
2962.41138	0.08880
2961.12561	0.08911
2959.83984	0.08926
2958.55407	0.08931
2957.26830	0.08941
2955.98253	0.08952
2954.69676	0.08944
2953.41100	0.08910
2952.12523	0.08874
2950.83946	0.08871
2949.55369	0.08909
2948.26792	0.08959
2946.98215	0.08983
2945.69638	0.08975
2944.41061	0.08956
2943.12484	0.08947
2941.83908	0.08955
2940.55331	0.08976
2939.26754	0.09008
2937.98177	0.09053
2936.69600	0.09107
2935.41023	0.09155
2934.12446	0.09182
2932.83869	0.09190
2931.55293	0.09194
2930.26716	0.09204
2928.98139	0.09217
2927.69562	0.09222
2926.40985	0.09211
2925.12408	0.09191
2923.83831	0.09173
2922.55254	0.09165
2921.26677	0.09164
2919.98101	0.09160
2918.69524	0.09140
2917.40947	0.09096
2916.12370	0.09032
2914.83793	0.08962
2913.55216	0.08894
2912.26639	0.08821
2910.98062	0.08735
2909.69486	0.08641
2908.40909	0.08555
2907.12332	0.08489
2905.83755	0.08442
2904.55178	0.08405
2903.26601	0.08376
2901.98024	0.08354
2900.69447	0.08342
2899.40870	0.08336
2898.12294	0.08326
2896.83717	0.08301
2895.55140	0.08259
2894.26563	0.08209
2892.97986	0.08169
2891.69409	0.08147
2890.40832	0.08141
2889.12255	0.08146
2887.83678	0.08159
2886.55102	0.08177
2885.26525	0.08191
2883.97948	0.08197
2882.69371	0.08195
2881.40794	0.08188
2880.12217	0.08183
2878.83640	0.08184
2877.55063	0.08189
2876.26487	0.08195
2874.97910	0.08197
2873.69333	0.08193
2872.40756	0.08185
2871.12179	0.08173
2869.83602	0.08159
2868.55025	0.08142
2867.26448	0.08121
2865.97871	0.08100
2864.69295	0.08080
2863.40718	0.08065
2862.12141	0.08046
2860.83564	0.08011
2859.54987	0.07963
2858.26410	0.07918
2856.97833	0.07894
2855.69256	0.07892
2854.40680	0.07900
2853.12103	0.07900
2851.83526	0.07878
2850.54949	0.07832
2849.26372	0.07773
2847.97795	0.07717
2846.69218	0.07669
2845.40641	0.07623
2844.12064	0.07572
2842.83488	0.07521
2841.54911	0.07481
2840.26334	0.07456
2838.97757	0.07438
2837.69180	0.07417
2836.40603	0.07391
2835.12026	0.07370
2833.83449	0.07358
2832.54873	0.07347
2831.26296	0.07324
2829.97719	0.07290
2828.69142	0.07254
2827.40565	0.07225
2826.11988	0.07201
2824.83411	0.07172
2823.54834	0.07137
2822.26257	0.07111
2820.97681	0.07106
2819.69104	0.07120
2818.40527	0.07132
2817.11950	0.07125
2815.83373	0.07099
2814.54796	0.07068
2813.26219	0.07043
2811.97642	0.07028
2810.69066	0.07021
2809.40489	0.07023
2808.11912	0.07030
2806.83335	0.07033
2805.54758	0.07027
2804.26181	0.07012
2802.97604	0.06995
2801.69027	0.06980
2800.40450	0.06960
2799.11874	0.06926
2797.83297	0.06876
2796.54720	0.06822
2795.26143	0.06783
2793.97566	0.06765
2792.68989	0.06764
2791.40412	0.06770
2790.11835	0.06778
2788.83259	0.06781
2787.54682	0.06775
2786.26105	0.06763
2784.97528	0.06751
2783.68951	0.06744
2782.40374	0.06742
2781.11797	0.06739
2779.83220	0.06728
2778.54643	0.06706
2777.26067	0.06677
2775.97490	0.06650
2774.68913	0.06629
2773.40336	0.06616
2772.11759	0.06608
2770.83182	0.06600
2769.54605	0.06587
2768.26028	0.06568
2766.97452	0.06546
2765.68875	0.06527
2764.40298	0.06515
2763.11721	0.06501
2761.83144	0.06479
2760.54567	0.06451
2759.25990	0.06430
2757.97413	0.06423
2756.68836	0.06421
2755.40260	0.06412
2754.11683	0.06393
2752.83106	0.06377
2751.54529	0.06379
2750.25952	0.06392
2748.97375	0.06395
2747.68798	0.06370
2746.40221	0.06330
2745.11645	0.06293
2743.83068	0.06267
2742.54491	0.06247
2741.25914	0.06226
2739.97337	0.06210
2738.68760	0.06200
2737.40183	0.06196
2736.11606	0.06197
2734.83029	0.06201
2733.54453	0.06205
2732.25876	0.06206
2730.97299	0.06202
2729.68722	0.06189
2728.40145	0.06163
2727.11568	0.06125
2725.82991	0.06084
2724.54414	0.06053
2723.25838	0.06043
2721.97261	0.06050
2720.68684	0.06063
2719.40107	0.06072
2718.11530	0.06074
2716.82953	0.06069
2715.54376	0.06057
2714.25799	0.06037
2712.97222	0.06007
2711.68646	0.05971
2710.40069	0.05936
2709.11492	0.05912
2707.82915	0.05900
2706.54338	0.05897
2705.25761	0.05896
2703.97184	0.05897
2702.68607	0.05901
2701.40031	0.05901
2700.11454	0.05889
2698.82877	0.05863
2697.54300	0.05833
2696.25723	0.05813
2694.97146	0.05806
2693.68569	0.05804
2692.39992	0.05798
2691.11415	0.05785
2689.82839	0.05771
2688.54262	0.05760
2687.25685	0.05748
2685.97108	0.05733
2684.68531	0.05715
2683.39954	0.05699
2682.11377	0.05685
2680.82800	0.05671
2679.54224	0.05654
2678.25647	0.05639
2676.97070	0.05630
2675.68493	0.05626
2674.39916	0.05616
2673.11339	0.05591
2671.82762	0.05562
2670.54185	0.05551
2669.25608	0.05567
2667.97032	0.05599
2666.68455	0.05623
2665.39878	0.05625
2664.11301	0.05608
2662.82724	0.05587
2661.54147	0.05572
2660.25570	0.05567
2658.96993	0.05565
2657.68417	0.05562
2656.39840	0.05551
2655.11263	0.05529
2653.82686	0.05497
2652.54109	0.05460
2651.25532	0.05428
2649.96955	0.05406
2648.68378	0.05394
2647.39801	0.05384
2646.11225	0.05372
2644.82648	0.05355
2643.54071	0.05333
2642.25494	0.05305
2640.96917	0.05279
2639.68340	0.05263
2638.39763	0.05258
2637.11186	0.05254
2635.82609	0.05242
2634.54033	0.05219
2633.25456	0.05188
2631.96879	0.05154
2630.68302	0.05123
2629.39725	0.05100
2628.11148	0.05086
2626.82571	0.05079
2625.53994	0.05072
2624.25418	0.05061
2622.96841	0.05044
2621.68264	0.05030
2620.39687	0.05030
2619.11110	0.05046
2617.82533	0.05068
2616.53956	0.05077
2615.25379	0.05056
2613.96802	0.05000
2612.68226	0.04922
2611.39649	0.04852
2610.11072	0.04811
2608.82495	0.04801
2607.53918	0.04803
2606.25341	0.04799
2604.96764	0.04786
2603.68187	0.04771
2602.39611	0.04759
2601.11034	0.04751
2599.82457	0.04743
2598.53880	0.04734
2597.25303	0.04727
2595.96726	0.04718
2594.68149	0.04706
2593.39572	0.04694
2592.10995	0.04689
2590.82419	0.04687
2589.53842	0.04682
2588.25265	0.04665
2586.96688	0.04636
2585.68111	0.04601
2584.39534	0.04575
2583.10957	0.04571
2581.82380	0.04589
2580.53804	0.04614
2579.25227	0.04630
2577.96650	0.04635
2576.68073	0.04640
2575.39496	0.04650
2574.10919	0.04653
2572.82342	0.04631
2571.53765	0.04582
2570.25188	0.04534
2568.96612	0.04517
2567.68035	0.04534
2566.39458	0.04558
2565.10881	0.04566
2563.82304	0.04560
2562.53727	0.04556
2561.25150	0.04557
2559.96573	0.04554
2558.67997	0.04541
2557.39420	0.04525
2556.10843	0.04512
2554.82266	0.04501
2553.53689	0.04486
2552.25112	0.04464
2550.96535	0.04438
2549.67958	0.04411
2548.39381	0.04387
2547.10805	0.04358
2545.82228	0.04322
2544.53651	0.04286
2543.25074	0.04265
2541.96497	0.04261
2540.67920	0.04264
2539.39343	0.04269
2538.10766	0.04283
2536.82190	0.04306
2535.53613	0.04317
2534.25036	0.04294
2532.96459	0.04247
2531.67882	0.04207
2530.39305	0.04201
2529.10728	0.04220
2527.82151	0.04236
2526.53574	0.04233
2525.24998	0.04218
2523.96421	0.04210
2522.67844	0.04217
2521.39267	0.04229
2520.10690	0.04239
2518.82113	0.04254
2517.53536	0.04283
2516.24959	0.04322
2514.96383	0.04351
2513.67806	0.04351
2512.39229	0.04319
2511.10652	0.04267
2509.82075	0.04207
2508.53498	0.04153
2507.24921	0.04118
2505.96344	0.04102
2504.67767	0.04099
2503.39191	0.04102
2502.10614	0.04118
2500.82037	0.04146
2499.53460	0.04168
2498.24883	0.04167
2496.96306	0.04149
2495.67729	0.04134
2494.39152	0.04133
2493.10576	0.04144
2491.81999	0.04156
2490.53422	0.04161
2489.24845	0.04147
2487.96268	0.04107
2486.67691	0.04053
2485.39114	0.04009
2484.10537	0.04000
2482.81960	0.04028
2481.53384	0.04072
2480.24807	0.04109
2478.96230	0.04129
2477.67653	0.04134
2476.39076	0.04133
2475.10499	0.04135
2473.81922	0.04144
2472.53345	0.04153
2471.24769	0.04150
2469.96192	0.04132
2468.67615	0.04111
2467.39038	0.04101
2466.10461	0.04097
2464.81884	0.04084
2463.53307	0.04058
2462.24730	0.04038
2460.96153	0.04035
2459.67577	0.04039
2458.39000	0.04038
2457.10423	0.04033
2455.81846	0.04038
2454.53269	0.04055
2453.24692	0.04075
2451.96115	0.04089
2450.67538	0.04097
2449.38962	0.04098
2448.10385	0.04095
2446.81808	0.04086
2445.53231	0.04072
2444.24654	0.04052
2442.96077	0.04032
2441.67500	0.04023
2440.38923	0.04030
2439.10346	0.04049
2437.81770	0.04069
2436.53193	0.04081
2435.24616	0.04082
2433.96039	0.04073
2432.67462	0.04061
2431.38885	0.04053
2430.10308	0.04057
2428.81731	0.04065
2427.53155	0.04064
2426.24578	0.04049
2424.96001	0.04030
2423.67424	0.04024
2422.38847	0.04035
2421.10270	0.04048
2419.81693	0.04042
2418.53116	0.04015
2417.24539	0.03984
2415.95963	0.03963
2414.67386	0.03951
2413.38809	0.03950
2412.10232	0.03964
2410.81655	0.03985
2409.53078	0.03994
2408.24501	0.03977
2406.95924	0.03945
2405.67347	0.03924
2404.38771	0.03930
2403.10194	0.03957
2401.81617	0.03988
2400.53040	0.04003
2399.24463	0.04000
2397.95886	0.03987
2396.67309	0.03974
2395.38732	0.03965
2394.10156	0.03963
2392.81579	0.03970
2391.53002	0.03990
2390.24425	0.04022
2388.95848	0.04055
2387.67271	0.04073
2386.38694	0.04068
2385.10117	0.04043
2383.81540	0.04011
2382.52964	0.03992
2381.24387	0.04001
2379.95810	0.04033
2378.67233	0.04066
2377.38656	0.04078
2376.10079	0.04070
2374.81502	0.04058
2373.52925	0.04062
2372.24349	0.04084
2370.95772	0.04113
2369.67195	0.04135
2368.38618	0.04145
2367.10041	0.04149
2365.81464	0.04155
2364.52887	0.04165
2363.24310	0.04174
2361.95733	0.04180
2360.67157	0.04188
2359.38580	0.04196
2358.10003	0.04198
2356.81426	0.04185
2355.52849	0.04163
2354.24272	0.04144
2352.95695	0.04138
2351.67118	0.04141
2350.38542	0.04143
2349.09965	0.04140
2347.81388	0.04137
2346.52811	0.04142
2345.24234	0.04155
2343.95657	0.04172
2342.67080	0.04187
2341.38503	0.04193
2340.09926	0.04186
2338.81350	0.04169
2337.52773	0.04151
2336.24196	0.04138
2334.95619	0.04126
2333.67042	0.04110
2332.38465	0.04088
2331.09888	0.04073
2329.81311	0.04070
2328.52735	0.04077
2327.24158	0.04086
2325.95581	0.04090
2324.67004	0.04086
2323.38427	0.04075
2322.09850	0.04058
2320.81273	0.04037
2319.52696	0.04013
2318.24119	0.03982
2316.95543	0.03946
2315.66966	0.03910
2314.38389	0.03884
2313.09812	0.03870
2311.81235	0.03861
2310.52658	0.03848
2309.24081	0.03832
2307.95504	0.03814
2306.66928	0.03789
2305.38351	0.03753
2304.09774	0.03707
2302.81197	0.03665
2301.52620	0.03634
2300.24043	0.03611
2298.95466	0.03586
2297.66889	0.03563
2296.38312	0.03549
2295.09736	0.03545
2293.81159	0.03542
2292.52582	0.03529
2291.24005	0.03510
2289.95428	0.03494
2288.66851	0.03482
2287.38274	0.03471
2286.09697	0.03461
2284.81121	0.03455
2283.52544	0.03450
2282.23967	0.03435
2280.95390	0.03407
2279.66813	0.03368
2278.38236	0.03326
2277.09659	0.03292
2275.81082	0.03271
2274.52505	0.03264
2273.23929	0.03259
2271.95352	0.03247
2270.66775	0.03229
2269.38198	0.03210
2268.09621	0.03189
2266.81044	0.03159
2265.52467	0.03126
2264.23890	0.03109
2262.95314	0.03119
2261.66737	0.03137
2260.38160	0.03131
2259.09583	0.03092
2257.81006	0.03035
2256.52429	0.02984
2255.23852	0.02950
2253.95275	0.02937
2252.66698	0.02947
2251.38122	0.02963
2250.09545	0.02954
2248.80968	0.02898
2247.52391	0.02813
2246.23814	0.02760
2244.95237	0.02777
2243.66660	0.02854
2242.38083	0.02948
2241.09507	0.03005
2239.80930	0.02999
2238.52353	0.02939
2237.23776	0.02869
2235.95199	0.02826
2234.66622	0.02809
2233.38045	0.02785
2232.09468	0.02739
2230.80891	0.02691
2229.52315	0.02678
2228.23738	0.02691
2226.95161	0.02677
2225.66584	0.02596
2224.38007	0.02483
2223.09430	0.02416
2221.80853	0.02433
2220.52276	0.02501
2219.23700	0.02566
2217.95123	0.02618
2216.66546	0.02665
2215.37969	0.02689
2214.09392	0.02654
2212.80815	0.02558
2211.52238	0.02442
2210.23661	0.02361
2208.95084	0.02340
2207.66508	0.02363
2206.37931	0.02371
2205.09354	0.02309
2203.80777	0.02184
2202.52200	0.02071
2201.23623	0.02029
2199.95046	0.02043
2198.66469	0.02070
2197.37893	0.02104
2196.09316	0.02154
2194.80739	0.02190
2193.52162	0.02160
2192.23585	0.02066
2190.95008	0.01974
2189.66431	0.01951
2188.37854	0.02005
2187.09277	0.02087
2185.80701	0.02139
2184.52124	0.02139
2183.23547	0.02113
2181.94970	0.02111
2180.66393	0.02168
2179.37816	0.02269
2178.09239	0.02357
2176.80662	0.02375
2175.52085	0.02306
2174.23509	0.02185
2172.94932	0.02067
2171.66355	0.01997
2170.37778	0.01981
2169.09201	0.01983
2167.80624	0.01968
2166.52047	0.01930
2165.23470	0.01897
2163.94894	0.01900
2162.66317	0.01922
2161.37740	0.01902
2160.09163	0.01803
2158.80586	0.01674
2157.52009	0.01608
2156.23432	0.01627
2154.94855	0.01670
2153.66278	0.01693
2152.37702	0.01710
2151.09125	0.01743
2149.80548	0.01788
2148.51971	0.01831
2147.23394	0.01881
2145.94817	0.01948
2144.66240	0.02010
2143.37663	0.02033
2142.09087	0.02016
2140.80510	0.02005
2139.51933	0.02040
2138.23356	0.02103
2136.94779	0.02143
2135.66202	0.02142
2134.37625	0.02146
2133.09048	0.02201
2131.80471	0.02297
2130.51895	0.02381
2129.23318	0.02422
2127.94741	0.02427
2126.66164	0.02422
2125.37587	0.02429
2124.09010	0.02443
2122.80433	0.02445
2121.51856	0.02421
2120.23280	0.02384
2118.94703	0.02370
2117.66126	0.02396
2116.37549	0.02443
2115.08972	0.02472
2113.80395	0.02463
2112.51818	0.02424
2111.23241	0.02374
2109.94664	0.02335
2108.66088	0.02320
2107.37511	0.02333
2106.08934	0.02365
2104.80357	0.02399
2103.51780	0.02427
2102.23203	0.02451
2100.94626	0.02491
2099.66049	0.02944
2098.37473	0.03162
2097.08896	0.03141
2095.80319	0.03039
2094.51742	0.02903
2093.23165	0.02753
2091.94588	0.02611
2090.66011	0.02493
2089.37434	0.02409
2088.08857	0.02367
2086.80281	0.02367
2085.51704	0.02400
2084.23127	0.02444
2082.94550	0.02484
2081.65973	0.02517
2080.37396	0.02552
2079.08819	0.02600
2077.80242	0.02666
2076.51666	0.02743
2075.23089	0.02806
2073.94512	0.02829
2072.65935	0.02810
2071.37358	0.02773
2070.08781	0.02737
2068.80204	0.02696
2067.51627	0.02641
2066.23050	0.02577
2064.94474	0.02512
2063.65897	0.02445
2062.37320	0.02371
2061.08743	0.02293
2059.80166	0.02216
2058.51589	0.02134
2057.23012	0.02033
2055.94435	0.01916
2054.65859	0.01821
2053.37282	0.01812
2052.08705	0.01945
2050.80128	0.02193
2049.51551	0.02443
2048.22974	0.02570
2046.94397	0.02544
2045.65820	0.02436
2044.37243	0.02340
2043.08667	0.02299
2041.80090	0.02305
2040.51513	0.02342
2039.22936	0.02408
2037.94359	0.02501
2036.65782	0.02604
2035.37205	0.02689
2034.08628	0.02734
2032.80052	0.02735
2031.51475	0.02704
2030.22898	0.02656
2028.94321	0.02590
2027.65744	0.02487
2026.37167	0.02336
2025.08590	0.02163
2023.80013	0.02036
2022.51436	0.02011
2021.22860	0.02084
2019.94283	0.02183
2018.65706	0.02232
2017.37129	0.02210
2016.08552	0.02161
2014.79975	0.02149
2013.51398	0.02203
2012.22821	0.02309
2010.94245	0.02441
2009.65668	0.02574
2008.37091	0.02680
2007.08514	0.02711
2005.79937	0.02636
2004.51360	0.02477
2003.22783	0.02300
2001.94206	0.02157
2000.65629	0.02058
1999.37053	0.01990
1998.08476	0.01937
1996.79899	0.01888
1995.51322	0.01840
1994.22745	0.01798
1992.94168	0.01771
1991.65591	0.01751
1990.37014	0.01715
1989.08438	0.01656
1987.79861	0.01607
1986.51284	0.01615
1985.22707	0.01698
1983.94130	0.01850
1982.65553	0.02061
1981.36976	0.02334
1980.08399	0.02657
1978.79822	0.02975
1977.51246	0.03195
1976.22669	0.03237
1974.94092	0.03114
1973.65515	0.02927
1972.36938	0.02783
1971.08361	0.02703
1969.79784	0.02627
1968.51207	0.02515
1967.22631	0.02396
1965.94054	0.02329
1964.65477	0.02333
1963.36900	0.02376
1962.08323	0.02403
1960.79746	0.02380
1959.51169	0.02301
1958.22592	0.02191
1956.94015	0.02095
1955.65439	0.02054
1954.36862	0.02079
1953.08285	0.02150
1951.79708	0.02226
1950.51131	0.02275
1949.22554	0.02293
1947.93977	0.02298
1946.65400	0.02306
1945.36823	0.02318
1944.08247	0.02340
1942.79670	0.02387
1941.51093	0.02463
1940.22516	0.02540
1938.93939	0.02585
1937.65362	0.02588
1936.36785	0.02565
1935.08208	0.02537
1933.79632	0.02520
1932.51055	0.02518
1931.22478	0.02528
1929.93901	0.02532
1928.65324	0.02509
1927.36747	0.02460
1926.08170	0.02404
1924.79593	0.02369
1923.51016	0.02364
1922.22440	0.02382
1920.93863	0.02404
1919.65286	0.02421
1918.36709	0.02436
1917.08132	0.02456
1915.79555	0.02480
1914.50978	0.02499
1913.22401	0.02508
1911.93825	0.02512
1910.65248	0.02519
1909.36671	0.02528
1908.08094	0.02530
1906.79517	0.02519
1905.50940	0.02501
1904.22363	0.02488
1902.93786	0.02485
1901.65209	0.02488
1900.36633	0.02493
1899.08056	0.02493
1897.79479	0.02486
1896.50902	0.02475
1895.22325	0.02474
1893.93748	0.02492
1892.65171	0.02517
1891.36594	0.02527
1890.08018	0.02514
1888.79441	0.02486
1887.50864	0.02460
1886.22287	0.02452
1884.93710	0.02465
1883.65133	0.02487
1882.36556	0.02494
1881.07979	0.02475
1879.79402	0.02440
1878.50826	0.02417
1877.22249	0.02419
1875.93672	0.02433
1874.65095	0.02443
1873.36518	0.02445
1872.07941	0.02447
1870.79364	0.02448
1869.50787	0.02442
1868.22211	0.02430
1866.93634	0.02423
1865.65057	0.02425
1864.36480	0.02435
1863.07903	0.02442
1861.79326	0.02442
1860.50749	0.02433
1859.22172	0.02415
1857.93595	0.02395
1856.65019	0.02381
1855.36442	0.02380
1854.07865	0.02390
1852.79288	0.02400
1851.50711	0.02403
1850.22134	0.02392
1848.93557	0.02368
1847.64980	0.02339
1846.36404	0.02317
1845.07827	0.02309
1843.79250	0.02316
1842.50673	0.02328
1841.22096	0.02334
1839.93519	0.02332
1838.64942	0.02325
1837.36365	0.02316
1836.07788	0.02302
1834.79212	0.02288
1833.50635	0.02280
1832.22058	0.02285
1830.93481	0.02305
1829.64904	0.02338
1828.36327	0.02377
1827.07750	0.02413
1825.79173	0.02446
1824.50597	0.02486
1823.22020	0.02539
1821.93443	0.02598
1820.64866	0.02639
1819.36289	0.02634
1818.07712	0.02568
1816.79135	0.02457
1815.50558	0.02334
1814.21981	0.02230
1812.93405	0.02157
1811.64828	0.02111
1810.36251	0.02086
1809.07674	0.02081
1807.79097	0.02095
1806.50520	0.02121
1805.21943	0.02152
1803.93366	0.02182
1802.64790	0.02207
1801.36213	0.02227
1800.07636	0.02242
1798.79059	0.02254
1797.50482	0.02264
1796.21905	0.02269
1794.93328	0.02266
1793.64751	0.02253
1792.36174	0.02244
1791.07598	0.02248
1789.79021	0.02267
1788.50444	0.02291
1787.21867	0.02308
1785.93290	0.02313
1784.64713	0.02309
1783.36136	0.02301
1782.07559	0.02295
1780.78983	0.02293
1779.50406	0.02292
1778.21829	0.02288
1776.93252	0.02279
1775.64675	0.02262
1774.36098	0.02238
1773.07521	0.02209
1771.78944	0.02185
1770.50367	0.02167
1769.21791	0.02155
1767.93214	0.02146
1766.64637	0.02144
1765.36060	0.02143
1764.07483	0.02139
1762.78906	0.02136
1761.50329	0.02136
1760.21752	0.02139
1758.93176	0.02143
1757.64599	0.02148
1756.36022	0.02154
1755.07445	0.02161
1753.78868	0.02161
1752.50291	0.02156
1751.21714	0.02159
1749.93137	0.02174
1748.64560	0.02192
1747.35984	0.02207
1746.07407	0.02222
1744.78830	0.02244
1743.50253	0.02274
1742.21676	0.02303
1740.93099	0.02326
1739.64522	0.02346
1738.35945	0.02367
1737.07369	0.02385
1735.78792	0.02393
1734.50215	0.02397
1733.21638	0.02409
1731.93061	0.02428
1730.64484	0.02441
1729.35907	0.02448
1728.07330	0.02456
1726.78753	0.02472
1725.50177	0.02496
1724.21600	0.02526
1722.93023	0.02557
1721.64446	0.02587
1720.35869	0.02611
1719.07292	0.02634
1717.78715	0.02664
1716.50138	0.02710
1715.21561	0.02765
1713.92985	0.02822
1712.64408	0.02883
1711.35831	0.02957
1710.07254	0.03050
1708.78677	0.03161
1707.50100	0.03282
1706.21523	0.03407
1704.92946	0.03540
1703.64370	0.03683
1702.35793	0.03837
1701.07216	0.04006
1699.78639	0.04197
1698.50062	0.04397
1697.21485	0.04585
1695.92908	0.04767
1694.64331	0.04962
1693.35754	0.05166
1692.07178	0.05366
1690.78601	0.05561
1689.50024	0.05758
1688.21447	0.05956
1686.92870	0.06152
1685.64293	0.06346
1684.35716	0.06552
1683.07139	0.06775
1681.78563	0.07006
1680.49986	0.07242
1679.21409	0.07485
1677.92832	0.07736
1676.64255	0.07989
1675.35678	0.08246
1674.07101	0.08510
1672.78524	0.08774
1671.49947	0.09034
1670.21371	0.09290
1668.92794	0.09551
1667.64217	0.09818
1666.35640	0.10084
1665.07063	0.10344
1663.78486	0.10597
1662.49909	0.10845
1661.21332	0.11084
1659.92756	0.11307
1658.64179	0.11515
1657.35602	0.11712
1656.07025	0.11895
1654.78448	0.12057
1653.49871	0.12205
1652.21294	0.12356
1650.92717	0.12505
1649.64140	0.12634
1648.35564	0.12742
1647.06987	0.12841
1645.78410	0.12942
1644.49833	0.13040
1643.21256	0.13127
1641.92679	0.13203
1640.64102	0.13272
1639.35525	0.13336
1638.06949	0.13390
1636.78372	0.13435
1635.49795	0.13476
1634.21218	0.13515
1632.92641	0.13541
1631.64064	0.13540
1630.35487	0.13508
1629.06910	0.13444
1627.78333	0.13351
1626.49757	0.13231
1625.21180	0.13085
1623.92603	0.12915
1622.64026	0.12728
1621.35449	0.12525
1620.06872	0.12304
1618.78295	0.12063
1617.49718	0.11810
1616.21142	0.11562
1614.92565	0.11324
1613.63988	0.11084
1612.35411	0.10834
1611.06834	0.10578
1609.78257	0.10322
1608.49680	0.10070
1607.21103	0.09826
1605.92526	0.09592
1604.63950	0.09368
1603.35373	0.09157
1602.06796	0.08962
1600.78219	0.08783
1599.49642	0.08620
1598.21065	0.08468
1596.92488	0.08328
1595.63911	0.08198
1594.35335	0.08078
1593.06758	0.07968
1591.78181	0.07872
1590.49604	0.07790
1589.21027	0.07722
1587.92450	0.07669
1586.63873	0.07631
1585.35296	0.07607
1584.06719	0.07591
1582.78143	0.07582
1581.49566	0.07582
1580.20989	0.07598
1578.92412	0.07628
1577.63835	0.07666
1576.35258	0.07717
1575.06681	0.07786
1573.78104	0.07871
1572.49528	0.07965
1571.20951	0.08066
1569.92374	0.08180
1568.63797	0.08305
1567.35220	0.08434
1566.06643	0.08562
1564.78066	0.08695
1563.49489	0.08836
1562.20912	0.08978
1560.92336	0.09119
1559.63759	0.09268
1558.35182	0.09436
1557.06605	0.09613
1555.78028	0.09777
1554.49451	0.09921
1553.20874	0.10055
1551.92297	0.10186
1550.63721	0.10314
1549.35144	0.10438
1548.06567	0.10552
1546.77990	0.10652
1545.49413	0.10739
1544.20836	0.10817
1542.92259	0.10888
1541.63682	0.10950
1540.35105	0.11003
1539.06529	0.11054
1537.77952	0.11104
1536.49375	0.11144
1535.20798	0.11171
1533.92221	0.11191
1532.63644	0.11209
1531.35067	0.11224
1530.06490	0.11229
1528.77914	0.11225
1527.49337	0.11215
1526.20760	0.11204
1524.92183	0.11193
1523.63606	0.11180
1522.35029	0.11160
1521.06452	0.11141
1519.77875	0.11121
1518.49298	0.11092
1517.20722	0.11047
1515.92145	0.10992
1514.63568	0.10925
1513.34991	0.10846
1512.06414	0.10753
1510.77837	0.10647
1509.49260	0.10521
1508.20683	0.10371
1506.92107	0.10203
1505.63530	0.10033
1504.34953	0.09867
1503.06376	0.09698
1501.77799	0.09525
1500.49222	0.09353
1499.20645	0.09179
1497.92068	0.08998
1496.63491	0.08812
1495.34915	0.08625
1494.06338	0.08441
1492.77761	0.08255
1491.49184	0.08068
1490.20607	0.07886
1488.92030	0.07714
1487.63453	0.07553
1486.34876	0.07404
1485.06299	0.07271
1483.77723	0.07157
1482.49146	0.07064
1481.20569	0.06990
1479.91992	0.06936
1478.63415	0.06899
1477.34838	0.06880
1476.06261	0.06877
1474.77684	0.06891
1473.49108	0.06919
1472.20531	0.06963
1470.91954	0.07021
1469.63377	0.07087
1468.34800	0.07154
1467.06223	0.07221
1465.77646	0.07290
1464.49069	0.07364
1463.20492	0.07446
1461.91916	0.07537
1460.63339	0.07632
1459.34762	0.07729
1458.06185	0.07824
1456.77608	0.07922
1455.49031	0.08021
1454.20454	0.08110
1452.91877	0.08180
1451.63301	0.08228
1450.34724	0.08258
1449.06147	0.08272
1447.77570	0.08273
1446.48993	0.08263
1445.20416	0.08243
1443.91839	0.08213
1442.63262	0.08176
1441.34685	0.08134
1440.06109	0.08083
1438.77532	0.08018
1437.48955	0.07939
1436.20378	0.07854
1434.91801	0.07768
1433.63224	0.07681
1432.34647	0.07594
1431.06070	0.07512
1429.77494	0.07438
1428.48917	0.07372
1427.20340	0.07313
1425.91763	0.07263
1424.63186	0.07227
1423.34609	0.07206
1422.06032	0.07197
1420.77455	0.07192
1419.48878	0.07190
1418.20302	0.07190
1416.91725	0.07191
1415.63148	0.07192
1414.34571	0.07194
1413.05994	0.07198
1411.77417	0.07203
1410.48840	0.07209
1409.20263	0.07219
1407.91687	0.07231
1406.63110	0.07244
1405.34533	0.07257
1404.05956	0.07269
1402.77379	0.07277
1401.48802	0.07279
1400.20225	0.07276
1398.91648	0.07272
1397.63071	0.07271
1396.34495	0.07271
1395.05918	0.07267
1393.77341	0.07261
1392.48764	0.07256
1391.20187	0.07252
1389.91610	0.07245
1388.63033	0.07233
1387.34456	0.07219
1386.05880	0.07205
1384.77303	0.07191
1383.48726	0.07174
1382.20149	0.07152
1380.91572	0.07125
1379.62995	0.07094
1378.34418	0.07060
1377.05841	0.07021
1375.77264	0.06975
1374.48688	0.06925
1373.20111	0.06874
1371.91534	0.06823
1370.62957	0.06769
1369.34380	0.06710
1368.05803	0.06648
1366.77226	0.06586
1365.48649	0.06527
1364.20073	0.06472
1362.91496	0.06419
1361.62919	0.06368
1360.34342	0.06317
1359.05765	0.06271
1357.77188	0.06232
1356.48611	0.06201
1355.20034	0.06177
1353.91457	0.06163
1352.62881	0.06161
1351.34304	0.06173
1350.05727	0.06195
1348.77150	0.06222
1347.48573	0.06249
1346.19996	0.06273
1344.91419	0.06297
1343.62842	0.06323
1342.34266	0.06352
1341.05689	0.06386
1339.77112	0.06422
1338.48535	0.06456
1337.19958	0.06481
1335.91381	0.06494
1334.62804	0.06496
1333.34227	0.06489
1332.05650	0.06474
1330.77074	0.06451
1329.48497	0.06421
1328.19920	0.06385
1326.91343	0.06349
1325.62766	0.06316
1324.34189	0.06289
1323.05612	0.06268
1321.77035	0.06250
1320.48459	0.06235
1319.19882	0.06225
1317.91305	0.06224
1316.62728	0.06227
1315.34151	0.06229
1314.05574	0.06225
1312.76997	0.06213
1311.48420	0.06198
1310.19843	0.06183
1308.91267	0.06168
1307.62690	0.06153
1306.34113	0.06140
1305.05536	0.06126
1303.76959	0.06113
1302.48382	0.06097
1301.19805	0.06081
1299.91228	0.06066
1298.62652	0.06055
1297.34075	0.06048
1296.05498	0.06045
1294.76921	0.06050
1293.48344	0.06061
1292.19767	0.06077
1290.91190	0.06095
1289.62613	0.06117
1288.34036	0.06144
1287.05460	0.06176
1285.76883	0.06210
1284.48306	0.06240
1283.19729	0.06265
1281.91152	0.06287
1280.62575	0.06306
1279.33998	0.06323
1278.05421	0.06338
1276.76845	0.06351
1275.48268	0.06362
1274.19691	0.06370
1272.91114	0.06377
1271.62537	0.06391
1270.33960	0.06413
1269.05383	0.06442
1267.76806	0.06476
1266.48229	0.06512
1265.19653	0.06552
1263.91076	0.06593
1262.62499	0.06632
1261.33922	0.06670
1260.05345	0.06706
1258.76768	0.06742
1257.48191	0.06780
1256.19614	0.06819
1254.91037	0.06863
1253.62461	0.06911
1252.33884	0.06965
1251.05307	0.07024
1249.76730	0.07088
1248.48153	0.07157
1247.19576	0.07232
1245.90999	0.07307
1244.62422	0.07381
1243.33846	0.07451
1242.05269	0.07518
1240.76692	0.07581
1239.48115	0.07638
1238.19538	0.07687
1236.90961	0.07729
1235.62384	0.07764
1234.33807	0.07789
1233.05230	0.07805
1231.76654	0.07813
1230.48077	0.07815
1229.19500	0.07807
1227.90923	0.07787
1226.62346	0.07752
1225.33769	0.07703
1224.05192	0.07639
1222.76615	0.07568
1221.48039	0.07494
1220.19462	0.07426
1218.90885	0.07363
1217.62308	0.07304
1216.33731	0.07247
1215.05154	0.07194
1213.76577	0.07151
1212.48000	0.07124
1211.19423	0.07114
1209.90847	0.07116
1208.62270	0.07126
1207.33693	0.07138
1206.05116	0.07151
1204.76539	0.07164
1203.47962	0.07179
1202.19385	0.07187
1200.90808	0.07155
1199.62232	0.07069
1198.33655	0.07027
1197.05078	0.06975
1195.76501	0.06919
1194.47924	0.06870
1193.19347	0.06830
1191.90770	0.06795
1190.62193	0.06757
1189.33616	0.06716
1188.05040	0.06676
1186.76463	0.06644
1185.47886	0.06618
1184.19309	0.06594
1182.90732	0.06570
1181.62155	0.06549
1180.33578	0.06536
1179.05001	0.06533
1177.76425	0.06536
1176.47848	0.06542
1175.19271	0.06547
1173.90694	0.06550
1172.62117	0.06549
1171.33540	0.06548
1170.04963	0.06551
1168.76386	0.06563
1167.47809	0.06581
1166.19233	0.06599
1164.90656	0.06615
1163.62079	0.06626
1162.33502	0.06635
1161.04925	0.06643
1159.76348	0.06651
1158.47771	0.06659
1157.19194	0.06663
1155.90618	0.06656
1154.62041	0.06639
1153.33464	0.06618
1152.04887	0.06596
1150.76310	0.06577
1149.47733	0.06560
1148.19156	0.06543
1146.90579	0.06523
1145.62002	0.06496
1144.33426	0.06462
1143.04849	0.06424
1141.76272	0.06390
1140.47695	0.06364
1139.19118	0.06348
1137.90541	0.06339
1136.61964	0.06333
1135.33387	0.06330
1134.04811	0.06325
1132.76234	0.06319
1131.47657	0.06312
1130.19080	0.06310
1128.90503	0.06320
1127.61926	0.06343
1126.33349	0.06373
1125.04772	0.06402
1123.76195	0.06420
1122.47619	0.06428
1121.19042	0.06436
1119.90465	0.06452
1118.61888	0.06478
1117.33311	0.06512
1116.04734	0.06549
1114.76157	0.06589
1113.47580	0.06627
1112.19004	0.06659
1110.90427	0.06688
1109.61850	0.06720
1108.33273	0.06759
1107.04696	0.06806
1105.76119	0.06856
1104.47542	0.06902
1103.18965	0.06939
1101.90388	0.06966
1100.61812	0.06991
1099.33235	0.07020
1098.04658	0.07054
1096.76081	0.07091
1095.47504	0.07126
1094.18927	0.07156
1092.90350	0.07181
1091.61773	0.07203
1090.33197	0.07227
1089.04620	0.07258
1087.76043	0.07297
1086.47466	0.07340
1085.18889	0.07387
1083.90312	0.07439
1082.61735	0.07496
1081.33158	0.07551
1080.04581	0.07593
1078.76005	0.07615
1077.47428	0.07625
1076.18851	0.07631
1074.90274	0.07641
1073.61697	0.07650
1072.33120	0.07653
1071.04543	0.07649
1069.75966	0.07642
1068.47390	0.07636
1067.18813	0.07632
1065.90236	0.07632
1064.61659	0.07633
1063.33082	0.07632
1062.04505	0.07628
1060.75928	0.07621
1059.47351	0.07611
1058.18774	0.07594
1056.90198	0.07574
1055.61621	0.07556
1054.33044	0.07543
1053.04467	0.07530
1051.75890	0.07511
1050.47313	0.07483
1049.18736	0.07454
1047.90159	0.07431
1046.61583	0.07414
1045.33006	0.07400
1044.04429	0.07386
1042.75852	0.07370
1041.47275	0.07355
1040.18698	0.07345
1038.90121	0.07349
1037.61544	0.07368
1036.32967	0.07401
1035.04391	0.07444
1033.75814	0.07488
1032.47237	0.07525
1031.18660	0.07543
1029.90083	0.07536
1028.61506	0.07504
1027.32929	0.07452
1026.04352	0.07384
1024.75775	0.07303
1023.47199	0.07214
1022.18622	0.07126
1020.90045	0.07041
1019.61468	0.06958
1018.32891	0.06878
1017.04314	0.06798
1015.75737	0.06718
1014.47160	0.06635
1013.18584	0.06549
1011.90007	0.06459
1010.61430	0.06371
1009.32853	0.06287
1008.04276	0.06211
1006.75699	0.06142
1005.47122	0.06078
1004.18545	0.06015
1002.89968	0.05953
1001.61392	0.05894
1000.32815	0.05838
999.04238	0.05786
997.75661	0.05736
996.47084	0.05686
995.18507	0.05635
993.89930	0.05589
992.61353	0.05552
991.32777	0.05526
990.04200	0.05505
988.75623	0.05485
987.47046	0.05464
986.18469	0.05444
984.89892	0.05429
983.61315	0.05420
982.32738	0.05417
981.04161	0.05418
979.75585	0.05421
978.47008	0.05424
977.18431	0.05425
975.89854	0.05422
974.61277	0.05416
973.32700	0.05407
972.04123	0.05398
970.75546	0.05393
969.46970	0.05392
968.18393	0.05398
966.89816	0.05406
965.61239	0.05406
964.32662	0.05391
963.04085	0.05364
961.75508	0.05337
960.46931	0.05320
959.18354	0.05308
957.89778	0.05293
956.61201	0.05271
955.32624	0.05247
954.04047	0.05227
952.75470	0.05211
951.46893	0.05189
950.18316	0.05153
948.89739	0.05108
947.61163	0.05067
946.32586	0.05038
945.04009	0.05022
943.75432	0.05009
942.46855	0.04997
941.18278	0.04984
939.89701	0.04975
938.61124	0.04966
937.32547	0.04952
936.03971	0.04931
934.75394	0.04901
933.46817	0.04866
932.18240	0.04832
930.89663	0.04802
929.61086	0.04770
928.32509	0.04729
927.03932	0.04682
925.75356	0.04644
924.46779	0.04625
923.18202	0.04621
921.89625	0.04614
920.61048	0.04590
919.32471	0.04552
918.03894	0.04510
916.75317	0.04472
915.46740	0.04435
914.18164	0.04402
912.89587	0.04374
911.61010	0.04356
910.32433	0.04342
909.03856	0.04323
907.75279	0.04299
906.46702	0.04273
905.18125	0.04253
903.89549	0.04236
902.60972	0.04218
901.32395	0.04203
900.03818	0.04196
898.75241	0.04196
897.46664	0.04195
896.18087	0.04181
894.89510	0.04157
893.60933	0.04136
892.32357	0.04132
891.03780	0.04145
889.75203	0.04161
888.46626	0.04162
887.18049	0.04147
885.89472	0.04124
884.60895	0.04107
883.32318	0.04101
882.03742	0.04104
880.75165	0.04114
879.46588	0.04129
878.18011	0.04142
876.89434	0.04142
875.60857	0.04121
874.32280	0.04082
873.03703	0.04042
871.75126	0.04015
870.46550	0.04002
869.17973	0.03995
867.89396	0.03985
866.60819	0.03970
865.32242	0.03953
864.03665	0.03934
862.75088	0.03912
861.46511	0.03886
860.17935	0.03861
858.89358	0.03841
857.60781	0.03827
856.32204	0.03825
855.03627	0.03833
853.75050	0.03848
852.46473	0.03859
851.17896	0.03858
849.89319	0.03843
848.60743	0.03819
847.32166	0.03790
846.03589	0.03759
844.75012	0.03730
843.46435	0.03706
842.17858	0.03687
840.89281	0.03672
839.60704	0.03660
838.32128	0.03650
837.03551	0.03643
835.74974	0.03639
834.46397	0.03636
833.17820	0.03629
831.89243	0.03618
830.60666	0.03603
829.32089	0.03590
828.03512	0.03585
826.74936	0.03590
825.46359	0.03604
824.17782	0.03620
822.89205	0.03630
821.60628	0.03630
820.32051	0.03623
819.03474	0.03613
817.74897	0.03607
816.46321	0.03608
815.17744	0.03618
813.89167	0.03631
812.60590	0.03637
811.32013	0.03638
810.03436	0.03637
808.74859	0.03636
807.46282	0.03635
806.17705	0.03636
804.89129	0.03641
803.60552	0.03652
802.31975	0.03665
801.03398	0.03677
799.74821	0.03687
798.46244	0.03696
797.17667	0.03703
795.89090	0.03701
794.60513	0.03692
793.31937	0.03682
792.03360	0.03680
790.74783	0.03687
789.46206	0.03696
788.17629	0.03704
786.89052	0.03710
785.60475	0.03715
784.31898	0.03716
783.03322	0.03715
781.74745	0.03718
780.46168	0.03728
779.17591	0.03743
777.89014	0.03757
776.60437	0.03765
775.31860	0.03769
774.03283	0.03775
772.74706	0.03782
771.46130	0.03789
770.17553	0.03797
768.88976	0.03810
767.60399	0.03829
766.31822	0.03847
765.03245	0.03861
763.74668	0.03872
762.46091	0.03882
761.17515	0.03890
759.88938	0.03892
758.60361	0.03891
757.31784	0.03890
756.03207	0.03894
754.74630	0.03902
753.46053	0.03916
752.17476	0.03936
750.88899	0.03962
749.60323	0.03989
748.31746	0.04010
747.03169	0.04021
745.74592	0.04023
744.46015	0.04024
743.17438	0.04028
741.88861	0.04036
740.60284	0.04046
739.31708	0.04055
738.03131	0.04062
736.74554	0.04066
735.45977	0.04067
734.17400	0.04075
732.88823	0.04096
731.60246	0.04127
730.31669	0.04158
729.03092	0.04178
727.74516	0.04187
726.45939	0.04191
725.17362	0.04199
723.88785	0.04208
722.60208	0.04219
721.31631	0.04232
720.03054	0.04248
718.74477	0.04269
717.45901	0.04289
716.17324	0.04303
714.88747	0.04308
713.60170	0.04308
712.31593	0.04311
711.03016	0.04323
709.74439	0.04343
708.45862	0.04368
707.17285	0.04392
705.88709	0.04413
704.60132	0.04429
703.31555	0.04440
702.02978	0.04451
700.74401	0.04462
699.45824	0.04475
698.17247	0.04486
696.88670	0.04493
695.60094	0.04499
694.31517	0.04505
693.02940	0.04512
691.74363	0.04519
690.45786	0.04525
689.17209	0.04532
687.88632	0.04539
686.60055	0.04546
685.31478	0.04551
684.02902	0.04554
682.74325	0.04559
681.45748	0.04568
680.17171	0.04581
678.88594	0.04594
677.60017	0.04604
676.31440	0.04612
675.02863	0.04621
673.74287	0.04633
672.45710	0.04646
671.17133	0.04660
669.88556	0.04675
668.59979	0.04691
667.31402	0.04703
666.02825	0.04714
664.74248	0.04725
663.45671	0.04738
662.17095	0.04750
660.88518	0.04755
659.59941	0.04750
658.31364	0.04743
657.02787	0.04742
655.74210	0.04751
654.45633	0.04767
653.17056	0.04784
651.88480	0.04794
650.59903	0.04797
649.31326	0.04796
648.02749	0.04794
646.74172	0.04794
645.45595	0.04794
644.17018	0.04792
642.88441	0.04787
641.59864	0.04776
640.31288	0.04762
639.02711	0.04750
637.74134	0.04746
636.45557	0.04752
635.16980	0.04765
633.88403	0.04772
632.59826	0.04760
631.31249	0.04783
630.02673	0.05093
628.74096	0.05576
627.45519	0.05239
626.16942	0.05780
624.88365	0.06908
623.59788	0.07931
622.31211	0.08548
621.02634	0.08651
619.74057	0.08295
618.45481	0.07664
617.16904	0.06948
615.88327	0.06269
614.59750	0.05706
613.31173	0.05356
612.02596	0.05325
610.74019	0.05627
609.45442	0.06110
608.16866	0.06554
606.88289	0.06848
605.59712	0.07011
604.31135	0.07063
603.02558	0.06987
601.73981	0.06789
600.45404	0.06531
599.16827	0.06288
597.88250	0.06097
596.59674	0.05957
595.31097	0.05850
594.02520	0.05762
592.73943	0.05688
591.45366	0.05635
590.16789	0.05611
588.88212	0.05618
587.59635	0.05644
586.31059	0.05673
585.02482	0.05696
583.73905	0.05715
582.45328	0.05737
581.16751	0.05759
579.88174	0.05773
578.59597	0.05777
577.31020	0.05783
576.02443	0.05807
574.73867	0.05856
573.45290	0.05926
572.16713	0.06010
570.88136	0.06101
569.59559	0.06195
568.30982	0.06280
567.02405	0.06338
565.73828	0.06350
564.45251	0.06317
563.16675	0.06259
561.88098	0.06201
560.59521	0.06155
559.30944	0.06117
558.02367	0.06079
556.73790	0.06037
555.45213	0.05992
554.16636	0.05947
552.88060	0.05908
551.59483	0.05876
550.30906	0.05856
549.02329	0.05846
547.73752	0.05843
546.45175	0.05840
545.16598	0.05835
543.88021	0.05827
542.59444	0.05817
541.30868	0.05806
540.02291	0.05795
538.73714	0.05784
537.45137	0.05775
536.16560	0.05770
534.87983	0.05773
533.59406	0.05782
532.30829	0.05792
531.02253	0.05799
529.73676	0.05800
528.45099	0.05798
527.16522	0.05795
525.87945	0.05792
524.59368	0.05788
523.30791	0.05783
522.02214	0.05776
520.73637	0.05771
519.45061	0.05767
518.16484	0.05762
516.87907	0.05755
515.59330	0.05742
514.30753	0.05725
513.02176	0.05702
511.73599	0.05677
510.45022	0.05652
509.16446	0.05629
507.87869	0.05610
506.59292	0.05591
505.30715	0.05563
504.02138	0.05523
502.73561	0.05474
501.44984	0.05423
500.16407	0.05379
498.87830	0.05342
497.59254	0.05309
496.30677	0.05275
495.02100	0.05239
493.73523	0.05204
492.44946	0.05172
491.16369	0.05146
489.87792	0.05121
488.59215	0.05090
487.30639	0.05052
486.02062	0.05013
484.73485	0.04979
483.44908	0.04950
482.16331	0.04918
480.87754	0.04880
479.59177	0.04842
478.30600	0.04811
477.02023	0.04788
475.73447	0.04769
474.44870	0.04750
473.16293	0.04729
471.87716	0.04709
470.59139	0.04694
469.30562	0.04681
468.01985	0.04662
466.73408	0.04628
465.44832	0.04582
464.16255	0.04534
462.87678	0.04497
461.59101	0.04473
460.30524	0.04455
459.01947	0.04437
457.73370	0.04417
456.44793	0.04393
455.16216	0.04368
453.87640	0.04340
452.59063	0.04311
451.30486	0.04280
450.01909	0.04250
448.73332	0.04224
447.44755	0.04205
446.16178	0.04191
444.87601	0.04177
443.59025	0.04155
442.30448	0.04126
441.01871	0.04097
439.73294	0.04078
438.44717	0.04071
437.16140	0.04072
435.87563	0.04073
434.58986	0.04072
433.30409	0.04070
432.01833	0.04065
430.73256	0.04052
429.44679	0.04030
428.16102	0.04005
426.87525	0.03982
425.58948	0.03963
424.30371	0.03944
423.01794	0.03923
421.73218	0.03901
420.44641	0.03879
419.16064	0.03863
417.87487	0.03853
416.58910	0.03844
415.30333	0.03834
414.01756	0.03822
412.73179	0.03809
411.44602	0.03795
410.16026	0.03777
408.87449	0.03755
407.58872	0.03733
406.30295	0.03714
405.01718	0.03701
403.73141	0.03689
402.44564	0.03674
401.15987	0.03651
399.87411	0.03622
