3997.45528	0.01636
3996.16951	0.01597
3994.88374	0.01580
3993.59798	0.01591
3992.31221	0.01620
3991.02644	0.01661
3989.74067	0.01711
3988.45490	0.01753
3987.16913	0.01767
3985.88336	0.01750
3984.59759	0.01712
3983.31183	0.01663
3982.02606	0.01611
3980.74029	0.01572
3979.45452	0.01565
3978.16875	0.01586
3976.88298	0.01608
3975.59721	0.01611
3974.31144	0.01602
3973.02567	0.01601
3971.73991	0.01624
3970.45414	0.01669
3969.16837	0.01722
3967.88260	0.01765
3966.59683	0.01787
3965.31106	0.01778
3964.02529	0.01739
3962.73952	0.01675
3961.45376	0.01598
3960.16799	0.01524
3958.88222	0.01471
3957.59645	0.01454
3956.31068	0.01462
3955.02491	0.01476
3953.73914	0.01485
3952.45337	0.01500
3951.16760	0.01531
3949.88184	0.01576
3948.59607	0.01621
3947.31030	0.01652
3946.02453	0.01671
3944.73876	0.01690
3943.45299	0.01718
3942.16722	0.01753
3940.88145	0.01781
3939.59569	0.01787
3938.30992	0.01764
3937.02415	0.01718
3935.73838	0.01664
3934.45261	0.01611
3933.16684	0.01565
3931.88107	0.01532
3930.59530	0.01522
3929.30953	0.01535
3928.02377	0.01553
3926.73800	0.01561
3925.45223	0.01559
3924.16646	0.01556
3922.88069	0.01558
3921.59492	0.01566
3920.30915	0.01575
3919.02338	0.01582
3917.73762	0.01582
3916.45185	0.01574
3915.16608	0.01571
3913.88031	0.01591
3912.59454	0.01632
3911.30877	0.01674
3910.02300	0.01694
3908.73723	0.01686
3907.45146	0.01661
3906.16570	0.01640
3904.87993	0.01637
3903.59416	0.01644
3902.30839	0.01642
3901.02262	0.01624
3899.73685	0.01598
3898.45108	0.01570
3897.16531	0.01548
3895.87955	0.01536
3894.59378	0.01545
3893.30801	0.01591
3892.02224	0.01668
3890.73647	0.01738
3889.45070	0.01777
3888.16493	0.01794
3886.87916	0.01789
3885.59339	0.01742
3884.30763	0.01659
3883.02186	0.01581
3881.73609	0.01535
3880.45032	0.01499
3879.16455	0.01448
3877.87878	0.01408
3876.59301	0.01416
3875.30724	0.01471
3874.02148	0.01538
3872.73571	0.01596
3871.44994	0.01638
3870.16417	0.01643
3868.87840	0.01607
3867.59263	0.01569
3866.30686	0.01559
3865.02109	0.01550
3863.73532	0.01523
3862.44956	0.01512
3861.16379	0.01548
3859.87802	0.01605
3858.59225	0.01633
3857.30648	0.01625
3856.02071	0.01611
3854.73494	0.01595
3853.44917	0.01547
3852.16341	0.01475
3850.87764	0.01438
3849.59187	0.01463
3848.30610	0.01521
3847.02033	0.01579
3845.73456	0.01622
3844.44879	0.01642
3843.16302	0.01631
3841.87725	0.01599
3840.59149	0.01585
3839.30572	0.01612
3838.01995	0.01652
3836.73418	0.01665
3835.44841	0.01649
3834.16264	0.01633
3832.87687	0.01629
3831.59110	0.01624
3830.30534	0.01604
3829.01957	0.01570
3827.73380	0.01530
3826.44803	0.01492
3825.16226	0.01471
3823.87649	0.01490
3822.59072	0.01538
3821.30495	0.01563
3820.01918	0.01534
3818.73342	0.01492
3817.44765	0.01484
3816.16188	0.01493
3814.87611	0.01489
3813.59034	0.01491
3812.30457	0.01514
3811.01880	0.01532
3809.73303	0.01523
3808.44726	0.01500
3807.16150	0.01468
3805.87573	0.01436
3804.58996	0.01435
3803.30419	0.01489
3802.01842	0.01548
3800.73265	0.01544
3799.44688	0.01484
3798.16111	0.01434
3796.87535	0.01429
3795.58958	0.01462
3794.30381	0.01517
3793.01804	0.01571
3791.73227	0.01597
3790.44650	0.01582
3789.16073	0.01539
3787.87496	0.01494
3786.58919	0.01460
3785.30343	0.01437
3784.01766	0.01424
3782.73189	0.01429
3781.44612	0.01452
3780.16035	0.01473
3778.87458	0.01472
3777.58881	0.01459
3776.30304	0.01460
3775.01728	0.01485
3773.73151	0.01512
3772.44574	0.01520
3771.15997	0.01500
3769.87420	0.01466
3768.58843	0.01449
3767.30266	0.01483
3766.01689	0.01556
3764.73112	0.01621
3763.44536	0.01645
3762.15959	0.01627
3760.87382	0.01583
3759.58805	0.01527
3758.30228	0.01471
3757.01651	0.01414
3755.73074	0.01363
3754.44497	0.01343
3753.15921	0.01374
3751.87344	0.01437
3750.58767	0.01494
3749.30190	0.01510
3748.01613	0.01486
3746.73036	0.01473
3745.44459	0.01477
3744.15882	0.01440
3742.87305	0.01359
3741.58729	0.01310
3740.30152	0.01328
3739.01575	0.01379
3737.72998	0.01427
3736.44421	0.01455
3735.15844	0.01461
3733.87267	0.01463
3732.58690	0.01472
3731.30114	0.01476
3730.01537	0.01479
3728.72960	0.01496
3727.44383	0.01525
3726.15806	0.01548
3724.87229	0.01566
3723.58652	0.01586
3722.30075	0.01593
3721.01498	0.01557
3719.72922	0.01477
3718.44345	0.01386
3717.15768	0.01326
3715.87191	0.01324
3714.58614	0.01385
3713.30037	0.01483
3712.01460	0.01576
3710.72883	0.01631
3709.44307	0.01642
3708.15730	0.01616
3706.87153	0.01562
3705.58576	0.01495
3704.29999	0.01434
3703.01422	0.01388
3701.72845	0.01355
3700.44268	0.01328
3699.15691	0.01313
3697.87115	0.01314
3696.58538	0.01332
3695.29961	0.01362
3694.01384	0.01403
3692.72807	0.01449
3691.44230	0.01494
3690.15653	0.01530
3688.87076	0.01532
3687.58500	0.01481
3686.29923	0.01411
3685.01346	0.01380
3683.72769	0.01404
3682.44192	0.01445
3681.15615	0.01471
3679.87038	0.01476
3678.58461	0.01479
3677.29884	0.01494
3676.01308	0.01494
3674.72731	0.01455
3673.44154	0.01414
3672.15577	0.01428
3670.87000	0.01483
3669.58423	0.01525
3668.29846	0.01536
3667.01269	0.01530
3665.72693	0.01505
3664.44116	0.01459
3663.15539	0.01409
3661.86962	0.01377
3660.58385	0.01376
3659.29808	0.01406
3658.01231	0.01454
3656.72654	0.01495
3655.44077	0.01501
3654.15501	0.01477
3652.86924	0.01451
3651.58347	0.01440
3650.29770	0.01435
3649.01193	0.01429
3647.72616	0.01429
3646.44039	0.01446
3645.15462	0.01478
3643.86886	0.01502
3642.58309	0.01506
3641.29732	0.01495
3640.01155	0.01489
3638.72578	0.01501
3637.44001	0.01525
3636.15424	0.01554
3634.86847	0.01581
3633.58270	0.01598
3632.29694	0.01614
3631.01117	0.01649
3629.72540	0.01693
3628.43963	0.01716
3627.15386	0.01723
3625.86809	0.01747
3624.58232	0.01796
3623.29655	0.01849
3622.01079	0.01890
3620.72502	0.01914
3619.43925	0.01907
3618.15348	0.01866
3616.86771	0.01814
3615.58194	0.01784
3614.29617	0.01782
3613.01040	0.01790
3611.72463	0.01790
3610.43887	0.01780
3609.15310	0.01769
3607.86733	0.01765
3606.58156	0.01782
3605.29579	0.01829
3604.01002	0.01892
3602.72425	0.01951
3601.43848	0.01997
3600.15272	0.02031
3598.86695	0.02046
3597.58118	0.02037
3596.29541	0.02012
3595.00964	0.01986
3593.72387	0.01973
3592.43810	0.01980
3591.15233	0.02007
3589.86656	0.02046
3588.58080	0.02076
3587.29503	0.02088
3586.00926	0.02101
3584.72349	0.02134
3583.43772	0.02178
3582.15195	0.02206
3580.86618	0.02201
3579.58041	0.02173
3578.29464	0.02147
3577.00888	0.02144
3575.72311	0.02173
3574.43734	0.02224
3573.15157	0.02278
3571.86580	0.02318
3570.58003	0.02350
3569.29426	0.02392
3568.00849	0.02448
3566.72273	0.02500
3565.43696	0.02528
3564.15119	0.02530
3562.86542	0.02523
3561.57965	0.02525
3560.29388	0.02536
3559.00811	0.02543
3557.72234	0.02536
3556.43657	0.02517
3555.15081	0.02499
3553.86504	0.02495
3552.57927	0.02498
3551.29350	0.02499
3550.00773	0.02496
3548.72196	0.02510
3547.43619	0.02558
3546.15042	0.02634
3544.86466	0.02710
3543.57889	0.02751
3542.29312	0.02742
3541.00735	0.02690
3539.72158	0.02623
3538.43581	0.02575
3537.15004	0.02572
3535.86427	0.02617
3534.57850	0.02688
3533.29274	0.02758
3532.00697	0.02809
3530.72120	0.02839
3529.43543	0.02855
3528.14966	0.02863
3526.86389	0.02868
3525.57812	0.02870
3524.29235	0.02871
3523.00659	0.02877
3521.72082	0.02893
3520.43505	0.02924
3519.14928	0.02961
3517.86351	0.02992
3516.57774	0.03008
3515.29197	0.03014
3514.00620	0.03021
3512.72043	0.03039
3511.43467	0.03075
3510.14890	0.03121
3508.86313	0.03166
3507.57736	0.03198
3506.29159	0.03216
3505.00582	0.03216
3503.72005	0.03201
3502.43428	0.03176
3501.14852	0.03154
3499.86275	0.03143
3498.57698	0.03144
3497.29121	0.03160
3496.00544	0.03202
3494.71967	0.03270
3493.43390	0.03348
3492.14813	0.03412
3490.86236	0.03450
3489.57660	0.03457
3488.29083	0.03439
3487.00506	0.03402
3485.71929	0.03361
3484.43352	0.03336
3483.14775	0.03339
3481.86198	0.03373
3480.57621	0.03425
3479.29045	0.03473
3478.00468	0.03494
3476.71891	0.03487
3475.43314	0.03472
3474.14737	0.03468
3472.86160	0.03468
3471.57583	0.03458
3470.29006	0.03443
3469.00429	0.03448
3467.71853	0.03485
3466.43276	0.03528
3465.14699	0.03545
3463.86122	0.03533
3462.57545	0.03523
3461.28968	0.03548
3460.00391	0.03605
3458.71814	0.03660
3457.43238	0.03680
3456.14661	0.03665
3454.86084	0.03643
3453.57507	0.03636
3452.28930	0.03637
3451.00353	0.03627
3449.71776	0.03608
3448.43199	0.03596
3447.14622	0.03602
3445.86046	0.03617
3444.57469	0.03632
3443.28892	0.03646
3442.00315	0.03665
3440.71738	0.03695
3439.43161	0.03736
3438.14584	0.03779
3436.86007	0.03810
3435.57431	0.03823
3434.28854	0.03829
3433.00277	0.03843
3431.71700	0.03869
3430.43123	0.03898
3429.14546	0.03922
3427.85969	0.03943
3426.57392	0.03961
3425.28815	0.03965
3424.00239	0.03941
3422.71662	0.03898
3421.43085	0.03862
3420.14508	0.03856
3418.85931	0.03876
3417.57354	0.03910
3416.28777	0.03947
3415.00200	0.03983
3413.71624	0.04015
3412.43047	0.04038
3411.14470	0.04051
3409.85893	0.04049
3408.57316	0.04037
3407.28739	0.04027
3406.00162	0.04041
3404.71585	0.04089
3403.43008	0.04158
3402.14432	0.04223
3400.85855	0.04261
3399.57278	0.04272
3398.28701	0.04273
3397.00124	0.04285
3395.71547	0.04314
3394.42970	0.04344
3393.14393	0.04357
3391.85817	0.04346
3390.57240	0.04329
3389.28663	0.04331
3388.00086	0.04366
3386.71509	0.04424
3385.42932	0.04474
3384.14355	0.04489
3382.85778	0.04460
3381.57201	0.04413
3380.28625	0.04389
3379.00048	0.04408
3377.71471	0.04452
3376.42894	0.04490
3375.14317	0.04499
3373.85740	0.04487
3372.57163	0.04478
3371.28586	0.04492
3370.00010	0.04529
3368.71433	0.04571
3367.42856	0.04602
3366.14279	0.04626
3364.85702	0.04660
3363.57125	0.04712
3362.28548	0.04768
3360.99971	0.04813
3359.71394	0.04846
3358.42818	0.04875
3357.14241	0.04904
3355.85664	0.04927
3354.57087	0.04945
3353.28510	0.04968
3351.99933	0.04999
3350.71356	0.05024
3349.42779	0.05030
3348.14202	0.05023
3346.85626	0.05023
3345.57049	0.05044
3344.28472	0.05080
3342.99895	0.05115
3341.71318	0.05137
3340.42741	0.05147
3339.14164	0.05161
3337.85587	0.05195
3336.57011	0.05245
3335.28434	0.05287
3333.99857	0.05302
3332.71280	0.05296
3331.42703	0.05294
3330.14126	0.05310
3328.85549	0.05342
3327.56972	0.05373
3326.28395	0.05391
3324.99819	0.05386
3323.71242	0.05361
3322.42665	0.05332
3321.14088	0.05317
3319.85511	0.05322
3318.56934	0.05340
3317.28357	0.05363
3315.99780	0.05391
3314.71204	0.05428
3313.42627	0.05471
3312.14050	0.05514
3310.85473	0.05549
3309.56896	0.05573
3308.28319	0.05590
3306.99742	0.05606
3305.71165	0.05620
3304.42588	0.05629
3303.14012	0.05638
3301.85435	0.05652
3300.56858	0.05672
3299.28281	0.05685
3297.99704	0.05681
3296.71127	0.05661
3295.42550	0.05635
3294.13973	0.05612
3292.85397	0.05596
3291.56820	0.05594
3290.28243	0.05610
3288.99666	0.05642
3287.71089	0.05671
3286.42512	0.05680
3285.13935	0.05667
3283.85358	0.05649
3282.56781	0.05638
3281.28205	0.05640
3279.99628	0.05659
3278.71051	0.05696
3277.42474	0.05741
3276.13897	0.05769
3274.85320	0.05760
3273.56743	0.05716
3272.28166	0.05653
3270.99590	0.05591
3269.71013	0.05542
3268.42436	0.05516
3267.13859	0.05517
3265.85282	0.05532
3264.56705	0.05544
3263.28128	0.05548
3261.99551	0.05547
3260.70974	0.05543
3259.42398	0.05533
3258.13821	0.05517
3256.85244	0.05501
3255.56667	0.05488
3254.28090	0.05475
3252.99513	0.05460
3251.70936	0.05444
3250.42359	0.05432
3249.13783	0.05416
3247.85206	0.05382
3246.56629	0.05332
3245.28052	0.05287
3243.99475	0.05271
3242.70898	0.05283
3241.42321	0.05298
3240.13744	0.05291
3238.85167	0.05259
3237.56591	0.05218
3236.28014	0.05184
3234.99437	0.05169
3233.70860	0.05169
3232.42283	0.05171
3231.13706	0.05162
3229.85129	0.05148
3228.56552	0.05140
3227.27976	0.05140
3225.99399	0.05142
3224.70822	0.05138
3223.42245	0.05133
3222.13668	0.05133
3220.85091	0.05144
3219.56514	0.05165
3218.27937	0.05177
3216.99360	0.05162
3215.70784	0.05115
3214.42207	0.05067
3213.13630	0.05050
3211.85053	0.05074
3210.56476	0.05115
3209.27899	0.05137
3207.99322	0.05114
3206.70745	0.05051
3205.42169	0.04970
3204.13592	0.04901
3202.85015	0.04861
3201.56438	0.04852
3200.27861	0.04872
3198.99284	0.04910
3197.70707	0.04949
3196.42130	0.04971
3195.13553	0.04967
3193.84977	0.04939
3192.56400	0.04901
3191.27823	0.04867
3189.99246	0.04843
3188.70669	0.04829
3187.42092	0.04818
3186.13515	0.04807
3184.84938	0.04789
3183.56362	0.04759
3182.27785	0.04717
3180.99208	0.04674
3179.70631	0.04649
3178.42054	0.04650
3177.13477	0.04671
3175.84900	0.04696
3174.56323	0.04716
3173.27746	0.04726
3171.99170	0.04725
3170.70593	0.04704
3169.42016	0.04656
3168.13439	0.04588
3166.84862	0.04522
3165.56285	0.04480
3164.27708	0.04463
3162.99131	0.04457
3161.70555	0.04453
3160.41978	0.04451
3159.13401	0.04453
3157.84824	0.04451
3156.56247	0.04440
3155.27670	0.04424
3153.99093	0.04414
3152.70516	0.04412
3151.41939	0.04408
3150.13363	0.04391
3148.84786	0.04363
3147.56209	0.04337
3146.27632	0.04318
3144.99055	0.04304
3143.70478	0.04292
3142.41901	0.04277
3141.13324	0.04259
3139.84748	0.04239
3138.56171	0.04221
3137.27594	0.04209
3135.99017	0.04202
3134.70440	0.04195
3133.41863	0.04193
3132.13286	0.04199
3130.84709	0.04210
3129.56132	0.04215
3128.27556	0.04206
3126.98979	0.04184
3125.70402	0.04153
3124.41825	0.04118
3123.13248	0.04089
3121.84671	0.04073
3120.56094	0.04067
3119.27517	0.04066
3117.98940	0.04071
3116.70364	0.04080
3115.41787	0.04083
3114.13210	0.04065
3112.84633	0.04035
3111.56056	0.04019
3110.27479	0.04037
3108.98902	0.04079
3107.70325	0.04111
3106.41749	0.04109
3105.13172	0.04074
3103.84595	0.04030
3102.56018	0.04002
3101.27441	0.04006
3099.98864	0.04042
3098.70287	0.04095
3097.41710	0.04145
3096.13133	0.04173
3094.84557	0.04167
3093.55980	0.04134
3092.27403	0.04095
3090.98826	0.04072
3089.70249	0.04078
3088.41672	0.04104
3087.13095	0.04124
3085.84518	0.04126
3084.55942	0.04118
3083.27365	0.04118
3081.98788	0.04132
3080.70211	0.04150
3079.41634	0.04168
3078.13057	0.04188
3076.84480	0.04210
3075.55903	0.04226
3074.27326	0.04224
3072.98750	0.04202
3071.70173	0.04172
3070.41596	0.04148
3069.13019	0.04139
3067.84442	0.04141
3066.55865	0.04147
3065.27288	0.04151
3063.98711	0.04155
3062.70135	0.04162
3061.41558	0.04177
3060.12981	0.04202
3058.84404	0.04228
3057.55827	0.04238
3056.27250	0.04219
3054.98673	0.04181
3053.70096	0.04146
3052.41519	0.04125
3051.12943	0.04107
3049.84366	0.04079
3048.55789	0.04043
3047.27212	0.04014
3045.98635	0.04000
3044.70058	0.04001
3043.41481	0.04010
3042.12904	0.04017
3040.84328	0.04016
3039.55751	0.04004
3038.27174	0.03987
3036.98597	0.03973
3035.70020	0.03967
3034.41443	0.03961
3033.12866	0.03944
3031.84289	0.03913
3030.55712	0.03877
3029.27136	0.03850
3027.98559	0.03837
3026.69982	0.03829
3025.41405	0.03817
3024.12828	0.03796
3022.84251	0.03774
3021.55674	0.03757
3020.27097	0.03748
3018.98521	0.03741
3017.69944	0.03732
3016.41367	0.03719
3015.12790	0.03707
3013.84213	0.03697
3012.55636	0.03691
3011.27059	0.03688
3009.98482	0.03687
3008.69905	0.03681
3007.41329	0.03670
3006.12752	0.03658
3004.84175	0.03654
3003.55598	0.03658
3002.27021	0.03662
3000.98444	0.03657
2999.69867	0.03645
2998.41290	0.03644
2997.12714	0.03653
2995.84137	0.03666
2994.55560	0.03679
2993.26983	0.03691
2991.98406	0.03699
2990.69829	0.03697
2989.41252	0.03689
2988.12675	0.03681
2986.84098	0.03683
2985.55522	0.03701
2984.26945	0.03732
2982.98368	0.03766
2981.69791	0.03792
2980.41214	0.03806
2979.12637	0.03815
2977.84060	0.03827
2976.55483	0.03848
2975.26907	0.03877
2973.98330	0.03902
2972.69753	0.03915
2971.41176	0.03915
2970.12599	0.03915
2968.84022	0.03922
2967.55445	0.03935
2966.26868	0.03946
2964.98291	0.03956
2963.69715	0.03972
2962.41138	0.03997
2961.12561	0.04021
2959.83984	0.04030
2958.55407	0.04029
2957.26830	0.04033
2955.98253	0.04042
2954.69676	0.04042
2953.41100	0.04020
2952.12523	0.03988
2950.83946	0.03974
2949.55369	0.03993
2948.26792	0.04036
2946.98215	0.04082
2945.69638	0.04110
2944.41061	0.04114
2943.12484	0.04103
2941.83908	0.04090
2940.55331	0.04082
2939.26754	0.04075
2937.98177	0.04072
2936.69600	0.04082
2935.41023	0.04109
2934.12446	0.04146
2932.83869	0.04181
2931.55293	0.04206
2930.26716	0.04220
2928.98139	0.04225
2927.69562	0.04226
2926.40985	0.04225
2925.12408	0.04215
2923.83831	0.04198
2922.55254	0.04187
2921.26677	0.04193
2919.98101	0.04206
2918.69524	0.04199
2917.40947	0.04154
2916.12370	0.04074
2914.83793	0.03989
2913.55216	0.03925
2912.26639	0.03887
2910.98062	0.03860
2909.69486	0.03835
2908.40909	0.03813
2907.12332	0.03795
2905.83755	0.03774
2904.55178	0.03751
2903.26601	0.03739
2901.98024	0.03747
2900.69447	0.03767
2899.40870	0.03783
2898.12294	0.03785
2896.83717	0.03776
2895.55140	0.03753
2894.26563	0.03717
2892.97986	0.03676
2891.69409	0.03645
2890.40832	0.03637
2889.12255	0.03649
2887.83678	0.03670
2886.55102	0.03691
2885.26525	0.03704
2883.97948	0.03704
2882.69371	0.03692
2881.40794	0.03676
2880.12217	0.03664
2878.83640	0.03657
2877.55063	0.03657
2876.26487	0.03664
2874.97910	0.03676
2873.69333	0.03686
2872.40756	0.03685
2871.12179	0.03672
2869.83602	0.03656
2868.55025	0.03644
2867.26448	0.03635
2865.97871	0.03626
2864.69295	0.03622
2863.40718	0.03631
2862.12141	0.03643
2860.83564	0.03639
2859.54987	0.03604
2858.26410	0.03545
2856.97833	0.03487
2855.69256	0.03453
2854.40680	0.03448
2853.12103	0.03461
2851.83526	0.03468
2850.54949	0.03460
2849.26372	0.03441
2847.97795	0.03426
2846.69218	0.03420
2845.40641	0.03410
2844.12064	0.03383
2842.83488	0.03342
2841.54911	0.03301
2840.26334	0.03274
2838.97757	0.03258
2837.69180	0.03247
2836.40603	0.03242
2835.12026	0.03245
2833.83449	0.03253
2832.54873	0.03253
2831.26296	0.03238
2829.97719	0.03216
2828.69142	0.03198
2827.40565	0.03183
2826.11988	0.03160
2824.83411	0.03127
2823.54834	0.03098
2822.26257	0.03089
2820.97681	0.03099
2819.69104	0.03116
2818.40527	0.03128
2817.11950	0.03132
2815.83373	0.03127
2814.54796	0.03110
2813.26219	0.03088
2811.97642	0.03075
2810.69066	0.03073
2809.40489	0.03074
2808.11912	0.03063
2806.83335	0.03038
2805.54758	0.03016
2804.26181	0.03011
2802.97604	0.03024
2801.69027	0.03041
2800.40450	0.03048
2799.11874	0.03039
2797.83297	0.03019
2796.54720	0.02994
2795.26143	0.02973
2793.97566	0.02963
2792.68989	0.02967
2791.40412	0.02981
2790.11835	0.02994
2788.83259	0.02998
2787.54682	0.02992
2786.26105	0.02980
2784.97528	0.02969
2783.68951	0.02965
2782.40374	0.02971
2781.11797	0.02983
2779.83220	0.02992
2778.54643	0.02988
2777.26067	0.02971
2775.97490	0.02945
2774.68913	0.02920
2773.40336	0.02903
2772.11759	0.02897
2770.83182	0.02897
2769.54605	0.02895
2768.26028	0.02883
2766.97452	0.02866
2765.68875	0.02853
2764.40298	0.02852
2763.11721	0.02858
2761.83144	0.02855
2760.54567	0.02837
2759.25990	0.02811
2757.97413	0.02790
2756.68836	0.02779
2755.40260	0.02779
2754.11683	0.02790
2752.83106	0.02806
2751.54529	0.02821
2750.25952	0.02825
2748.97375	0.02814
2747.68798	0.02796
2746.40221	0.02784
2745.11645	0.02785
2743.83068	0.02791
2742.54491	0.02790
2741.25914	0.02773
2739.97337	0.02742
2738.68760	0.02708
2737.40183	0.02684
2736.11606	0.02678
2734.83029	0.02682
2733.54453	0.02686
2732.25876	0.02686
2730.97299	0.02687
2729.68722	0.02692
2728.40145	0.02695
2727.11568	0.02693
2725.82991	0.02685
2724.54414	0.02677
2723.25838	0.02674
2721.97261	0.02676
2720.68684	0.02679
2719.40107	0.02680
2718.11530	0.02680
2716.82953	0.02682
2715.54376	0.02684
2714.25799	0.02683
2712.97222	0.02674
2711.68646	0.02657
2710.40069	0.02632
2709.11492	0.02604
2707.82915	0.02580
2706.54338	0.02564
2705.25761	0.02558
2703.97184	0.02558
2702.68607	0.02562
2701.40031	0.02570
2700.11454	0.02580
2698.82877	0.02587
2697.54300	0.02584
2696.25723	0.02571
2694.97146	0.02557
2693.68569	0.02549
2692.39992	0.02549
2691.11415	0.02554
2689.82839	0.02558
2688.54262	0.02561
2687.25685	0.02556
2685.97108	0.02541
2684.68531	0.02517
2683.39954	0.02496
2682.11377	0.02491
2680.82800	0.02496
2679.54224	0.02501
2678.25647	0.02497
2676.97070	0.02492
2675.68493	0.02493
2674.39916	0.02499
2673.11339	0.02503
2671.82762	0.02500
2670.54185	0.02492
2669.25608	0.02486
2667.97032	0.02486
2666.68455	0.02487
2665.39878	0.02482
2664.11301	0.02473
2662.82724	0.02468
2661.54147	0.02475
2660.25570	0.02490
2658.96993	0.02509
2657.68417	0.02526
2656.39840	0.02538
2655.11263	0.02535
2653.82686	0.02507
2652.54109	0.02462
2651.25532	0.02421
2649.96955	0.02400
2648.68378	0.02397
2647.39801	0.02403
2646.11225	0.02410
2644.82648	0.02420
2643.54071	0.02431
2642.25494	0.02441
2640.96917	0.02441
2639.68340	0.02427
2638.39763	0.02400
2637.11186	0.02367
2635.82609	0.02337
2634.54033	0.02316
2633.25456	0.02300
2631.96879	0.02284
2630.68302	0.02264
2629.39725	0.02243
2628.11148	0.02229
2626.82571	0.02231
2625.53994	0.02253
2624.25418	0.02288
2622.96841	0.02316
2621.68264	0.02321
2620.39687	0.02302
2619.11110	0.02275
2617.82533	0.02260
2616.53956	0.02258
2615.25379	0.02259
2613.96802	0.02244
2612.68226	0.02213
2611.39649	0.02179
2610.11072	0.02152
2608.82495	0.02131
2607.53918	0.02115
2606.25341	0.02107
2604.96764	0.02110
2603.68187	0.02115
2602.39611	0.02109
2601.11034	0.02085
2599.82457	0.02051
2598.53880	0.02020
2597.25303	0.02002
2595.96726	0.02002
2594.68149	0.02019
2593.39572	0.02045
2592.10995	0.02065
2590.82419	0.02068
2589.53842	0.02058
2588.25265	0.02044
2586.96688	0.02035
2585.68111	0.02031
2584.39534	0.02027
2583.10957	0.02024
2581.82380	0.02017
2580.53804	0.02006
2579.25227	0.01997
2577.96650	0.02001
2576.68073	0.02022
2575.39496	0.02050
2574.10919	0.02057
2572.82342	0.02023
2571.53765	0.01954
2570.25188	0.01893
2568.96612	0.01876
2567.68035	0.01901
2566.39458	0.01935
2565.10881	0.01954
2563.82304	0.01962
2562.53727	0.01973
2561.25150	0.01990
2559.96573	0.02006
2558.67997	0.02014
2557.39420	0.02014
2556.10843	0.02007
2554.82266	0.01992
2553.53689	0.01964
2552.25112	0.01934
2550.96535	0.01922
2549.67958	0.01938
2548.39381	0.01968
2547.10805	0.01977
2545.82228	0.01947
2544.53651	0.01896
2543.25074	0.01860
2541.96497	0.01857
2540.67920	0.01878
2539.39343	0.01907
2538.10766	0.01942
2536.82190	0.01981
2535.53613	0.02008
2534.25036	0.02002
2532.96459	0.01957
2531.67882	0.01894
2530.39305	0.01841
2529.10728	0.01816
2527.82151	0.01813
2526.53574	0.01817
2525.24998	0.01814
2523.96421	0.01803
2522.67844	0.01792
2521.39267	0.01786
2520.10690	0.01787
2518.82113	0.01794
2517.53536	0.01810
2516.24959	0.01832
2514.96383	0.01845
2513.67806	0.01834
2512.39229	0.01804
2511.10652	0.01777
2509.82075	0.01773
2508.53498	0.01788
2507.24921	0.01803
2505.96344	0.01805
2504.67767	0.01787
2503.39191	0.01758
2502.10614	0.01737
2500.82037	0.01741
2499.53460	0.01760
2498.24883	0.01769
2496.96306	0.01753
2495.67729	0.01731
2494.39152	0.01726
2493.10576	0.01744
2491.81999	0.01764
2490.53422	0.01765
2489.24845	0.01738
2487.96268	0.01690
2486.67691	0.01638
2485.39114	0.01601
2484.10537	0.01589
2482.81960	0.01596
2481.53384	0.01608
2480.24807	0.01624
2478.96230	0.01653
2477.67653	0.01702
2476.39076	0.01760
2475.10499	0.01809
2473.81922	0.01840
2472.53345	0.01849
2471.24769	0.01834
2469.96192	0.01796
2468.67615	0.01755
2467.39038	0.01741
2466.10461	0.01761
2464.81884	0.01792
2463.53307	0.01812
2462.24730	0.01820
2460.96153	0.01824
2459.67577	0.01819
2458.39000	0.01795
2457.10423	0.01754
2455.81846	0.01714
2454.53269	0.01686
2453.24692	0.01676
2451.96115	0.01681
2450.67538	0.01689
2449.38962	0.01686
2448.10385	0.01670
2446.81808	0.01655
2445.53231	0.01650
2444.24654	0.01652
2442.96077	0.01657
2441.67500	0.01672
2440.38923	0.01700
2439.10346	0.01733
2437.81770	0.01754
2436.53193	0.01757
2435.24616	0.01748
2433.96039	0.01734
2432.67462	0.01718
2431.38885	0.01701
2430.10308	0.01693
2428.81731	0.01698
2427.53155	0.01703
2426.24578	0.01687
2424.96001	0.01655
2423.67424	0.01637
2422.38847	0.01655
2421.10270	0.01692
2419.81693	0.01712
2418.53116	0.01702
2417.24539	0.01679
2415.95963	0.01667
2414.67386	0.01668
2413.38809	0.01670
2412.10232	0.01663
2410.81655	0.01643
2409.53078	0.01610
2408.24501	0.01569
2406.95924	0.01537
2405.67347	0.01528
2404.38771	0.01545
2403.10194	0.01574
2401.81617	0.01598
2400.53040	0.01607
2399.24463	0.01598
2397.95886	0.01578
2396.67309	0.01557
2395.38732	0.01547
2394.10156	0.01553
2392.81579	0.01571
2391.53002	0.01591
2390.24425	0.01608
2388.95848	0.01617
2387.67271	0.01614
2386.38694	0.01600
2385.10117	0.01581
2383.81540	0.01570
2382.52964	0.01571
2381.24387	0.01582
2379.95810	0.01593
2378.67233	0.01598
2377.38656	0.01599
2376.10079	0.01601
2374.81502	0.01612
2373.52925	0.01629
2372.24349	0.01647
2370.95772	0.01661
2369.67195	0.01674
2368.38618	0.01696
2367.10041	0.01723
2365.81464	0.01746
2364.52887	0.01758
2363.24310	0.01759
2361.95733	0.01759
2360.67157	0.01765
2359.38580	0.01776
2358.10003	0.01783
2356.81426	0.01778
2355.52849	0.01762
2354.24272	0.01748
2352.95695	0.01746
2351.67118	0.01755
2350.38542	0.01763
2349.09965	0.01759
2347.81388	0.01749
2346.52811	0.01747
2345.24234	0.01759
2343.95657	0.01778
2342.67080	0.01789
2341.38503	0.01785
2340.09926	0.01774
2338.81350	0.01767
2337.52773	0.01767
2336.24196	0.01772
2334.95619	0.01777
2333.67042	0.01778
2332.38465	0.01771
2331.09888	0.01758
2329.81311	0.01745
2328.52735	0.01744
2327.24158	0.01761
2325.95581	0.01786
2324.67004	0.01803
2323.38427	0.01799
2322.09850	0.01781
2320.81273	0.01763
2319.52696	0.01753
2318.24119	0.01749
2316.95543	0.01739
2315.66966	0.01718
2314.38389	0.01692
2313.09812	0.01670
2311.81235	0.01652
2310.52658	0.01636
2309.24081	0.01623
2307.95504	0.01616
2306.66928	0.01611
2305.38351	0.01600
2304.09774	0.01580
2302.81197	0.01564
2301.52620	0.01565
2300.24043	0.01578
2298.95466	0.01587
2297.66889	0.01585
2296.38312	0.01578
2295.09736	0.01569
2293.81159	0.01550
2292.52582	0.01519
2291.24005	0.01490
2289.95428	0.01484
2288.66851	0.01506
2287.38274	0.01542
2286.09697	0.01574
2284.81121	0.01592
2283.52544	0.01595
2282.23967	0.01581
2280.95390	0.01551
2279.66813	0.01511
2278.38236	0.01468
2277.09659	0.01432
2275.81082	0.01413
2274.52505	0.01412
2273.23929	0.01417
2271.95352	0.01411
2270.66775	0.01394
2269.38198	0.01373
2268.09621	0.01350
2266.81044	0.01328
2265.52467	0.01319
2264.23890	0.01333
2262.95314	0.01356
2261.66737	0.01362
2260.38160	0.01342
2259.09583	0.01305
2257.81006	0.01271
2256.52429	0.01252
2255.23852	0.01255
2253.95275	0.01275
2252.66698	0.01298
2251.38122	0.01309
2250.09545	0.01301
2248.80968	0.01271
2247.52391	0.01214
2246.23814	0.01150
2244.95237	0.01103
2243.66660	0.01086
2242.38083	0.01093
2241.09507	0.01111
2239.80930	0.01131
2238.52353	0.01143
2237.23776	0.01139
2235.95199	0.01130
2234.66622	0.01139
2233.38045	0.01178
2232.09468	0.01220
2230.80891	0.01229
2229.52315	0.01206
2228.23738	0.01183
2226.95161	0.01176
2225.66584	0.01165
2224.38007	0.01136
2223.09430	0.01102
2221.80853	0.01082
2220.52276	0.01076
2219.23700	0.01080
2217.95123	0.01102
2216.66546	0.01136
2215.37969	0.01154
2214.09392	0.01135
2212.80815	0.01096
2211.52238	0.01074
2210.23661	0.01078
2208.95084	0.01090
2207.66508	0.01091
2206.37931	0.01071
2205.09354	0.01024
2203.80777	0.00950
2202.52200	0.00864
2201.23623	0.00786
2199.95046	0.00735
2198.66469	0.00727
2197.37893	0.00777
2196.09316	0.00866
2194.80739	0.00934
2193.52162	0.00930
2192.23585	0.00866
2190.95008	0.00806
2189.66431	0.00802
2188.37854	0.00854
2187.09277	0.00928
2185.80701	0.00983
2184.52124	0.00989
2183.23547	0.00938
2181.94970	0.00852
2180.66393	0.00767
2179.37816	0.00716
2178.09239	0.00715
2176.80662	0.00752
2175.52085	0.00797
2174.23509	0.00815
2172.94932	0.00801
2171.66355	0.00775
2170.37778	0.00755
2169.09201	0.00736
2167.80624	0.00695
2166.52047	0.00635
2165.23470	0.00592
2163.94894	0.00597
2162.66317	0.00622
2161.37740	0.00598
2160.09163	0.00495
2158.80586	0.00362
2157.52009	0.00283
2156.23432	0.00288
2154.94855	0.00356
2153.66278	0.00463
2152.37702	0.00586
2151.09125	0.00680
2149.80548	0.00693
2148.51971	0.00620
2147.23394	0.00524
2145.94817	0.00473
2144.66240	0.00489
2143.37663	0.00549
2142.09087	0.00629
2140.80510	0.00721
2139.51933	0.00814
2138.23356	0.00878
2136.94779	0.00873
2135.66202	0.00796
2134.37625	0.00703
2133.09048	0.00669
2131.80471	0.00725
2130.51895	0.00834
2129.23318	0.00931
2127.94741	0.00975
2126.66164	0.00966
2125.37587	0.00940
2124.09010	0.00936
2122.80433	0.00963
2121.51856	0.01002
2120.23280	0.01024
2118.94703	0.01023
2117.66126	0.01013
2116.37549	0.01013
2115.08972	0.01022
2113.80395	0.01021
2112.51818	0.00987
2111.23241	0.00921
2109.94664	0.00855
2108.66088	0.00831
2107.37511	0.00858
2106.08934	0.00911
2104.80357	0.00957
2103.51780	0.00986
2102.23203	0.01004
2100.94626	0.01028
2099.66049	0.01271
2098.37473	0.01381
2097.08896	0.01351
2095.80319	0.01264
2094.51742	0.01162
2093.23165	0.01078
2091.94588	0.01031
2090.66011	0.01018
2089.37434	0.01012
2088.08857	0.00995
2086.80281	0.00967
2085.51704	0.00949
2084.23127	0.00956
2082.94550	0.00983
2081.65973	0.01020
2080.37396	0.01061
2079.08819	0.01113
2077.80242	0.01178
2076.51666	0.01232
2075.23089	0.01242
2073.94512	0.01193
2072.65935	0.01110
2071.37358	0.01043
2070.08781	0.01019
2068.80204	0.01023
2067.51627	0.01018
2066.23050	0.00981
2064.94474	0.00917
2063.65897	0.00850
2062.37320	0.00810
2061.08743	0.00803
2059.80166	0.00805
2058.51589	0.00778
2057.23012	0.00714
2055.94435	0.00645
2054.65859	0.00617
2053.37282	0.00661
2052.08705	0.00774
2050.80128	0.00917
2049.51551	0.01030
2048.22974	0.01076
2046.94397	0.01078
2045.65820	0.01076
2044.37243	0.01080
2043.08667	0.01063
2041.80090	0.01021
2040.51513	0.00996
2039.22936	0.01028
2037.94359	0.01109
2036.65782	0.01189
2035.37205	0.01226
2034.08628	0.01206
2032.80052	0.01140
2031.51475	0.01053
2030.22898	0.00982
2028.94321	0.00946
2027.65744	0.00927
2026.37167	0.00886
2025.08590	0.00814
2023.80013	0.00750
2022.51436	0.00742
2021.22860	0.00793
2019.94283	0.00852
2018.65706	0.00867
2017.37129	0.00829
2016.08552	0.00766
2014.79975	0.00719
2013.51398	0.00716
2012.22821	0.00769
2010.94245	0.00873
2009.65668	0.01003
2008.37091	0.01113
2007.08514	0.01157
2005.79937	0.01117
2004.51360	0.01017
2003.22783	0.00894
2001.94206	0.00775
2000.65629	0.00679
1999.37053	0.00632
1998.08476	0.00655
1996.79899	0.00735
1995.51322	0.00823
1994.22745	0.00862
1992.94168	0.00837
1991.65591	0.00769
1990.37014	0.00686
1989.08438	0.00604
1987.79861	0.00539
1986.51284	0.00514
1985.22707	0.00545
1983.94130	0.00630
1982.65553	0.00760
1981.36976	0.00935
1980.08399	0.01147
1978.79822	0.01362
1977.51246	0.01524
1976.22669	0.01577
1974.94092	0.01521
1973.65515	0.01413
1972.36938	0.01329
1971.08361	0.01289
1969.79784	0.01257
1968.51207	0.01189
1967.22631	0.01087
1965.94054	0.00997
1964.65477	0.00959
1963.36900	0.00979
1962.08323	0.01029
1960.79746	0.01073
1959.51169	0.01086
1958.22592	0.01049
1956.94015	0.00962
1955.65439	0.00850
1954.36862	0.00759
1953.08285	0.00726
1951.79708	0.00745
1950.51131	0.00786
1949.22554	0.00826
1947.93977	0.00862
1946.65400	0.00894
1945.36823	0.00915
1944.08247	0.00926
1942.79670	0.00947
1941.51093	0.00997
1940.22516	0.01064
1938.93939	0.01120
1937.65362	0.01145
1936.36785	0.01143
1935.08208	0.01123
1933.79632	0.01093
1932.51055	0.01056
1931.22478	0.01022
1929.93901	0.00994
1928.65324	0.00973
1927.36747	0.00953
1926.08170	0.00936
1924.79593	0.00929
1923.51016	0.00932
1922.22440	0.00943
1920.93863	0.00958
1919.65286	0.00979
1918.36709	0.01008
1917.08132	0.01041
1915.79555	0.01070
1914.50978	0.01085
1913.22401	0.01082
1911.93825	0.01069
1910.65248	0.01057
1909.36671	0.01046
1908.08094	0.01033
1906.79517	0.01027
1905.50940	0.01037
1904.22363	0.01062
1902.93786	0.01081
1901.65209	0.01080
1900.36633	0.01068
1899.08056	0.01063
1897.79479	0.01075
1896.50902	0.01099
1895.22325	0.01121
1893.93748	0.01126
1892.65171	0.01111
1891.36594	0.01081
1890.08018	0.01048
1888.79441	0.01019
1887.50864	0.01000
1886.22287	0.00995
1884.93710	0.01007
1883.65133	0.01030
1882.36556	0.01049
1881.07979	0.01050
1879.79402	0.01033
1878.50826	0.01017
1877.22249	0.01024
1875.93672	0.01054
1874.65095	0.01085
1873.36518	0.01103
1872.07941	0.01111
1870.79364	0.01121
1869.50787	0.01132
1868.22211	0.01135
1866.93634	0.01123
1865.65057	0.01101
1864.36480	0.01081
1863.07903	0.01073
1861.79326	0.01079
1860.50749	0.01091
1859.22172	0.01096
1857.93595	0.01086
1856.65019	0.01066
1855.36442	0.01046
1854.07865	0.01032
1852.79288	0.01024
1851.50711	0.01020
1850.22134	0.01019
1848.93557	0.01017
1847.64980	0.01013
1846.36404	0.01013
1845.07827	0.01019
1843.79250	0.01016
1842.50673	0.00999
1841.22096	0.00984
1839.93519	0.00988
1838.64942	0.01006
1837.36365	0.01020
1836.07788	0.01017
1834.79212	0.00998
1833.50635	0.00975
1832.22058	0.00963
1830.93481	0.00968
1829.64904	0.00985
1828.36327	0.01007
1827.07750	0.01034
1825.79173	0.01066
1824.50597	0.01098
1823.22020	0.01129
1821.93443	0.01160
1820.64866	0.01181
1819.36289	0.01181
1818.07712	0.01152
1816.79135	0.01101
1815.50558	0.01042
1814.21981	0.00990
1812.93405	0.00952
1811.64828	0.00929
1810.36251	0.00918
1809.07674	0.00918
1807.79097	0.00922
1806.50520	0.00927
1805.21943	0.00937
1803.93366	0.00954
1802.64790	0.00976
1801.36213	0.00994
1800.07636	0.01003
1798.79059	0.01002
1797.50482	0.00996
1796.21905	0.00985
1794.93328	0.00972
1793.64751	0.00964
1792.36174	0.00962
1791.07598	0.00964
1789.79021	0.00975
1788.50444	0.00992
1787.21867	0.01010
1785.93290	0.01022
1784.64713	0.01021
1783.36136	0.01013
1782.07559	0.01007
1780.78983	0.01009
1779.50406	0.01012
1778.21829	0.01008
1776.93252	0.00997
1775.64675	0.00984
1774.36098	0.00979
1773.07521	0.00976
1771.78944	0.00965
1770.50367	0.00949
1769.21791	0.00938
1767.93214	0.00934
1766.64637	0.00929
1765.36060	0.00929
1764.07483	0.00941
1762.78906	0.00958
1761.50329	0.00968
1760.21752	0.00969
1758.93176	0.00973
1757.64599	0.00984
1756.36022	0.00991
1755.07445	0.00987
1753.78868	0.00979
1752.50291	0.00976
1751.21714	0.00978
1749.93137	0.00979
1748.64560	0.00979
1747.35984	0.00981
1746.07407	0.00987
1744.78830	0.00996
1743.50253	0.01008
1742.21676	0.01021
1740.93099	0.01037
1739.64522	0.01049
1738.35945	0.01053
1737.07369	0.01057
1735.78792	0.01076
1734.50215	0.01099
1733.21638	0.01111
1731.93061	0.01111
1730.64484	0.01115
1729.35907	0.01126
1728.07330	0.01135
1726.78753	0.01145
1725.50177	0.01158
1724.21600	0.01173
1722.93023	0.01185
1721.64446	0.01193
1720.35869	0.01207
1719.07292	0.01233
1717.78715	0.01261
1716.50138	0.01282
1715.21561	0.01304
1713.92985	0.01334
1712.64408	0.01374
1711.35831	0.01418
1710.07254	0.01467
1708.78677	0.01525
1707.50100	0.01591
1706.21523	0.01657
1704.92946	0.01715
1703.64370	0.01773
1702.35793	0.01855
1701.07216	0.01957
1699.78639	0.02050
1698.50062	0.02135
1697.21485	0.02236
1695.92908	0.02349
1694.64331	0.02450
1693.35754	0.02538
1692.07178	0.02629
1690.78601	0.02721
1689.50024	0.02804
1688.21447	0.02888
1686.92870	0.02993
1685.64293	0.03119
1684.35716	0.03234
1683.07139	0.03322
1681.78563	0.03407
1680.49986	0.03509
1679.21409	0.03627
1677.92832	0.03754
1676.64255	0.03886
1675.35678	0.04011
1674.07101	0.04121
1672.78524	0.04226
1671.49947	0.04342
1670.21371	0.04464
1668.92794	0.04581
1667.64217	0.04690
1666.35640	0.04800
1665.07063	0.04918
1663.78486	0.05039
1662.49909	0.05151
1661.21332	0.05251
1659.92756	0.05338
1658.64179	0.05413
1657.35602	0.05476
1656.07025	0.05546
1654.78448	0.05637
1653.49871	0.05728
1652.21294	0.05784
1650.92717	0.05810
1649.64140	0.05845
1648.35564	0.05907
1647.06987	0.05974
1645.78410	0.06025
1644.49833	0.06059
1643.21256	0.06089
1641.92679	0.06117
1640.64102	0.06138
1639.35525	0.06148
1638.06949	0.06161
1636.78372	0.06179
1635.49795	0.06192
1634.21218	0.06191
1632.92641	0.06184
1631.64064	0.06181
1630.35487	0.06174
1629.06910	0.06152
1627.78333	0.06109
1626.49757	0.06050
1625.21180	0.05983
1623.92603	0.05911
1622.64026	0.05826
1621.35449	0.05728
1620.06872	0.05625
1618.78295	0.05526
1617.49718	0.05429
1616.21142	0.05322
1614.92565	0.05208
1613.63988	0.05100
1612.35411	0.05000
1611.06834	0.04898
1609.78257	0.04793
1608.49680	0.04688
1607.21103	0.04586
1605.92526	0.04487
1604.63950	0.04391
1603.35373	0.04302
1602.06796	0.04220
1600.78219	0.04146
1599.49642	0.04079
1598.21065	0.04016
1596.92488	0.03954
1595.63911	0.03895
1594.35335	0.03842
1593.06758	0.03798
1591.78181	0.03764
1590.49604	0.03734
1589.21027	0.03709
1587.92450	0.03690
1586.63873	0.03679
1585.35296	0.03673
1584.06719	0.03667
1582.78143	0.03656
1581.49566	0.03643
1580.20989	0.03635
1578.92412	0.03643
1577.63835	0.03676
1576.35258	0.03717
1575.06681	0.03749
1573.78104	0.03777
1572.49528	0.03821
1571.20951	0.03881
1569.92374	0.03942
1568.63797	0.03995
1567.35220	0.04045
1566.06643	0.04099
1564.78066	0.04149
1563.49489	0.04193
1562.20912	0.04246
1560.92336	0.04321
1559.63759	0.04407
1558.35182	0.04481
1557.06605	0.04542
1555.78028	0.04607
1554.49451	0.04676
1553.20874	0.04737
1551.92297	0.04791
1550.63721	0.04847
1549.35144	0.04903
1548.06567	0.04954
1546.77990	0.05001
1545.49413	0.05043
1544.20836	0.05077
1542.92259	0.05107
1541.63682	0.05140
1540.35105	0.05170
1539.06529	0.05181
1537.77952	0.05175
1536.49375	0.05174
1535.20798	0.05195
1533.92221	0.05223
1532.63644	0.05241
1531.35067	0.05248
1530.06490	0.05249
1528.77914	0.05249
1527.49337	0.05247
1526.20760	0.05243
1524.92183	0.05238
1523.63606	0.05238
1522.35029	0.05240
1521.06452	0.05232
1519.77875	0.05209
1518.49298	0.05187
1517.20722	0.05172
1515.92145	0.05155
1514.63568	0.05131
1513.34991	0.05102
1512.06414	0.05066
1510.77837	0.05015
1509.49260	0.04957
1508.20683	0.04900
1506.92107	0.04840
1505.63530	0.04766
1504.34953	0.04683
1503.06376	0.04604
1501.77799	0.04535
1500.49222	0.04466
1499.20645	0.04395
1497.92068	0.04323
1496.63491	0.04247
1495.34915	0.04162
1494.06338	0.04073
1492.77761	0.03991
1491.49184	0.03918
1490.20607	0.03845
1488.92030	0.03771
1487.63453	0.03702
1486.34876	0.03640
1485.06299	0.03584
1483.77723	0.03533
1482.49146	0.03486
1481.20569	0.03446
1479.91992	0.03414
1478.63415	0.03394
1477.34838	0.03386
1476.06261	0.03389
1474.77684	0.03403
1473.49108	0.03424
1472.20531	0.03439
1470.91954	0.03444
1469.63377	0.03451
1468.34800	0.03476
1467.06223	0.03520
1465.77646	0.03569
1464.49069	0.03612
1463.20492	0.03644
1461.91916	0.03670
1460.63339	0.03701
1459.34762	0.03747
1458.06185	0.03807
1456.77608	0.03863
1455.49031	0.03902
1454.20454	0.03929
1452.91877	0.03953
1451.63301	0.03969
1450.34724	0.03975
1449.06147	0.03977
1447.77570	0.03976
1446.48993	0.03966
1445.20416	0.03946
1443.91839	0.03918
1442.63262	0.03888
1441.34685	0.03861
1440.06109	0.03840
1438.77532	0.03826
1437.48955	0.03810
1436.20378	0.03780
1434.91801	0.03740
1433.63224	0.03705
1432.34647	0.03681
1431.06070	0.03662
1429.77494	0.03642
1428.48917	0.03625
1427.20340	0.03612
1425.91763	0.03605
1424.63186	0.03596
1423.34609	0.03583
1422.06032	0.03570
1420.77455	0.03564
1419.48878	0.03558
1418.20302	0.03547
1416.91725	0.03535
1415.63148	0.03532
1414.34571	0.03538
1413.05994	0.03543
1411.77417	0.03542
1410.48840	0.03536
1409.20263	0.03528
1407.91687	0.03522
1406.63110	0.03520
1405.34533	0.03522
1404.05956	0.03523
1402.77379	0.03524
1401.48802	0.03524
1400.20225	0.03521
1398.91648	0.03512
1397.63071	0.03499
1396.34495	0.03490
1395.05918	0.03485
1393.77341	0.03477
1392.48764	0.03464
1391.20187	0.03454
1389.91610	0.03449
1388.63033	0.03449
1387.34456	0.03446
1386.05880	0.03438
1384.77303	0.03432
1383.48726	0.03428
1382.20149	0.03424
1380.91572	0.03414
1379.62995	0.03398
1378.34418	0.03374
1377.05841	0.03346
1375.77264	0.03316
1374.48688	0.03288
1373.20111	0.03263
1371.91534	0.03238
1370.62957	0.03213
1369.34380	0.03185
1368.05803	0.03153
1366.77226	0.03121
1365.48649	0.03091
1364.20073	0.03063
1362.91496	0.03034
1361.62919	0.03003
1360.34342	0.02974
1359.05765	0.02951
1357.77188	0.02936
1356.48611	0.02924
1355.20034	0.02914
1353.91457	0.02906
1352.62881	0.02902
1351.34304	0.02900
1350.05727	0.02901
1348.77150	0.02906
1347.48573	0.02913
1346.19996	0.02923
1344.91419	0.02934
1343.62842	0.02945
1342.34266	0.02956
1341.05689	0.02969
1339.77112	0.02980
1338.48535	0.02987
1337.19958	0.02991
1335.91381	0.02993
1334.62804	0.02991
1333.34227	0.02985
1332.05650	0.02976
1330.77074	0.02967
1329.48497	0.02958
1328.19920	0.02948
1326.91343	0.02933
1325.62766	0.02915
1324.34189	0.02896
1323.05612	0.02879
1321.77035	0.02866
1320.48459	0.02858
1319.19882	0.02853
1317.91305	0.02851
1316.62728	0.02849
1315.34151	0.02847
1314.05574	0.02843
1312.76997	0.02838
1311.48420	0.02833
1310.19843	0.02828
1308.91267	0.02822
1307.62690	0.02815
1306.34113	0.02808
1305.05536	0.02798
1303.76959	0.02785
1302.48382	0.02769
1301.19805	0.02753
1299.91228	0.02740
1298.62652	0.02731
1297.34075	0.02727
1296.05498	0.02728
1294.76921	0.02733
1293.48344	0.02741
1292.19767	0.02748
1290.91190	0.02754
1289.62613	0.02758
1288.34036	0.02762
1287.05460	0.02766
1285.76883	0.02769
1284.48306	0.02775
1283.19729	0.02785
1281.91152	0.02797
1280.62575	0.02808
1279.33998	0.02816
1278.05421	0.02820
1276.76845	0.02822
1275.48268	0.02825
1274.19691	0.02831
1272.91114	0.02838
1271.62537	0.02844
1270.33960	0.02848
1269.05383	0.02851
1267.76806	0.02855
1266.48229	0.02864
1265.19653	0.02879
1263.91076	0.02900
1262.62499	0.02924
1261.33922	0.02946
1260.05345	0.02964
1258.76768	0.02978
1257.48191	0.02992
1256.19614	0.03008
1254.91037	0.03029
1253.62461	0.03054
1252.33884	0.03081
1251.05307	0.03107
1249.76730	0.03129
1248.48153	0.03149
1247.19576	0.03171
1245.90999	0.03197
1244.62422	0.03227
1243.33846	0.03260
1242.05269	0.03292
1240.76692	0.03318
1239.48115	0.03336
1238.19538	0.03349
1236.90961	0.03364
1235.62384	0.03382
1234.33807	0.03397
1233.05230	0.03407
1231.76654	0.03410
1230.48077	0.03407
1229.19500	0.03399
1227.90923	0.03388
1226.62346	0.03373
1225.33769	0.03353
1224.05192	0.03326
1222.76615	0.03295
1221.48039	0.03262
1220.19462	0.03229
1218.90885	0.03198
1217.62308	0.03166
1216.33731	0.03135
1215.05154	0.03105
1213.76577	0.03080
1212.48000	0.03065
1211.19423	0.03060
1209.90847	0.03062
1208.62270	0.03065
1207.33693	0.03067
1206.05116	0.03065
1204.76539	0.03064
1203.47962	0.03063
1202.19385	0.03062
1200.90808	0.03043
1199.62232	0.02999
1198.33655	0.02977
1197.05078	0.02949
1195.76501	0.02915
1194.47924	0.02883
1193.19347	0.02857
1191.90770	0.02832
1190.62193	0.02805
1189.33616	0.02776
1188.05040	0.02751
1186.76463	0.02733
1185.47886	0.02723
1184.19309	0.02718
1182.90732	0.02711
1181.62155	0.02703
1180.33578	0.02694
1179.05001	0.02691
1177.76425	0.02693
1176.47848	0.02700
1175.19271	0.02706
1173.90694	0.02706
1172.62117	0.02699
1171.33540	0.02694
1170.04963	0.02700
1168.76386	0.02721
1167.47809	0.02750
1166.19233	0.02774
1164.90656	0.02784
1163.62079	0.02781
1162.33502	0.02775
1161.04925	0.02776
1159.76348	0.02787
1158.47771	0.02802
1157.19194	0.02813
1155.90618	0.02815
1154.62041	0.02813
1153.33464	0.02808
1152.04887	0.02803
1150.76310	0.02799
1149.47733	0.02794
1148.19156	0.02789
1146.90579	0.02783
1145.62002	0.02772
1144.33426	0.02755
1143.04849	0.02736
1141.76272	0.02720
1140.47695	0.02712
1139.19118	0.02711
1137.90541	0.02715
1136.61964	0.02721
1135.33387	0.02733
1134.04811	0.02751
1132.76234	0.02777
1131.47657	0.02813
1130.19080	0.02860
1128.90503	0.02920
1127.61926	0.02985
1126.33349	0.03050
1125.04772	0.03113
1123.76195	0.03179
1122.47619	0.03254
1121.19042	0.03336
1119.90465	0.03422
1118.61888	0.03506
1117.33311	0.03591
1116.04734	0.03680
1114.76157	0.03772
1113.47580	0.03863
1112.19004	0.03950
1110.90427	0.04032
1109.61850	0.04113
1108.33273	0.04198
1107.04696	0.04290
1105.76119	0.04386
1104.47542	0.04478
1103.18965	0.04560
1101.90388	0.04633
1100.61812	0.04703
1099.33235	0.04775
1098.04658	0.04844
1096.76081	0.04901
1095.47504	0.04943
1094.18927	0.04970
1092.90350	0.04984
1091.61773	0.04988
1090.33197	0.04985
1089.04620	0.04975
1087.76043	0.04962
1086.47466	0.04958
1085.18889	0.04975
1083.90312	0.05022
1082.61735	0.05095
1081.33158	0.05180
1080.04581	0.05263
1078.76005	0.05338
1077.47428	0.05408
1076.18851	0.05479
1074.90274	0.05553
1073.61697	0.05631
1072.33120	0.05710
1071.04543	0.05787
1069.75966	0.05860
1068.47390	0.05930
1067.18813	0.05996
1065.90236	0.06059
1064.61659	0.06118
1063.33082	0.06176
1062.04505	0.06236
1060.75928	0.06303
1059.47351	0.06374
1058.18774	0.06449
1056.90198	0.06526
1055.61621	0.06606
1054.33044	0.06688
1053.04467	0.06765
1051.75890	0.06836
1050.47313	0.06904
1049.18736	0.06973
1047.90159	0.07046
1046.61583	0.07123
1045.33006	0.07203
1044.04429	0.07287
1042.75852	0.07377
1041.47275	0.07469
1040.18698	0.07559
1038.90121	0.07647
1037.61544	0.07736
1036.32967	0.07833
1035.04391	0.07939
1033.75814	0.08047
1032.47237	0.08149
1031.18660	0.08233
1029.90083	0.08290
1028.61506	0.08314
1027.32929	0.08304
1026.04352	0.08261
1024.75775	0.08194
1023.47199	0.08115
1022.18622	0.08031
1020.90045	0.07945
1019.61468	0.07851
1018.32891	0.07743
1017.04314	0.07621
1015.75737	0.07490
1014.47160	0.07353
1013.18584	0.07217
1011.90007	0.07086
1010.61430	0.06965
1009.32853	0.06854
1008.04276	0.06753
1006.75699	0.06658
1005.47122	0.06566
1004.18545	0.06474
1002.89968	0.06383
1001.61392	0.06294
1000.32815	0.06208
999.04238	0.06120
997.75661	0.06027
996.47084	0.05934
995.18507	0.05846
993.89930	0.05766
992.61353	0.05692
991.32777	0.05618
990.04200	0.05546
988.75623	0.05479
987.47046	0.05417
986.18469	0.05354
984.89892	0.05285
983.61315	0.05211
982.32738	0.05141
981.04161	0.05078
979.75585	0.05022
978.47008	0.04970
977.18431	0.04920
975.89854	0.04869
974.61277	0.04815
973.32700	0.04760
972.04123	0.04710
970.75546	0.04675
969.46970	0.04664
968.18393	0.04675
966.89816	0.04694
965.61239	0.04704
964.32662	0.04696
963.04085	0.04674
961.75508	0.04646
960.46931	0.04617
959.18354	0.04581
957.89778	0.04537
956.61201	0.04486
955.32624	0.04435
954.04047	0.04388
952.75470	0.04346
951.46893	0.04305
950.18316	0.04258
948.89739	0.04207
947.61163	0.04157
946.32586	0.04114
945.04009	0.04074
943.75432	0.04035
942.46855	0.03997
941.18278	0.03967
939.89701	0.03948
938.61124	0.03930
937.32547	0.03906
936.03971	0.03871
934.75394	0.03830
933.46817	0.03787
932.18240	0.03747
930.89663	0.03716
929.61086	0.03693
928.32509	0.03672
927.03932	0.03648
925.75356	0.03622
924.46779	0.03596
923.18202	0.03573
921.89625	0.03549
920.61048	0.03520
919.32471	0.03488
918.03894	0.03453
916.75317	0.03420
915.46740	0.03388
914.18164	0.03357
912.89587	0.03330
911.61010	0.03307
910.32433	0.03285
909.03856	0.03256
907.75279	0.03223
906.46702	0.03194
905.18125	0.03176
903.89549	0.03166
902.60972	0.03154
901.32395	0.03135
900.03818	0.03114
898.75241	0.03094
897.46664	0.03074
896.18087	0.03048
894.89510	0.03017
893.60933	0.02985
892.32357	0.02962
891.03780	0.02948
889.75203	0.02936
888.46626	0.02918
887.18049	0.02894
885.89472	0.02872
884.60895	0.02861
883.32318	0.02863
882.03742	0.02875
880.75165	0.02893
879.46588	0.02913
878.18011	0.02926
876.89434	0.02926
875.60857	0.02913
874.32280	0.02894
873.03703	0.02881
871.75126	0.02877
870.46550	0.02878
869.17973	0.02875
867.89396	0.02866
866.60819	0.02855
865.32242	0.02849
864.03665	0.02848
862.75088	0.02844
861.46511	0.02830
860.17935	0.02808
858.89358	0.02787
857.60781	0.02774
856.32204	0.02770
855.03627	0.02770
853.75050	0.02769
852.46473	0.02761
851.17896	0.02749
849.89319	0.02732
848.60743	0.02710
847.32166	0.02682
846.03589	0.02655
844.75012	0.02634
843.46435	0.02618
842.17858	0.02601
840.89281	0.02579
839.60704	0.02559
838.32128	0.02544
837.03551	0.02533
835.74974	0.02518
834.46397	0.02499
833.17820	0.02479
831.89243	0.02466
830.60666	0.02461
829.32089	0.02458
828.03512	0.02448
826.74936	0.02433
825.46359	0.02417
824.17782	0.02408
822.89205	0.02404
821.60628	0.02397
820.32051	0.02387
819.03474	0.02374
817.74897	0.02361
816.46321	0.02351
815.17744	0.02342
813.89167	0.02337
812.60590	0.02338
811.32013	0.02344
810.03436	0.02347
808.74859	0.02343
807.46282	0.02334
806.17705	0.02330
804.89129	0.02334
803.60552	0.02342
802.31975	0.02347
801.03398	0.02349
799.74821	0.02352
798.46244	0.02360
797.17667	0.02366
795.89090	0.02361
794.60513	0.02342
793.31937	0.02321
792.03360	0.02308
790.74783	0.02308
789.46206	0.02314
788.17629	0.02315
786.89052	0.02310
785.60475	0.02301
784.31898	0.02294
783.03322	0.02293
781.74745	0.02301
780.46168	0.02315
779.17591	0.02331
777.89014	0.02344
776.60437	0.02347
775.31860	0.02340
774.03283	0.02329
772.74706	0.02320
771.46130	0.02313
770.17553	0.02309
768.88976	0.02304
767.60399	0.02301
766.31822	0.02300
765.03245	0.02305
763.74668	0.02314
762.46091	0.02327
761.17515	0.02340
759.88938	0.02347
758.60361	0.02347
757.31784	0.02343
756.03207	0.02341
754.74630	0.02344
753.46053	0.02348
752.17476	0.02353
750.88899	0.02362
749.60323	0.02376
748.31746	0.02390
747.03169	0.02394
745.74592	0.02387
744.46015	0.02379
743.17438	0.02383
741.88861	0.02398
740.60284	0.02412
739.31708	0.02416
738.03131	0.02410
736.74554	0.02398
735.45977	0.02383
734.17400	0.02369
732.88823	0.02360
731.60246	0.02361
730.31669	0.02367
729.03092	0.02368
727.74516	0.02365
726.45939	0.02360
725.17362	0.02359
723.88785	0.02359
722.60208	0.02365
721.31631	0.02375
720.03054	0.02390
718.74477	0.02406
717.45901	0.02416
716.17324	0.02415
714.88747	0.02405
713.60170	0.02393
712.31593	0.02389
711.03016	0.02395
709.74439	0.02408
708.45862	0.02418
707.17285	0.02424
705.88709	0.02426
704.60132	0.02427
703.31555	0.02429
702.02978	0.02434
700.74401	0.02441
699.45824	0.02449
698.17247	0.02452
696.88670	0.02451
695.60094	0.02446
694.31517	0.02441
693.02940	0.02435
691.74363	0.02426
690.45786	0.02417
689.17209	0.02410
687.88632	0.02408
686.60055	0.02409
685.31478	0.02409
684.02902	0.02406
682.74325	0.02402
681.45748	0.02402
680.17171	0.02406
678.88594	0.02414
677.60017	0.02420
676.31440	0.02420
675.02863	0.02416
673.74287	0.02412
672.45710	0.02411
671.17133	0.02411
669.88556	0.02409
668.59979	0.02407
667.31402	0.02409
666.02825	0.02417
664.74248	0.02429
663.45671	0.02439
662.17095	0.02442
660.88518	0.02435
659.59941	0.02422
658.31364	0.02413
657.02787	0.02412
655.74210	0.02422
654.45633	0.02436
653.17056	0.02448
651.88480	0.02453
650.59903	0.02451
649.31326	0.02445
648.02749	0.02438
646.74172	0.02432
645.45595	0.02426
644.17018	0.02420
642.88441	0.02411
641.59864	0.02399
640.31288	0.02386
639.02711	0.02376
637.74134	0.02370
636.45557	0.02366
635.16980	0.02365
633.88403	0.02364
632.59826	0.02357
631.31249	0.02371
630.02673	0.02537
628.74096	0.02792
627.45519	0.02611
626.16942	0.02883
624.88365	0.03447
623.59788	0.03940
622.31211	0.04216
621.02634	0.04220
619.74057	0.03977
618.45481	0.03605
617.16904	0.03253
615.88327	0.03002
614.59750	0.02844
613.31173	0.02750
612.02596	0.02779
610.74019	0.03056
609.45442	0.03605
608.16866	0.04250
606.88289	0.04751
605.59712	0.05002
604.31135	0.05059
603.02558	0.05034
601.73981	0.04994
600.45404	0.04936
599.16827	0.04835
597.88250	0.04688
596.59674	0.04518
595.31097	0.04359
594.02520	0.04233
592.73943	0.04146
591.45366	0.04084
590.16789	0.04031
588.88212	0.03983
587.59635	0.03946
586.31059	0.03933
585.02482	0.03952
583.73905	0.04007
582.45328	0.04097
581.16751	0.04213
579.88174	0.04345
578.59597	0.04473
577.31020	0.04583
576.02443	0.04670
574.73867	0.04745
573.45290	0.04819
572.16713	0.04899
570.88136	0.04983
569.59559	0.05072
568.30982	0.05168
567.02405	0.05264
565.73828	0.05345
564.45251	0.05394
563.16675	0.05403
561.88098	0.05376
560.59521	0.05318
559.30944	0.05233
558.02367	0.05131
556.73790	0.05028
555.45213	0.04930
554.16636	0.04838
552.88060	0.04748
551.59483	0.04660
550.30906	0.04578
549.02329	0.04506
547.73752	0.04446
546.45175	0.04398
545.16598	0.04358
543.88021	0.04317
542.59444	0.04267
541.30868	0.04210
540.02291	0.04149
538.73714	0.04089
537.45137	0.04028
536.16560	0.03967
534.87983	0.03912
533.59406	0.03868
532.30829	0.03835
531.02253	0.03808
529.73676	0.03781
528.45099	0.03748
527.16522	0.03706
525.87945	0.03659
524.59368	0.03610
523.30791	0.03563
522.02214	0.03518
520.73637	0.03476
519.45061	0.03438
518.16484	0.03405
516.87907	0.03375
515.59330	0.03347
514.30753	0.03319
513.02176	0.03289
511.73599	0.03258
510.45022	0.03228
509.16446	0.03199
507.87869	0.03167
506.59292	0.03133
505.30715	0.03097
504.02138	0.03066
502.73561	0.03037
501.44984	0.03008
500.16407	0.02973
498.87830	0.02937
497.59254	0.02909
496.30677	0.02897
495.02100	0.02892
493.73523	0.02886
492.44946	0.02872
491.16369	0.02856
489.87792	0.02844
488.59215	0.02831
487.30639	0.02812
486.02062	0.02790
484.73485	0.02768
483.44908	0.02747
482.16331	0.02725
480.87754	0.02705
479.59177	0.02694
478.30600	0.02699
477.02023	0.02715
475.73447	0.02729
474.44870	0.02730
473.16293	0.02719
471.87716	0.02705
470.59139	0.02694
469.30562	0.02689
468.01985	0.02682
466.73408	0.02668
465.44832	0.02647
464.16255	0.02623
462.87678	0.02598
461.59101	0.02575
460.30524	0.02557
459.01947	0.02544
457.73370	0.02530
456.44793	0.02509
455.16216	0.02482
453.87640	0.02451
452.59063	0.02420
451.30486	0.02390
450.01909	0.02361
448.73332	0.02335
447.44755	0.02315
446.16178	0.02299
444.87601	0.02286
443.59025	0.02269
442.30448	0.02250
441.01871	0.02233
439.73294	0.02224
438.44717	0.02223
437.16140	0.02228
435.87563	0.02232
434.58986	0.02235
433.30409	0.02234
432.01833	0.02227
430.73256	0.02212
429.44679	0.02193
428.16102	0.02175
426.87525	0.02158
425.58948	0.02145
424.30371	0.02132
423.01794	0.02121
421.73218	0.02111
420.44641	0.02104
419.16064	0.02096
417.87487	0.02085
416.58910	0.02069
415.30333	0.02053
414.01756	0.02038
412.73179	0.02029
411.44602	0.02026
410.16026	0.02022
408.87449	0.02015
407.58872	0.02004
406.30295	0.01993
405.01718	0.01986
403.73141	0.01980
402.44564	0.01974
401.15987	0.01967
399.87411	0.01961
