3997.45528	0.02235
3996.16951	0.02213
3994.88374	0.02212
3993.59798	0.02234
3992.31221	0.02272
3991.02644	0.02323
3989.74067	0.02380
3988.45490	0.02435
3987.16913	0.02485
3985.88336	0.02525
3984.59759	0.02540
3983.31183	0.02513
3982.02606	0.02449
3980.74029	0.02387
3979.45452	0.02362
3978.16875	0.02370
3976.88298	0.02378
3975.59721	0.02367
3974.31144	0.02350
3973.02567	0.02340
3971.73991	0.02344
3970.45414	0.02368
3969.16837	0.02411
3967.88260	0.02462
3966.59683	0.02487
3965.31106	0.02463
3964.02529	0.02393
3962.73952	0.02308
3961.45376	0.02241
3960.16799	0.02209
3958.88222	0.02207
3957.59645	0.02223
3956.31068	0.02246
3955.02491	0.02270
3953.73914	0.02292
3952.45337	0.02309
3951.16760	0.02322
3949.88184	0.02334
3948.59607	0.02348
3947.31030	0.02362
3946.02453	0.02369
3944.73876	0.02366
3943.45299	0.02361
3942.16722	0.02357
3940.88145	0.02353
3939.59569	0.02350
3938.30992	0.02353
3937.02415	0.02361
3935.73838	0.02363
3934.45261	0.02357
3933.16684	0.02350
3931.88107	0.02353
3930.59530	0.02361
3929.30953	0.02357
3928.02377	0.02336
3926.73800	0.02311
3925.45223	0.02306
3924.16646	0.02329
3922.88069	0.02368
3921.59492	0.02395
3920.30915	0.02395
3919.02338	0.02366
3917.73762	0.02323
3916.45185	0.02291
3915.16608	0.02287
3913.88031	0.02311
3912.59454	0.02339
3911.30877	0.02349
3910.02300	0.02332
3908.73723	0.02308
3907.45146	0.02301
3906.16570	0.02316
3904.87993	0.02336
3903.59416	0.02343
3902.30839	0.02329
3901.02262	0.02304
3899.73685	0.02288
3898.45108	0.02296
3897.16531	0.02321
3895.87955	0.02341
3894.59378	0.02337
3893.30801	0.02311
3892.02224	0.02280
3890.73647	0.02261
3889.45070	0.02254
3888.16493	0.02259
3886.87916	0.02273
3885.59339	0.02298
3884.30763	0.02328
3883.02186	0.02352
3881.73609	0.02346
3880.45032	0.02298
3879.16455	0.02221
3877.87878	0.02155
3876.59301	0.02140
3875.30724	0.02191
3874.02148	0.02287
3872.73571	0.02382
3871.44994	0.02429
3870.16417	0.02406
3868.87840	0.02330
3867.59263	0.02240
3866.30686	0.02169
3865.02109	0.02129
3863.73532	0.02125
3862.44956	0.02160
3861.16379	0.02233
3859.87802	0.02321
3858.59225	0.02390
3857.30648	0.02421
3856.02071	0.02413
3854.73494	0.02378
3853.44917	0.02331
3852.16341	0.02292
3850.87764	0.02280
3849.59187	0.02294
3848.30610	0.02319
3847.02033	0.02337
3845.73456	0.02344
3844.44879	0.02346
3843.16302	0.02350
3841.87725	0.02349
3840.59149	0.02323
3839.30572	0.02267
3838.01995	0.02203
3836.73418	0.02164
3835.44841	0.02165
3834.16264	0.02192
3832.87687	0.02218
3831.59110	0.02223
3830.30534	0.02215
3829.01957	0.02213
3827.73380	0.02233
3826.44803	0.02270
3825.16226	0.02303
3823.87649	0.02312
3822.59072	0.02297
3821.30495	0.02272
3820.01918	0.02258
3818.73342	0.02267
3817.44765	0.02287
3816.16188	0.02300
3814.87611	0.02304
3813.59034	0.02313
3812.30457	0.02331
3811.01880	0.02345
3809.73303	0.02332
3808.44726	0.02291
3807.16150	0.02245
3805.87573	0.02216
3804.58996	0.02212
3803.30419	0.02226
3802.01842	0.02248
3800.73265	0.02273
3799.44688	0.02296
3798.16111	0.02313
3796.87535	0.02331
3795.58958	0.02357
3794.30381	0.02383
3793.01804	0.02385
3791.73227	0.02342
3790.44650	0.02264
3789.16073	0.02180
3787.87496	0.02119
3786.58919	0.02088
3785.30343	0.02077
3784.01766	0.02079
3782.73189	0.02096
3781.44612	0.02134
3780.16035	0.02188
3778.87458	0.02243
3777.58881	0.02282
3776.30304	0.02307
3775.01728	0.02327
3773.73151	0.02348
3772.44574	0.02359
3771.15997	0.02336
3769.87420	0.02271
3768.58843	0.02191
3767.30266	0.02145
3766.01689	0.02157
3764.73112	0.02205
3763.44536	0.02241
3762.15959	0.02245
3760.87382	0.02236
3759.58805	0.02242
3758.30228	0.02261
3757.01651	0.02262
3755.73074	0.02226
3754.44497	0.02166
3753.15921	0.02115
3751.87344	0.02095
3750.58767	0.02099
3749.30190	0.02113
3748.01613	0.02124
3746.73036	0.02125
3745.44459	0.02106
3744.15882	0.02062
3742.87305	0.02012
3741.58729	0.01987
3740.30152	0.02004
3739.01575	0.02052
3737.72998	0.02103
3736.44421	0.02136
3735.15844	0.02149
3733.87267	0.02158
3732.58690	0.02177
3731.30114	0.02201
3730.01537	0.02206
3728.72960	0.02179
3727.44383	0.02137
3726.15806	0.02113
3724.87229	0.02116
3723.58652	0.02125
3722.30075	0.02115
3721.01498	0.02084
3719.72922	0.02061
3718.44345	0.02078
3717.15768	0.02132
3715.87191	0.02189
3714.58614	0.02211
3713.30037	0.02193
3712.01460	0.02171
3710.72883	0.02184
3709.44307	0.02232
3708.15730	0.02275
3706.87153	0.02277
3705.58576	0.02243
3704.29999	0.02214
3703.01422	0.02202
3701.72845	0.02185
3700.44268	0.02141
3699.15691	0.02092
3697.87115	0.02066
3696.58538	0.02063
3695.29961	0.02075
3694.01384	0.02088
3692.72807	0.02094
3691.44230	0.02093
3690.15653	0.02089
3688.87076	0.02081
3687.58500	0.02065
3686.29923	0.02055
3685.01346	0.02067
3683.72769	0.02096
3682.44192	0.02124
3681.15615	0.02135
3679.87038	0.02138
3678.58461	0.02155
3677.29884	0.02184
3676.01308	0.02203
3674.72731	0.02189
3673.44154	0.02141
3672.15577	0.02085
3670.87000	0.02054
3669.58423	0.02058
3668.29846	0.02080
3667.01269	0.02092
3665.72693	0.02081
3664.44116	0.02061
3663.15539	0.02047
3661.86962	0.02048
3660.58385	0.02067
3659.29808	0.02107
3658.01231	0.02166
3656.72654	0.02232
3655.44077	0.02288
3654.15501	0.02316
3652.86924	0.02312
3651.58347	0.02284
3650.29770	0.02256
3649.01193	0.02248
3647.72616	0.02264
3646.44039	0.02290
3645.15462	0.02311
3643.86886	0.02324
3642.58309	0.02334
3641.29732	0.02341
3640.01155	0.02344
3638.72578	0.02343
3637.44001	0.02340
3636.15424	0.02343
3634.86847	0.02364
3633.58270	0.02407
3632.29694	0.02460
3631.01117	0.02494
3629.72540	0.02493
3628.43963	0.02457
3627.15386	0.02407
3625.86809	0.02370
3624.58232	0.02358
3623.29655	0.02369
3622.01079	0.02391
3620.72502	0.02416
3619.43925	0.02444
3618.15348	0.02478
3616.86771	0.02503
3615.58194	0.02497
3614.29617	0.02449
3613.01040	0.02380
3611.72463	0.02328
3610.43887	0.02319
3609.15310	0.02346
3607.86733	0.02387
3606.58156	0.02427
3605.29579	0.02468
3604.01002	0.02517
3602.72425	0.02561
3601.43848	0.02585
3600.15272	0.02585
3598.86695	0.02581
3597.58118	0.02589
3596.29541	0.02606
3595.00964	0.02621
3593.72387	0.02634
3592.43810	0.02645
3591.15233	0.02650
3589.86656	0.02646
3588.58080	0.02643
3587.29503	0.02657
3586.00926	0.02702
3584.72349	0.02765
3583.43772	0.02812
3582.15195	0.02816
3580.86618	0.02792
3579.58041	0.02777
3578.29464	0.02801
3577.00888	0.02862
3575.72311	0.02933
3574.43734	0.02989
3573.15157	0.03023
3571.86580	0.03038
3570.58003	0.03044
3569.29426	0.03060
3568.00849	0.03096
3566.72273	0.03144
3565.43696	0.03175
3564.15119	0.03171
3562.86542	0.03140
3561.57965	0.03104
3560.29388	0.03083
3559.00811	0.03080
3557.72234	0.03086
3556.43657	0.03098
3555.15081	0.03115
3553.86504	0.03138
3552.57927	0.03161
3551.29350	0.03176
3550.00773	0.03182
3548.72196	0.03184
3547.43619	0.03195
3546.15042	0.03228
3544.86466	0.03293
3543.57889	0.03374
3542.29312	0.03434
3541.00735	0.03443
3539.72158	0.03408
3538.43581	0.03363
3537.15004	0.03340
3535.86427	0.03350
3534.57850	0.03384
3533.29274	0.03427
3532.00697	0.03469
3530.72120	0.03502
3529.43543	0.03526
3528.14966	0.03542
3526.86389	0.03556
3525.57812	0.03571
3524.29235	0.03588
3523.00659	0.03601
3521.72082	0.03604
3520.43505	0.03599
3519.14928	0.03590
3517.86351	0.03587
3516.57774	0.03595
3515.29197	0.03621
3514.00620	0.03673
3512.72043	0.03747
3511.43467	0.03827
3510.14890	0.03891
3508.86313	0.03924
3507.57736	0.03924
3506.29159	0.03899
3505.00582	0.03870
3503.72005	0.03855
3502.43428	0.03861
3501.14852	0.03879
3499.86275	0.03893
3498.57698	0.03904
3497.29121	0.03920
3496.00544	0.03954
3494.71967	0.03998
3493.43390	0.04036
3492.14813	0.04055
3490.86236	0.04056
3489.57660	0.04051
3488.29083	0.04046
3487.00506	0.04039
3485.71929	0.04030
3484.43352	0.04033
3483.14775	0.04071
3481.86198	0.04147
3480.57621	0.04235
3479.29045	0.04296
3478.00468	0.04317
3476.71891	0.04308
3475.43314	0.04291
3474.14737	0.04272
3472.86160	0.04249
3471.57583	0.04223
3470.29006	0.04204
3469.00429	0.04205
3467.71853	0.04223
3466.43276	0.04241
3465.14699	0.04247
3463.86122	0.04244
3462.57545	0.04248
3461.28968	0.04275
3460.00391	0.04326
3458.71814	0.04382
3457.43238	0.04422
3456.14661	0.04439
3454.86084	0.04446
3453.57507	0.04456
3452.28930	0.04468
3451.00353	0.04474
3449.71776	0.04476
3448.43199	0.04479
3447.14622	0.04484
3445.86046	0.04483
3444.57469	0.04485
3443.28892	0.04509
3442.00315	0.04558
3440.71738	0.04612
3439.43161	0.04642
3438.14584	0.04641
3436.86007	0.04620
3435.57431	0.04596
3434.28854	0.04582
3433.00277	0.04587
3431.71700	0.04608
3430.43123	0.04644
3429.14546	0.04696
3427.85969	0.04758
3426.57392	0.04814
3425.28815	0.04847
3424.00239	0.04850
3422.71662	0.04835
3421.43085	0.04825
3420.14508	0.04828
3418.85931	0.04834
3417.57354	0.04834
3416.28777	0.04828
3415.00200	0.04826
3413.71624	0.04836
3412.43047	0.04855
3411.14470	0.04878
3409.85893	0.04897
3408.57316	0.04905
3407.28739	0.04901
3406.00162	0.04895
3404.71585	0.04906
3403.43008	0.04945
3402.14432	0.05010
3400.85855	0.05082
3399.57278	0.05139
3398.28701	0.05171
3397.00124	0.05183
3395.71547	0.05188
3394.42970	0.05189
3393.14393	0.05180
3391.85817	0.05161
3390.57240	0.05146
3389.28663	0.05149
3388.00086	0.05180
3386.71509	0.05235
3385.42932	0.05297
3384.14355	0.05343
3382.85778	0.05353
3381.57201	0.05331
3380.28625	0.05308
3379.00048	0.05307
3377.71471	0.05325
3376.42894	0.05342
3375.14317	0.05348
3373.85740	0.05358
3372.57163	0.05388
3371.28586	0.05446
3370.00010	0.05517
3368.71433	0.05580
3367.42856	0.05619
3366.14279	0.05643
3364.85702	0.05670
3363.57125	0.05703
3362.28548	0.05721
3360.99971	0.05709
3359.71394	0.05682
3358.42818	0.05676
3357.14241	0.05706
3355.85664	0.05761
3354.57087	0.05820
3353.28510	0.05875
3351.99933	0.05924
3350.71356	0.05952
3349.42779	0.05947
3348.14202	0.05922
3346.85626	0.05913
3345.57049	0.05943
3344.28472	0.06003
3342.99895	0.06058
3341.71318	0.06086
3340.42741	0.06089
3339.14164	0.06087
3337.85587	0.06099
3336.57011	0.06133
3335.28434	0.06185
3333.99857	0.06244
3332.71280	0.06297
3331.42703	0.06330
3330.14126	0.06343
3328.85549	0.06346
3327.56972	0.06350
3326.28395	0.06363
3324.99819	0.06385
3323.71242	0.06412
3322.42665	0.06441
3321.14088	0.06469
3319.85511	0.06487
3318.56934	0.06491
3317.28357	0.06484
3315.99780	0.06478
3314.71204	0.06484
3313.42627	0.06507
3312.14050	0.06545
3310.85473	0.06597
3309.56896	0.06659
3308.28319	0.06716
3306.99742	0.06754
3305.71165	0.06768
3304.42588	0.06768
3303.14012	0.06774
3301.85435	0.06793
3300.56858	0.06817
3299.28281	0.06830
3297.99704	0.06824
3296.71127	0.06806
3295.42550	0.06791
3294.13973	0.06794
3292.85397	0.06821
3291.56820	0.06861
3290.28243	0.06892
3288.99666	0.06904
3287.71089	0.06906
3286.42512	0.06911
3285.13935	0.06920
3283.85358	0.06921
3282.56781	0.06911
3281.28205	0.06901
3279.99628	0.06906
3278.71051	0.06928
3277.42474	0.06957
3276.13897	0.06973
3274.85320	0.06965
3273.56743	0.06931
3272.28166	0.06886
3270.99590	0.06845
3269.71013	0.06817
3268.42436	0.06796
3267.13859	0.06780
3265.85282	0.06766
3264.56705	0.06758
3263.28128	0.06752
3261.99551	0.06740
3260.70974	0.06714
3259.42398	0.06677
3258.13821	0.06640
3256.85244	0.06611
3255.56667	0.06586
3254.28090	0.06564
3252.99513	0.06551
3251.70936	0.06553
3250.42359	0.06561
3249.13783	0.06557
3247.85206	0.06530
3246.56629	0.06493
3245.28052	0.06469
3243.99475	0.06471
3242.70898	0.06486
3241.42321	0.06490
3240.13744	0.06471
3238.85167	0.06434
3237.56591	0.06393
3236.28014	0.06357
3234.99437	0.06329
3233.70860	0.06305
3232.42283	0.06282
3231.13706	0.06261
3229.85129	0.06247
3228.56552	0.06240
3227.27976	0.06234
3225.99399	0.06219
3224.70822	0.06196
3223.42245	0.06176
3222.13668	0.06172
3220.85091	0.06190
3219.56514	0.06216
3218.27937	0.06230
3216.99360	0.06220
3215.70784	0.06194
3214.42207	0.06175
3213.13630	0.06173
3211.85053	0.06179
3210.56476	0.06179
3209.27899	0.06167
3207.99322	0.06140
3206.70745	0.06098
3205.42169	0.06051
3204.13592	0.06018
3202.85015	0.06021
3201.56438	0.06054
3200.27861	0.06091
3198.99284	0.06100
3197.70707	0.06073
3196.42130	0.06025
3195.13553	0.05978
3193.84977	0.05950
3192.56400	0.05946
3191.27823	0.05955
3189.99246	0.05963
3188.70669	0.05960
3187.42092	0.05947
3186.13515	0.05934
3184.84938	0.05923
3183.56362	0.05912
3182.27785	0.05897
3180.99208	0.05879
3179.70631	0.05859
3178.42054	0.05840
3177.13477	0.05818
3175.84900	0.05786
3174.56323	0.05747
3173.27746	0.05718
3171.99170	0.05721
3170.70593	0.05754
3169.42016	0.05784
3168.13439	0.05777
3166.84862	0.05729
3165.56285	0.05667
3164.27708	0.05619
3162.99131	0.05591
3161.70555	0.05578
3160.41978	0.05567
3159.13401	0.05557
3157.84824	0.05548
3156.56247	0.05541
3155.27670	0.05532
3153.99093	0.05512
3152.70516	0.05482
3151.41939	0.05454
3150.13363	0.05435
3148.84786	0.05425
3147.56209	0.05421
3146.27632	0.05421
3144.99055	0.05426
3143.70478	0.05435
3142.41901	0.05443
3141.13324	0.05443
3139.84748	0.05431
3138.56171	0.05406
3137.27594	0.05372
3135.99017	0.05332
3134.70440	0.05292
3133.41863	0.05256
3132.13286	0.05233
3130.84709	0.05225
3129.56132	0.05227
3128.27556	0.05233
3126.98979	0.05239
3125.70402	0.05240
3124.41825	0.05231
3123.13248	0.05208
3121.84671	0.05173
3120.56094	0.05129
3119.27517	0.05081
3117.98940	0.05048
3116.70364	0.05046
3115.41787	0.05077
3114.13210	0.05111
3112.84633	0.05114
3111.56056	0.05086
3110.27479	0.05061
3108.98902	0.05070
3107.70325	0.05110
3106.41749	0.05153
3105.13172	0.05177
3103.84595	0.05187
3102.56018	0.05198
3101.27441	0.05220
3099.98864	0.05248
3098.70287	0.05266
3097.41710	0.05263
3096.13133	0.05241
3094.84557	0.05220
3093.55980	0.05218
3092.27403	0.05234
3090.98826	0.05254
3089.70249	0.05263
3088.41672	0.05255
3087.13095	0.05231
3085.84518	0.05199
3084.55942	0.05169
3083.27365	0.05156
3081.98788	0.05173
3080.70211	0.05214
3079.41634	0.05260
3078.13057	0.05291
3076.84480	0.05298
3075.55903	0.05286
3074.27326	0.05273
3072.98750	0.05268
3071.70173	0.05270
3070.41596	0.05266
3069.13019	0.05253
3067.84442	0.05237
3066.55865	0.05227
3065.27288	0.05225
3063.98711	0.05225
3062.70135	0.05227
3061.41558	0.05237
3060.12981	0.05262
3058.84404	0.05288
3057.55827	0.05293
3056.27250	0.05269
3054.98673	0.05236
3053.70096	0.05221
3052.41519	0.05230
3051.12943	0.05242
3049.84366	0.05235
3048.55789	0.05202
3047.27212	0.05151
3045.98635	0.05102
3044.70058	0.05069
3043.41481	0.05060
3042.12904	0.05070
3040.84328	0.05090
3039.55751	0.05105
3038.27174	0.05106
3036.98597	0.05093
3035.70020	0.05074
3034.41443	0.05059
3033.12866	0.05044
3031.84289	0.05017
3030.55712	0.04974
3029.27136	0.04927
3027.98559	0.04894
3026.69982	0.04879
3025.41405	0.04872
3024.12828	0.04859
3022.84251	0.04841
3021.55674	0.04828
3020.27097	0.04834
3018.98521	0.04859
3017.69944	0.04893
3016.41367	0.04916
3015.12790	0.04914
3013.84213	0.04883
3012.55636	0.04839
3011.27059	0.04800
3009.98482	0.04782
3008.69905	0.04781
3007.41329	0.04780
3006.12752	0.04768
3004.84175	0.04749
3003.55598	0.04739
3002.27021	0.04743
3000.98444	0.04751
2999.69867	0.04749
2998.41290	0.04748
2997.12714	0.04749
2995.84137	0.04765
2994.55560	0.04793
2993.26983	0.04817
2991.98406	0.04823
2990.69829	0.04808
2989.41252	0.04778
2988.12675	0.04745
2986.84098	0.04725
2985.55522	0.04730
2984.26945	0.04762
2982.98368	0.04809
2981.69791	0.04866
2980.41214	0.04922
2979.12637	0.04964
2977.84060	0.04978
2976.55483	0.04973
2975.26907	0.04970
2973.98330	0.04985
2972.69753	0.05012
2971.41176	0.05042
2970.12599	0.05072
2968.84022	0.05105
2967.55445	0.05139
2966.26868	0.05176
2964.98291	0.05221
2963.69715	0.05268
2962.41138	0.05304
2961.12561	0.05319
2959.83984	0.05315
2958.55407	0.05306
2957.26830	0.05303
2955.98253	0.05301
2954.69676	0.05292
2953.41100	0.05273
2952.12523	0.05254
2950.83946	0.05249
2949.55369	0.05264
2948.26792	0.05294
2946.98215	0.05324
2945.69638	0.05339
2944.41061	0.05334
2943.12484	0.05316
2941.83908	0.05295
2940.55331	0.05278
2939.26754	0.05267
2937.98177	0.05270
2936.69600	0.05293
2935.41023	0.05329
2934.12446	0.05363
2932.83869	0.05384
2931.55293	0.05399
2930.26716	0.05419
2928.98139	0.05449
2927.69562	0.05478
2926.40985	0.05494
2925.12408	0.05490
2923.83831	0.05471
2922.55254	0.05445
2921.26677	0.05418
2919.98101	0.05399
2918.69524	0.05391
2917.40947	0.05393
2916.12370	0.05401
2914.83793	0.05401
2913.55216	0.05376
2912.26639	0.05315
2910.98062	0.05230
2909.69486	0.05148
2908.40909	0.05090
2907.12332	0.05054
2905.83755	0.05030
2904.55178	0.05015
2903.26601	0.05009
2901.98024	0.05008
2900.69447	0.05008
2899.40870	0.05011
2898.12294	0.05022
2896.83717	0.05031
2895.55140	0.05023
2894.26563	0.04993
2892.97986	0.04949
2891.69409	0.04906
2890.40832	0.04873
2889.12255	0.04855
2887.83678	0.04855
2886.55102	0.04874
2885.26525	0.04900
2883.97948	0.04915
2882.69371	0.04903
2881.40794	0.04870
2880.12217	0.04843
2878.83640	0.04843
2877.55063	0.04863
2876.26487	0.04883
2874.97910	0.04894
2873.69333	0.04904
2872.40756	0.04924
2871.12179	0.04945
2869.83602	0.04950
2868.55025	0.04928
2867.26448	0.04888
2865.97871	0.04847
2864.69295	0.04823
2863.40718	0.04821
2862.12141	0.04828
2860.83564	0.04822
2859.54987	0.04791
2858.26410	0.04749
2856.97833	0.04722
2855.69256	0.04726
2854.40680	0.04754
2853.12103	0.04783
2851.83526	0.04792
2850.54949	0.04779
2849.26372	0.04752
2847.97795	0.04722
2846.69218	0.04690
2845.40641	0.04654
2844.12064	0.04616
2842.83488	0.04580
2841.54911	0.04546
2840.26334	0.04514
2838.97757	0.04485
2837.69180	0.04462
2836.40603	0.04444
2835.12026	0.04430
2833.83449	0.04417
2832.54873	0.04401
2831.26296	0.04385
2829.97719	0.04377
2828.69142	0.04376
2827.40565	0.04375
2826.11988	0.04364
2824.83411	0.04349
2823.54834	0.04337
2822.26257	0.04331
2820.97681	0.04328
2819.69104	0.04326
2818.40527	0.04321
2817.11950	0.04309
2815.83373	0.04289
2814.54796	0.04264
2813.26219	0.04246
2811.97642	0.04245
2810.69066	0.04261
2809.40489	0.04286
2808.11912	0.04306
2806.83335	0.04311
2805.54758	0.04299
2804.26181	0.04274
2802.97604	0.04250
2801.69027	0.04234
2800.40450	0.04225
2799.11874	0.04213
2797.83297	0.04194
2796.54720	0.04172
2795.26143	0.04154
2793.97566	0.04143
2792.68989	0.04136
2791.40412	0.04134
2790.11835	0.04136
2788.83259	0.04143
2787.54682	0.04156
2786.26105	0.04173
2784.97528	0.04190
2783.68951	0.04199
2782.40374	0.04197
2781.11797	0.04186
2779.83220	0.04169
2778.54643	0.04152
2777.26067	0.04138
2775.97490	0.04124
2774.68913	0.04110
2773.40336	0.04097
2772.11759	0.04091
2770.83182	0.04090
2769.54605	0.04087
2768.26028	0.04078
2766.97452	0.04069
2765.68875	0.04070
2764.40298	0.04077
2763.11721	0.04075
2761.83144	0.04050
2760.54567	0.04005
2759.25990	0.03960
2757.97413	0.03932
2756.68836	0.03924
2755.40260	0.03927
2754.11683	0.03934
2752.83106	0.03950
2751.54529	0.03971
2750.25952	0.03986
2748.97375	0.03984
2747.68798	0.03970
2746.40221	0.03957
2745.11645	0.03953
2743.83068	0.03949
2742.54491	0.03938
2741.25914	0.03918
2739.97337	0.03893
2738.68760	0.03875
2737.40183	0.03867
2736.11606	0.03871
2734.83029	0.03879
2733.54453	0.03884
2732.25876	0.03882
2730.97299	0.03878
2729.68722	0.03874
2728.40145	0.03866
2727.11568	0.03850
2725.82991	0.03831
2724.54414	0.03818
2723.25838	0.03820
2721.97261	0.03836
2720.68684	0.03855
2719.40107	0.03865
2718.11530	0.03858
2716.82953	0.03837
2715.54376	0.03814
2714.25799	0.03801
2712.97222	0.03796
2711.68646	0.03793
2710.40069	0.03785
2709.11492	0.03770
2707.82915	0.03753
2706.54338	0.03741
2705.25761	0.03737
2703.97184	0.03738
2702.68607	0.03741
2701.40031	0.03746
2700.11454	0.03753
2698.82877	0.03760
2697.54300	0.03757
2696.25723	0.03739
2694.97146	0.03713
2693.68569	0.03691
2692.39992	0.03680
2691.11415	0.03677
2689.82839	0.03674
2688.54262	0.03666
2687.25685	0.03655
2685.97108	0.03642
2684.68531	0.03630
2683.39954	0.03629
2682.11377	0.03639
2680.82800	0.03651
2679.54224	0.03652
2678.25647	0.03640
2676.97070	0.03622
2675.68493	0.03608
2674.39916	0.03597
2673.11339	0.03588
2671.82762	0.03582
2670.54185	0.03584
2669.25608	0.03599
2667.97032	0.03624
2666.68455	0.03644
2665.39878	0.03646
2664.11301	0.03630
2662.82724	0.03609
2661.54147	0.03593
2660.25570	0.03588
2658.96993	0.03595
2657.68417	0.03612
2656.39840	0.03632
2655.11263	0.03640
2653.82686	0.03627
2652.54109	0.03595
2651.25532	0.03559
2649.96955	0.03528
2648.68378	0.03505
2647.39801	0.03492
2646.11225	0.03491
2644.82648	0.03494
2643.54071	0.03489
2642.25494	0.03469
2640.96917	0.03446
2639.68340	0.03431
2638.39763	0.03428
2637.11186	0.03433
2635.82609	0.03437
2634.54033	0.03430
2633.25456	0.03403
2631.96879	0.03360
2630.68302	0.03319
2629.39725	0.03297
2628.11148	0.03296
2626.82571	0.03309
2625.53994	0.03325
2624.25418	0.03333
2622.96841	0.03330
2621.68264	0.03319
2620.39687	0.03309
2619.11110	0.03304
2617.82533	0.03306
2616.53956	0.03313
2615.25379	0.03314
2613.96802	0.03288
2612.68226	0.03225
2611.39649	0.03148
2610.11072	0.03095
2608.82495	0.03081
2607.53918	0.03086
2606.25341	0.03090
2604.96764	0.03098
2603.68187	0.03121
2602.39611	0.03153
2601.11034	0.03169
2599.82457	0.03159
2598.53880	0.03129
2597.25303	0.03093
2595.96726	0.03062
2594.68149	0.03041
2593.39572	0.03031
2592.10995	0.03024
2590.82419	0.03014
2589.53842	0.03001
2588.25265	0.02995
2586.96688	0.03007
2585.68111	0.03031
2584.39534	0.03046
2583.10957	0.03039
2581.82380	0.03023
2580.53804	0.03023
2579.25227	0.03050
2577.96650	0.03088
2576.68073	0.03115
2575.39496	0.03118
2574.10919	0.03096
2572.82342	0.03049
2571.53765	0.02988
2570.25188	0.02933
2568.96612	0.02911
2567.68035	0.02927
2566.39458	0.02960
2565.10881	0.02983
2563.82304	0.02991
2562.53727	0.02994
2561.25150	0.02997
2559.96573	0.02996
2558.67997	0.02987
2557.39420	0.02973
2556.10843	0.02956
2554.82266	0.02931
2553.53689	0.02895
2552.25112	0.02853
2550.96535	0.02821
2549.67958	0.02811
2548.39381	0.02821
2547.10805	0.02837
2545.82228	0.02839
2544.53651	0.02828
2543.25074	0.02818
2541.96497	0.02817
2540.67920	0.02813
2539.39343	0.02798
2538.10766	0.02783
2536.82190	0.02787
2535.53613	0.02807
2534.25036	0.02824
2532.96459	0.02819
2531.67882	0.02790
2530.39305	0.02752
2529.10728	0.02720
2527.82151	0.02705
2526.53574	0.02707
2525.24998	0.02717
2523.96421	0.02721
2522.67844	0.02713
2521.39267	0.02700
2520.10690	0.02700
2518.82113	0.02734
2517.53536	0.02804
2516.24959	0.02885
2514.96383	0.02931
2513.67806	0.02915
2512.39229	0.02850
2511.10652	0.02781
2509.82075	0.02743
2508.53498	0.02736
2507.24921	0.02736
2505.96344	0.02724
2504.67767	0.02706
2503.39191	0.02693
2502.10614	0.02692
2500.82037	0.02697
2499.53460	0.02699
2498.24883	0.02694
2496.96306	0.02692
2495.67729	0.02702
2494.39152	0.02725
2493.10576	0.02743
2491.81999	0.02745
2490.53422	0.02726
2489.24845	0.02684
2487.96268	0.02628
2486.67691	0.02571
2485.39114	0.02539
2484.10537	0.02539
2482.81960	0.02561
2481.53384	0.02584
2480.24807	0.02592
2478.96230	0.02586
2477.67653	0.02580
2476.39076	0.02588
2475.10499	0.02617
2473.81922	0.02658
2472.53345	0.02690
2471.24769	0.02693
2469.96192	0.02671
2468.67615	0.02649
2467.39038	0.02651
2466.10461	0.02671
2464.81884	0.02683
2463.53307	0.02678
2462.24730	0.02662
2460.96153	0.02652
2459.67577	0.02656
2458.39000	0.02677
2457.10423	0.02706
2455.81846	0.02728
2454.53269	0.02730
2453.24692	0.02713
2451.96115	0.02690
2450.67538	0.02675
2449.38962	0.02673
2448.10385	0.02678
2446.81808	0.02677
2445.53231	0.02657
2444.24654	0.02617
2442.96077	0.02582
2441.67500	0.02585
2440.38923	0.02630
2439.10346	0.02683
2437.81770	0.02705
2436.53193	0.02692
2435.24616	0.02668
2433.96039	0.02650
2432.67462	0.02637
2431.38885	0.02625
2430.10308	0.02619
2428.81731	0.02620
2427.53155	0.02624
2426.24578	0.02624
2424.96001	0.02621
2423.67424	0.02622
2422.38847	0.02634
2421.10270	0.02650
2419.81693	0.02657
2418.53116	0.02650
2417.24539	0.02634
2415.95963	0.02620
2414.67386	0.02606
2413.38809	0.02588
2412.10232	0.02564
2410.81655	0.02541
2409.53078	0.02528
2408.24501	0.02526
2406.95924	0.02532
2405.67347	0.02543
2404.38771	0.02562
2403.10194	0.02585
2401.81617	0.02600
2400.53040	0.02596
2399.24463	0.02576
2397.95886	0.02553
2396.67309	0.02533
2395.38732	0.02517
2394.10156	0.02505
2392.81579	0.02500
2391.53002	0.02508
2390.24425	0.02526
2388.95848	0.02550
2387.67271	0.02569
2386.38694	0.02574
2385.10117	0.02568
2383.81540	0.02560
2382.52964	0.02564
2381.24387	0.02578
2379.95810	0.02602
2378.67233	0.02612
2377.38656	0.02615
2376.10079	0.02634
2374.81502	0.02660
2373.52925	0.02644
2372.24349	0.02605
2370.95772	0.02595
2369.67195	0.02613
2368.38618	0.02648
2367.10041	0.02682
2365.81464	0.02708
2364.52887	0.02718
2363.24310	0.02712
2361.95733	0.02700
2360.67157	0.02691
2359.38580	0.02696
2358.10003	0.02695
2356.81426	0.02684
2355.52849	0.02684
2354.24272	0.02710
2352.95695	0.02742
2351.67118	0.02721
2350.38542	0.02683
2349.09965	0.02679
2347.81388	0.02687
2346.52811	0.02686
2345.24234	0.02707
2343.95657	0.02758
2342.67080	0.02844
2341.38503	0.02819
2340.09926	0.02729
2338.81350	0.02715
2337.52773	0.02758
2336.24196	0.02728
2334.95619	0.02694
2333.67042	0.02715
2332.38465	0.02772
2331.09888	0.02696
2329.81311	0.02672
2328.52735	0.02689
2327.24158	0.02659
2325.95581	0.02648
2324.67004	0.02651
2323.38427	0.02674
2322.09850	0.02643
2320.81273	0.02616
2319.52696	0.02615
2318.24119	0.02631
2316.95543	0.02632
2315.66966	0.02611
2314.38389	0.02589
2313.09812	0.02559
2311.81235	0.02523
2310.52658	0.02497
2309.24081	0.02475
2307.95504	0.02451
2306.66928	0.02433
2305.38351	0.02423
2304.09774	0.02423
2302.81197	0.02434
2301.52620	0.02451
2300.24043	0.02470
2298.95466	0.02479
2297.66889	0.02474
2296.38312	0.02454
2295.09736	0.02416
2293.81159	0.02362
2292.52582	0.02305
2291.24005	0.02268
2289.95428	0.02256
2288.66851	0.02249
2287.38274	0.02232
2286.09697	0.02209
2284.81121	0.02198
2283.52544	0.02207
2282.23967	0.02229
2280.95390	0.02249
2279.66813	0.02254
2278.38236	0.02234
2277.09659	0.02192
2275.81082	0.02149
2274.52505	0.02130
2273.23929	0.02136
2271.95352	0.02144
2270.66775	0.02131
2269.38198	0.02088
2268.09621	0.02029
2266.81044	0.01977
2265.52467	0.01955
2264.23890	0.01964
2262.95314	0.01984
2261.66737	0.01994
2260.38160	0.01993
2259.09583	0.01989
2257.81006	0.01982
2256.52429	0.01969
2255.23852	0.01961
2253.95275	0.01973
2252.66698	0.02005
2251.38122	0.02036
2250.09545	0.02036
2248.80968	0.01991
2247.52391	0.01906
2246.23814	0.01822
2244.95237	0.01770
2243.66660	0.01750
2242.38083	0.01749
2241.09507	0.01763
2239.80930	0.01798
2238.52353	0.01850
2237.23776	0.01894
2235.95199	0.01917
2234.66622	0.01927
2233.38045	0.01935
2232.09468	0.01924
2230.80891	0.01870
2229.52315	0.01781
2228.23738	0.01689
2226.95161	0.01614
2225.66584	0.01558
2224.38007	0.01519
2223.09430	0.01501
2221.80853	0.01496
2220.52276	0.01487
2219.23700	0.01467
2217.95123	0.01454
2216.66546	0.01464
2215.37969	0.01483
2214.09392	0.01485
2212.80815	0.01470
2211.52238	0.01471
2210.23661	0.01515
2208.95084	0.01589
2207.66508	0.01658
2206.37931	0.01690
2205.09354	0.01669
2203.80777	0.01607
2202.52200	0.01543
2201.23623	0.01503
2199.95046	0.01481
2198.66469	0.01461
2197.37893	0.01454
2196.09316	0.01455
2194.80739	0.01413
2193.52162	0.01282
2192.23585	0.01106
2190.95008	0.01004
2189.66431	0.01050
2188.37854	0.01208
2187.09277	0.01388
2185.80701	0.01530
2184.52124	0.01619
2183.23547	0.01651
2181.94970	0.01635
2180.66393	0.01604
2179.37816	0.01593
2178.09239	0.01595
2176.80662	0.01573
2175.52085	0.01520
2174.23509	0.01470
2172.94932	0.01444
2171.66355	0.01415
2170.37778	0.01346
2169.09201	0.01226
2167.80624	0.01083
2166.52047	0.00978
2165.23470	0.00983
2163.94894	0.01113
2162.66317	0.01269
2161.37740	0.01310
2160.09163	0.01198
2158.80586	0.01038
2157.52009	0.00952
2156.23432	0.00960
2154.94855	0.01016
2153.66278	0.01096
2152.37702	0.01192
2151.09125	0.01281
2149.80548	0.01323
2148.51971	0.01303
2147.23394	0.01248
2145.94817	0.01199
2144.66240	0.01174
2143.37663	0.01169
2142.09087	0.01187
2140.80510	0.01237
2139.51933	0.01312
2138.23356	0.01378
2136.94779	0.01396
2135.66202	0.01357
2134.37625	0.01303
2133.09048	0.01294
2131.80471	0.01362
2130.51895	0.01482
2129.23318	0.01593
2127.94741	0.01653
2126.66164	0.01664
2125.37587	0.01665
2124.09010	0.01689
2122.80433	0.01732
2121.51856	0.01764
2120.23280	0.01769
2118.94703	0.01757
2117.66126	0.01745
2116.37549	0.01739
2115.08972	0.01730
2113.80395	0.01709
2112.51818	0.01668
2111.23241	0.01605
2109.94664	0.01538
2108.66088	0.01495
2107.37511	0.01487
2106.08934	0.01502
2104.80357	0.01517
2103.51780	0.01527
2102.23203	0.01541
2100.94626	0.01592
2099.66049	0.02086
2098.37473	0.02366
2097.08896	0.02403
2095.80319	0.02326
2094.51742	0.02175
2093.23165	0.01998
2091.94588	0.01850
2090.66011	0.01758
2089.37434	0.01708
2088.08857	0.01674
2086.80281	0.01651
2085.51704	0.01650
2084.23127	0.01680
2082.94550	0.01729
2081.65973	0.01781
2080.37396	0.01832
2079.08819	0.01898
2077.80242	0.01984
2076.51666	0.02070
2075.23089	0.02123
2073.94512	0.02129
2072.65935	0.02107
2071.37358	0.02079
2070.08781	0.02048
2068.80204	0.01996
2067.51627	0.01923
2066.23050	0.01851
2064.94474	0.01796
2063.65897	0.01750
2062.37320	0.01687
2061.08743	0.01598
2059.80166	0.01493
2058.51589	0.01394
2057.23012	0.01308
2055.94435	0.01230
2054.65859	0.01164
2053.37282	0.01150
2052.08705	0.01250
2050.80128	0.01470
2049.51551	0.01721
2048.22974	0.01881
2046.94397	0.01902
2045.65820	0.01835
2044.37243	0.01762
2043.08667	0.01719
2041.80090	0.01702
2040.51513	0.01707
2039.22936	0.01750
2037.94359	0.01839
2036.65782	0.01941
2035.37205	0.02011
2034.08628	0.02027
2032.80052	0.02002
2031.51475	0.01950
2030.22898	0.01864
2028.94321	0.01743
2027.65744	0.01603
2026.37167	0.01466
2025.08590	0.01353
2023.80013	0.01292
2022.51436	0.01312
2021.22860	0.01409
2019.94283	0.01527
2018.65706	0.01595
2017.37129	0.01580
2016.08552	0.01512
2014.79975	0.01458
2013.51398	0.01473
2012.22821	0.01561
2010.94245	0.01682
2009.65668	0.01793
2008.37091	0.01877
2007.08514	0.01923
2005.79937	0.01906
2004.51360	0.01809
2003.22783	0.01637
2001.94206	0.01430
2000.65629	0.01238
1999.37053	0.01108
1998.08476	0.01060
1996.79899	0.01079
1995.51322	0.01125
1994.22745	0.01166
1992.94168	0.01196
1991.65591	0.01225
1990.37014	0.01251
1989.08438	0.01262
1987.79861	0.01258
1986.51284	0.01255
1985.22707	0.01277
1983.94130	0.01350
1982.65553	0.01502
1981.36976	0.01756
1980.08399	0.02094
1978.79822	0.02424
1977.51246	0.02614
1976.22669	0.02588
1974.94092	0.02406
1973.65515	0.02216
1972.36938	0.02118
1971.08361	0.02085
1969.79784	0.02028
1968.51207	0.01906
1967.22631	0.01763
1965.94054	0.01671
1964.65477	0.01668
1963.36900	0.01743
1962.08323	0.01842
1960.79746	0.01891
1959.51169	0.01832
1958.22592	0.01666
1956.94015	0.01468
1955.65439	0.01342
1954.36862	0.01347
1953.08285	0.01463
1951.79708	0.01612
1950.51131	0.01720
1949.22554	0.01759
1947.93977	0.01758
1946.65400	0.01755
1945.36823	0.01771
1944.08247	0.01811
1942.79670	0.01871
1941.51093	0.01928
1940.22516	0.01946
1938.93939	0.01910
1937.65362	0.01854
1936.36785	0.01832
1935.08208	0.01869
1933.79632	0.01934
1932.51055	0.01975
1931.22478	0.01964
1929.93901	0.01915
1928.65324	0.01860
1927.36747	0.01818
1926.08170	0.01788
1924.79593	0.01762
1923.51016	0.01741
1922.22440	0.01732
1920.93863	0.01741
1919.65286	0.01767
1918.36709	0.01808
1917.08132	0.01859
1915.79555	0.01907
1914.50978	0.01930
1913.22401	0.01921
1911.93825	0.01896
1910.65248	0.01880
1909.36671	0.01881
1908.08094	0.01890
1906.79517	0.01891
1905.50940	0.01880
1904.22363	0.01865
1902.93786	0.01853
1901.65209	0.01852
1900.36633	0.01862
1899.08056	0.01877
1897.79479	0.01889
1896.50902	0.01897
1895.22325	0.01904
1893.93748	0.01904
1892.65171	0.01887
1891.36594	0.01852
1890.08018	0.01811
1888.79441	0.01784
1887.50864	0.01778
1886.22287	0.01790
1884.93710	0.01815
1883.65133	0.01842
1882.36556	0.01864
1881.07979	0.01870
1879.79402	0.01860
1878.50826	0.01846
1877.22249	0.01837
1875.93672	0.01833
1874.65095	0.01829
1873.36518	0.01824
1872.07941	0.01821
1870.79364	0.01819
1869.50787	0.01813
1868.22211	0.01802
1866.93634	0.01793
1865.65057	0.01792
1864.36480	0.01795
1863.07903	0.01800
1861.79326	0.01802
1860.50749	0.01801
1859.22172	0.01797
1857.93595	0.01792
1856.65019	0.01790
1855.36442	0.01785
1854.07865	0.01774
1852.79288	0.01753
1851.50711	0.01729
1850.22134	0.01708
1848.93557	0.01694
1847.64980	0.01687
1846.36404	0.01687
1845.07827	0.01693
1843.79250	0.01696
1842.50673	0.01691
1841.22096	0.01679
1839.93519	0.01670
1838.64942	0.01667
1837.36365	0.01663
1836.07788	0.01654
1834.79212	0.01640
1833.50635	0.01627
1832.22058	0.01622
1830.93481	0.01630
1829.64904	0.01651
1828.36327	0.01683
1827.07750	0.01720
1825.79173	0.01763
1824.50597	0.01817
1823.22020	0.01884
1821.93443	0.01953
1820.64866	0.01997
1819.36289	0.01990
1818.07712	0.01919
1816.79135	0.01799
1815.50558	0.01668
1814.21981	0.01560
1812.93405	0.01492
1811.64828	0.01458
1810.36251	0.01447
1809.07674	0.01450
1807.79097	0.01461
1806.50520	0.01477
1805.21943	0.01494
1803.93366	0.01511
1802.64790	0.01530
1801.36213	0.01550
1800.07636	0.01568
1798.79059	0.01582
1797.50482	0.01591
1796.21905	0.01595
1794.93328	0.01596
1793.64751	0.01598
1792.36174	0.01602
1791.07598	0.01610
1789.79021	0.01622
1788.50444	0.01637
1787.21867	0.01647
1785.93290	0.01645
1784.64713	0.01632
1783.36136	0.01620
1782.07559	0.01618
1780.78983	0.01625
1779.50406	0.01630
1778.21829	0.01622
1776.93252	0.01600
1775.64675	0.01572
1774.36098	0.01544
1773.07521	0.01522
1771.78944	0.01508
1770.50367	0.01498
1769.21791	0.01489
1767.93214	0.01476
1766.64637	0.01461
1765.36060	0.01449
1764.07483	0.01444
1762.78906	0.01445
1761.50329	0.01448
1760.21752	0.01449
1758.93176	0.01450
1757.64599	0.01453
1756.36022	0.01460
1755.07445	0.01469
1753.78868	0.01476
1752.50291	0.01483
1751.21714	0.01489
1749.93137	0.01493
1748.64560	0.01496
1747.35984	0.01501
1746.07407	0.01513
1744.78830	0.01533
1743.50253	0.01555
1742.21676	0.01576
1740.93099	0.01594
1739.64522	0.01614
1738.35945	0.01632
1737.07369	0.01649
1735.78792	0.01665
1734.50215	0.01681
1733.21638	0.01699
1731.93061	0.01711
1730.64484	0.01711
1729.35907	0.01702
1728.07330	0.01693
1726.78753	0.01696
1725.50177	0.01716
1724.21600	0.01746
1722.93023	0.01778
1721.64446	0.01801
1720.35869	0.01817
1719.07292	0.01829
1717.78715	0.01844
1716.50138	0.01864
1715.21561	0.01888
1713.92985	0.01913
1712.64408	0.01941
1711.35831	0.01976
1710.07254	0.02021
1708.78677	0.02075
1707.50100	0.02133
1706.21523	0.02192
1704.92946	0.02254
1703.64370	0.02324
1702.35793	0.02408
1701.07216	0.02506
1699.78639	0.02612
1698.50062	0.02720
1697.21485	0.02828
1695.92908	0.02942
1694.64331	0.03061
1693.35754	0.03181
1692.07178	0.03297
1690.78601	0.03410
1689.50024	0.03519
1688.21447	0.03626
1686.92870	0.03734
1685.64293	0.03848
1684.35716	0.03971
1683.07139	0.04099
1681.78563	0.04229
1680.49986	0.04362
1679.21409	0.04502
1677.92832	0.04651
1676.64255	0.04805
1675.35678	0.04961
1674.07101	0.05115
1672.78524	0.05269
1671.49947	0.05421
1670.21371	0.05569
1668.92794	0.05713
1667.64217	0.05857
1666.35640	0.06006
1665.07063	0.06157
1663.78486	0.06307
1662.49909	0.06449
1661.21332	0.06580
1659.92756	0.06700
1658.64179	0.06812
1657.35602	0.06919
1656.07025	0.07019
1654.78448	0.07113
1653.49871	0.07199
1652.21294	0.07275
1650.92717	0.07340
1649.64140	0.07401
1648.35564	0.07462
1647.06987	0.07525
1645.78410	0.07584
1644.49833	0.07632
1643.21256	0.07668
1641.92679	0.07696
1640.64102	0.07717
1639.35525	0.07735
1638.06949	0.07752
1636.78372	0.07770
1635.49795	0.07785
1634.21218	0.07794
1632.92641	0.07791
1631.64064	0.07776
1630.35487	0.07749
1629.06910	0.07707
1627.78333	0.07651
1626.49757	0.07581
1625.21180	0.07501
1623.92603	0.07408
1622.64026	0.07300
1621.35449	0.07174
1620.06872	0.07037
1618.78295	0.06895
1617.49718	0.06750
1616.21142	0.06607
1614.92565	0.06467
1613.63988	0.06328
1612.35411	0.06189
1611.06834	0.06046
1609.78257	0.05902
1608.49680	0.05759
1607.21103	0.05623
1605.92526	0.05495
1604.63950	0.05373
1603.35373	0.05258
1602.06796	0.05149
1600.78219	0.05047
1599.49642	0.04952
1598.21065	0.04863
1596.92488	0.04781
1595.63911	0.04707
1594.35335	0.04642
1593.06758	0.04585
1591.78181	0.04534
1590.49604	0.04486
1589.21027	0.04442
1587.92450	0.04405
1586.63873	0.04377
1585.35296	0.04356
1584.06719	0.04341
1582.78143	0.04328
1581.49566	0.04319
1580.20989	0.04317
1578.92412	0.04325
1577.63835	0.04342
1576.35258	0.04364
1575.06681	0.04394
1573.78104	0.04433
1572.49528	0.04485
1571.20951	0.04546
1569.92374	0.04611
1568.63797	0.04675
1567.35220	0.04739
1566.06643	0.04807
1564.78066	0.04881
1563.49489	0.04961
1562.20912	0.05044
1560.92336	0.05130
1559.63759	0.05221
1558.35182	0.05315
1557.06605	0.05409
1555.78028	0.05501
1554.49451	0.05590
1553.20874	0.05675
1551.92297	0.05759
1550.63721	0.05841
1549.35144	0.05921
1548.06567	0.05994
1546.77990	0.06060
1545.49413	0.06117
1544.20836	0.06166
1542.92259	0.06208
1541.63682	0.06246
1540.35105	0.06279
1539.06529	0.06309
1537.77952	0.06337
1536.49375	0.06361
1535.20798	0.06382
1533.92221	0.06398
1532.63644	0.06410
1531.35067	0.06419
1530.06490	0.06425
1528.77914	0.06429
1527.49337	0.06427
1526.20760	0.06422
1524.92183	0.06416
1523.63606	0.06411
1522.35029	0.06407
1521.06452	0.06399
1519.77875	0.06383
1518.49298	0.06360
1517.20722	0.06333
1515.92145	0.06305
1514.63568	0.06272
1513.34991	0.06231
1512.06414	0.06179
1510.77837	0.06117
1509.49260	0.06048
1508.20683	0.05972
1506.92107	0.05891
1505.63530	0.05807
1504.34953	0.05720
1503.06376	0.05630
1501.77799	0.05536
1500.49222	0.05439
1499.20645	0.05341
1497.92068	0.05243
1496.63491	0.05145
1495.34915	0.05045
1494.06338	0.04946
1492.77761	0.04849
1491.49184	0.04758
1490.20607	0.04673
1488.92030	0.04590
1487.63453	0.04507
1486.34876	0.04423
1485.06299	0.04342
1483.77723	0.04269
1482.49146	0.04207
1481.20569	0.04161
1479.91992	0.04130
1478.63415	0.04112
1477.34838	0.04103
1476.06261	0.04100
1474.77684	0.04105
1473.49108	0.04120
1472.20531	0.04142
1470.91954	0.04168
1469.63377	0.04196
1468.34800	0.04228
1467.06223	0.04264
1465.77646	0.04307
1464.49069	0.04352
1463.20492	0.04396
1461.91916	0.04439
1460.63339	0.04484
1459.34762	0.04534
1458.06185	0.04588
1456.77608	0.04643
1455.49031	0.04694
1454.20454	0.04737
1452.91877	0.04769
1451.63301	0.04788
1450.34724	0.04797
1449.06147	0.04799
1447.77570	0.04795
1446.48993	0.04783
1445.20416	0.04762
1443.91839	0.04735
1442.63262	0.04708
1441.34685	0.04681
1440.06109	0.04655
1438.77532	0.04626
1437.48955	0.04592
1436.20378	0.04552
1434.91801	0.04507
1433.63224	0.04461
1432.34647	0.04416
1431.06070	0.04374
1429.77494	0.04337
1428.48917	0.04304
1427.20340	0.04276
1425.91763	0.04253
1424.63186	0.04234
1423.34609	0.04220
1422.06032	0.04211
1420.77455	0.04206
1419.48878	0.04205
1418.20302	0.04204
1416.91725	0.04206
1415.63148	0.04211
1414.34571	0.04218
1413.05994	0.04222
1411.77417	0.04220
1410.48840	0.04214
1409.20263	0.04209
1407.91687	0.04207
1406.63110	0.04207
1405.34533	0.04209
1404.05956	0.04212
1402.77379	0.04216
1401.48802	0.04217
1400.20225	0.04214
1398.91648	0.04206
1397.63071	0.04196
1396.34495	0.04187
1395.05918	0.04181
1393.77341	0.04178
1392.48764	0.04178
1391.20187	0.04181
1389.91610	0.04183
1388.63033	0.04183
1387.34456	0.04182
1386.05880	0.04180
1384.77303	0.04176
1383.48726	0.04169
1382.20149	0.04158
1380.91572	0.04145
1379.62995	0.04129
1378.34418	0.04110
1377.05841	0.04087
1375.77264	0.04062
1374.48688	0.04034
1373.20111	0.04005
1371.91534	0.03978
1370.62957	0.03952
1369.34380	0.03925
1368.05803	0.03898
1366.77226	0.03868
1365.48649	0.03839
1364.20073	0.03810
1362.91496	0.03784
1361.62919	0.03760
1360.34342	0.03736
1359.05765	0.03711
1357.77188	0.03685
1356.48611	0.03661
1355.20034	0.03641
1353.91457	0.03628
1352.62881	0.03624
1351.34304	0.03626
1350.05727	0.03631
1348.77150	0.03634
1347.48573	0.03635
1346.19996	0.03636
1344.91419	0.03641
1343.62842	0.03652
1342.34266	0.03668
1341.05689	0.03687
1339.77112	0.03707
1338.48535	0.03724
1337.19958	0.03734
1335.91381	0.03738
1334.62804	0.03736
1333.34227	0.03731
1332.05650	0.03721
1330.77074	0.03707
1329.48497	0.03692
1328.19920	0.03676
1326.91343	0.03662
1325.62766	0.03649
1324.34189	0.03635
1323.05612	0.03620
1321.77035	0.03605
1320.48459	0.03595
1319.19882	0.03592
1317.91305	0.03593
1316.62728	0.03593
1315.34151	0.03589
1314.05574	0.03580
1312.76997	0.03571
1311.48420	0.03563
1310.19843	0.03558
1308.91267	0.03554
1307.62690	0.03551
1306.34113	0.03546
1305.05536	0.03539
1303.76959	0.03529
1302.48382	0.03516
1301.19805	0.03501
1299.91228	0.03487
1298.62652	0.03478
1297.34075	0.03475
1296.05498	0.03479
1294.76921	0.03489
1293.48344	0.03499
1292.19767	0.03509
1290.91190	0.03517
1289.62613	0.03524
1288.34036	0.03530
1287.05460	0.03537
1285.76883	0.03545
1284.48306	0.03554
1283.19729	0.03562
1281.91152	0.03570
1280.62575	0.03579
1279.33998	0.03590
1278.05421	0.03600
1276.76845	0.03609
1275.48268	0.03613
1274.19691	0.03616
1272.91114	0.03623
1271.62537	0.03633
1270.33960	0.03646
1269.05383	0.03659
1267.76806	0.03671
1266.48229	0.03686
1265.19653	0.03707
1263.91076	0.03733
1262.62499	0.03759
1261.33922	0.03779
1260.05345	0.03792
1258.76768	0.03801
1257.48191	0.03811
1256.19614	0.03826
1254.91037	0.03847
1253.62461	0.03872
1252.33884	0.03897
1251.05307	0.03924
1249.76730	0.03954
1248.48153	0.03988
1247.19576	0.04023
1245.90999	0.04059
1244.62422	0.04093
1243.33846	0.04127
1242.05269	0.04162
1240.76692	0.04196
1239.48115	0.04229
1238.19538	0.04260
1236.90961	0.04289
1235.62384	0.04313
1234.33807	0.04330
1233.05230	0.04339
1231.76654	0.04345
1230.48077	0.04348
1229.19500	0.04346
1227.90923	0.04335
1226.62346	0.04315
1225.33769	0.04285
1224.05192	0.04251
1222.76615	0.04217
1221.48039	0.04186
1220.19462	0.04159
1218.90885	0.04134
1217.62308	0.04111
1216.33731	0.04087
1215.05154	0.04066
1213.76577	0.04051
1212.48000	0.04044
1211.19423	0.04047
1209.90847	0.04055
1208.62270	0.04063
1207.33693	0.04071
1206.05116	0.04077
1204.76539	0.04083
1203.47962	0.04091
1202.19385	0.04096
1200.90808	0.04070
1199.62232	0.04000
1198.33655	0.03986
1197.05078	0.03971
1195.76501	0.03951
1194.47924	0.03929
1193.19347	0.03905
1191.90770	0.03880
1190.62193	0.03857
1189.33616	0.03839
1188.05040	0.03825
1186.76463	0.03815
1185.47886	0.03807
1184.19309	0.03801
1182.90732	0.03796
1181.62155	0.03794
1180.33578	0.03795
1179.05001	0.03800
1177.76425	0.03808
1176.47848	0.03820
1175.19271	0.03832
1173.90694	0.03843
1172.62117	0.03851
1171.33540	0.03860
1170.04963	0.03872
1168.76386	0.03886
1167.47809	0.03901
1166.19233	0.03912
1164.90656	0.03921
1163.62079	0.03930
1162.33502	0.03940
1161.04925	0.03954
1159.76348	0.03969
1158.47771	0.03981
1157.19194	0.03986
1155.90618	0.03982
1154.62041	0.03974
1153.33464	0.03965
1152.04887	0.03959
1150.76310	0.03956
1149.47733	0.03951
1148.19156	0.03942
1146.90579	0.03928
1145.62002	0.03910
1144.33426	0.03890
1143.04849	0.03871
1141.76272	0.03854
1140.47695	0.03842
1139.19118	0.03836
1137.90541	0.03832
1136.61964	0.03830
1135.33387	0.03830
1134.04811	0.03836
1132.76234	0.03845
1131.47657	0.03861
1130.19080	0.03884
1128.90503	0.03916
1127.61926	0.03953
1126.33349	0.03991
1125.04772	0.04030
1123.76195	0.04070
1122.47619	0.04112
1121.19042	0.04153
1119.90465	0.04195
1118.61888	0.04238
1117.33311	0.04286
1116.04734	0.04340
1114.76157	0.04400
1113.47580	0.04460
1112.19004	0.04515
1110.90427	0.04563
1109.61850	0.04607
1108.33273	0.04651
1107.04696	0.04697
1105.76119	0.04749
1104.47542	0.04804
1103.18965	0.04859
1101.90388	0.04906
1100.61812	0.04946
1099.33235	0.04985
1098.04658	0.05031
1096.76081	0.05082
1095.47504	0.05130
1094.18927	0.05167
1092.90350	0.05192
1091.61773	0.05209
1090.33197	0.05221
1089.04620	0.05229
1087.76043	0.05236
1086.47466	0.05245
1085.18889	0.05260
1083.90312	0.05287
1082.61735	0.05333
1081.33158	0.05394
1080.04581	0.05458
1078.76005	0.05515
1077.47428	0.05560
1076.18851	0.05601
1074.90274	0.05642
1073.61697	0.05684
1072.33120	0.05723
1071.04543	0.05757
1069.75966	0.05786
1068.47390	0.05815
1067.18813	0.05848
1065.90236	0.05889
1064.61659	0.05935
1063.33082	0.05983
1062.04505	0.06033
1060.75928	0.06085
1059.47351	0.06137
1058.18774	0.06186
1056.90198	0.06234
1055.61621	0.06282
1054.33044	0.06331
1053.04467	0.06375
1051.75890	0.06413
1050.47313	0.06448
1049.18736	0.06484
1047.90159	0.06526
1046.61583	0.06575
1045.33006	0.06628
1044.04429	0.06686
1042.75852	0.06743
1041.47275	0.06799
1040.18698	0.06851
1038.90121	0.06901
1037.61544	0.06953
1036.32967	0.07013
1035.04391	0.07080
1033.75814	0.07151
1032.47237	0.07222
1031.18660	0.07286
1029.90083	0.07337
1028.61506	0.07371
1027.32929	0.07385
1026.04352	0.07379
1024.75775	0.07354
1023.47199	0.07318
1022.18622	0.07283
1020.90045	0.07249
1019.61468	0.07216
1018.32891	0.07177
1017.04314	0.07130
1015.75737	0.07076
1014.47160	0.07012
1013.18584	0.06941
1011.90007	0.06866
1010.61430	0.06794
1009.32853	0.06725
1008.04276	0.06659
1006.75699	0.06590
1005.47122	0.06517
1004.18545	0.06442
1002.89968	0.06371
1001.61392	0.06303
1000.32815	0.06234
999.04238	0.06160
997.75661	0.06085
996.47084	0.06010
995.18507	0.05937
993.89930	0.05867
992.61353	0.05800
991.32777	0.05738
990.04200	0.05684
988.75623	0.05637
987.47046	0.05591
986.18469	0.05541
984.89892	0.05483
983.61315	0.05421
982.32738	0.05362
981.04161	0.05310
979.75585	0.05263
978.47008	0.05217
977.18431	0.05171
975.89854	0.05129
974.61277	0.05094
973.32700	0.05065
972.04123	0.05042
970.75546	0.05023
969.46970	0.05013
968.18393	0.05011
966.89816	0.05010
965.61239	0.05000
964.32662	0.04977
963.04085	0.04950
961.75508	0.04926
960.46931	0.04910
959.18354	0.04895
957.89778	0.04873
956.61201	0.04837
955.32624	0.04787
954.04047	0.04732
952.75470	0.04680
951.46893	0.04638
950.18316	0.04604
948.89739	0.04568
947.61163	0.04529
946.32586	0.04488
945.04009	0.04450
943.75432	0.04418
942.46855	0.04393
941.18278	0.04375
939.89701	0.04360
938.61124	0.04342
937.32547	0.04315
936.03971	0.04279
934.75394	0.04237
933.46817	0.04194
932.18240	0.04156
930.89663	0.04124
929.61086	0.04094
928.32509	0.04064
927.03932	0.04035
925.75356	0.04014
924.46779	0.04002
923.18202	0.03992
921.89625	0.03973
920.61048	0.03943
919.32471	0.03904
918.03894	0.03866
916.75317	0.03833
915.46740	0.03804
914.18164	0.03776
912.89587	0.03749
911.61010	0.03725
910.32433	0.03702
909.03856	0.03675
907.75279	0.03641
906.46702	0.03608
905.18125	0.03582
903.89549	0.03562
902.60972	0.03544
901.32395	0.03525
900.03818	0.03509
898.75241	0.03497
897.46664	0.03481
896.18087	0.03454
894.89510	0.03418
893.60933	0.03385
892.32357	0.03362
891.03780	0.03346
889.75203	0.03330
888.46626	0.03311
887.18049	0.03288
885.89472	0.03265
884.60895	0.03251
883.32318	0.03251
882.03742	0.03265
880.75165	0.03281
879.46588	0.03291
878.18011	0.03288
876.89434	0.03272
875.60857	0.03244
874.32280	0.03213
873.03703	0.03189
871.75126	0.03175
870.46550	0.03169
869.17973	0.03162
867.89396	0.03150
866.60819	0.03137
865.32242	0.03130
864.03665	0.03127
862.75088	0.03119
861.46511	0.03102
860.17935	0.03080
858.89358	0.03058
857.60781	0.03043
856.32204	0.03035
855.03627	0.03033
853.75050	0.03035
852.46473	0.03038
851.17896	0.03035
849.89319	0.03021
848.60743	0.02994
847.32166	0.02960
846.03589	0.02929
844.75012	0.02903
843.46435	0.02879
842.17858	0.02854
840.89281	0.02827
839.60704	0.02804
838.32128	0.02792
837.03551	0.02793
835.74974	0.02797
834.46397	0.02797
833.17820	0.02787
831.89243	0.02772
830.60666	0.02756
829.32089	0.02742
828.03512	0.02730
826.74936	0.02722
825.46359	0.02717
824.17782	0.02716
822.89205	0.02718
821.60628	0.02722
820.32051	0.02725
819.03474	0.02720
817.74897	0.02705
816.46321	0.02690
815.17744	0.02677
813.89167	0.02669
812.60590	0.02666
811.32013	0.02674
810.03436	0.02690
808.74859	0.02706
807.46282	0.02713
806.17705	0.02715
804.89129	0.02721
803.60552	0.02733
802.31975	0.02746
801.03398	0.02752
799.74821	0.02750
798.46244	0.02745
797.17667	0.02741
795.89090	0.02738
794.60513	0.02734
793.31937	0.02734
792.03360	0.02741
790.74783	0.02753
789.46206	0.02762
788.17629	0.02760
786.89052	0.02748
785.60475	0.02733
784.31898	0.02726
783.03322	0.02729
781.74745	0.02742
780.46168	0.02758
779.17591	0.02771
777.89014	0.02777
776.60437	0.02776
775.31860	0.02775
774.03283	0.02774
772.74706	0.02770
771.46130	0.02762
770.17553	0.02755
768.88976	0.02756
767.60399	0.02764
766.31822	0.02772
765.03245	0.02778
763.74668	0.02782
762.46091	0.02790
761.17515	0.02798
759.88938	0.02803
758.60361	0.02802
757.31784	0.02793
756.03207	0.02781
754.74630	0.02766
753.46053	0.02751
752.17476	0.02741
750.88899	0.02743
749.60323	0.02758
748.31746	0.02779
747.03169	0.02793
745.74592	0.02797
744.46015	0.02800
743.17438	0.02812
741.88861	0.02835
740.60284	0.02855
739.31708	0.02860
738.03131	0.02850
736.74554	0.02831
735.45977	0.02811
734.17400	0.02791
732.88823	0.02778
731.60246	0.02777
730.31669	0.02787
729.03092	0.02802
727.74516	0.02814
726.45939	0.02825
725.17362	0.02842
723.88785	0.02865
722.60208	0.02887
721.31631	0.02904
720.03054	0.02913
718.74477	0.02918
717.45901	0.02917
716.17324	0.02909
714.88747	0.02893
713.60170	0.02877
712.31593	0.02869
711.03016	0.02873
709.74439	0.02883
708.45862	0.02895
707.17285	0.02907
705.88709	0.02916
704.60132	0.02924
703.31555	0.02930
702.02978	0.02935
700.74401	0.02942
699.45824	0.02951
698.17247	0.02957
696.88670	0.02959
695.60094	0.02955
694.31517	0.02948
693.02940	0.02939
691.74363	0.02929
690.45786	0.02921
689.17209	0.02916
687.88632	0.02915
686.60055	0.02916
685.31478	0.02917
684.02902	0.02916
682.74325	0.02916
681.45748	0.02920
680.17171	0.02929
678.88594	0.02936
677.60017	0.02939
676.31440	0.02936
675.02863	0.02933
673.74287	0.02932
672.45710	0.02931
671.17133	0.02928
669.88556	0.02924
668.59979	0.02924
667.31402	0.02932
666.02825	0.02942
664.74248	0.02954
663.45671	0.02966
662.17095	0.02977
660.88518	0.02986
659.59941	0.02990
658.31364	0.02991
657.02787	0.02997
655.74210	0.03013
654.45633	0.03036
653.17056	0.03056
651.88480	0.03069
650.59903	0.03076
649.31326	0.03081
648.02749	0.03086
646.74172	0.03090
645.45595	0.03091
644.17018	0.03089
642.88441	0.03080
641.59864	0.03065
640.31288	0.03046
639.02711	0.03031
637.74134	0.03021
636.45557	0.03017
635.16980	0.03016
633.88403	0.03009
632.59826	0.02984
631.31249	0.02999
630.02673	0.03305
628.74096	0.03791
627.45519	0.03470
626.16942	0.04035
624.88365	0.05186
623.59788	0.06207
622.31211	0.06775
621.02634	0.06796
619.74057	0.06372
618.45481	0.05711
617.16904	0.05011
615.88327	0.04416
614.59750	0.04040
613.31173	0.03973
612.02596	0.04255
610.74019	0.04821
609.45442	0.05466
608.16866	0.05946
606.88289	0.06153
605.59712	0.06151
604.31135	0.06053
603.02558	0.05912
601.73981	0.05731
600.45404	0.05515
599.16827	0.05295
597.88250	0.05099
596.59674	0.04937
595.31097	0.04804
594.02520	0.04694
592.73943	0.04604
591.45366	0.04536
590.16789	0.04492
588.88212	0.04475
587.59635	0.04480
586.31059	0.04499
585.02482	0.04528
583.73905	0.04567
582.45328	0.04619
581.16751	0.04679
579.88174	0.04733
578.59597	0.04773
577.31020	0.04804
576.02443	0.04840
574.73867	0.04895
573.45290	0.04973
572.16713	0.05069
570.88136	0.05181
569.59559	0.05300
568.30982	0.05413
567.02405	0.05496
565.73828	0.05538
564.45251	0.05542
563.16675	0.05524
561.88098	0.05495
560.59521	0.05456
559.30944	0.05403
558.02367	0.05337
556.73790	0.05262
555.45213	0.05183
554.16636	0.05104
552.88060	0.05025
551.59483	0.04948
550.30906	0.04879
549.02329	0.04821
547.73752	0.04778
546.45175	0.04751
545.16598	0.04734
543.88021	0.04718
542.59444	0.04692
541.30868	0.04655
540.02291	0.04615
538.73714	0.04578
537.45137	0.04539
536.16560	0.04496
534.87983	0.04451
533.59406	0.04414
532.30829	0.04389
531.02253	0.04372
529.73676	0.04355
528.45099	0.04330
527.16522	0.04299
525.87945	0.04268
524.59368	0.04238
523.30791	0.04208
522.02214	0.04177
520.73637	0.04146
519.45061	0.04110
518.16484	0.04067
516.87907	0.04021
515.59330	0.03979
514.30753	0.03943
513.02176	0.03907
511.73599	0.03869
510.45022	0.03830
509.16446	0.03796
507.87869	0.03765
506.59292	0.03734
505.30715	0.03699
504.02138	0.03660
502.73561	0.03620
501.44984	0.03582
500.16407	0.03549
498.87830	0.03522
497.59254	0.03495
496.30677	0.03468
495.02100	0.03443
493.73523	0.03423
492.44946	0.03404
491.16369	0.03387
489.87792	0.03372
488.59215	0.03362
487.30639	0.03358
486.02062	0.03355
484.73485	0.03350
483.44908	0.03338
482.16331	0.03318
480.87754	0.03295
479.59177	0.03277
478.30600	0.03270
477.02023	0.03271
475.73447	0.03279
474.44870	0.03290
473.16293	0.03300
471.87716	0.03310
470.59139	0.03321
469.30562	0.03334
468.01985	0.03343
466.73408	0.03341
465.44832	0.03327
464.16255	0.03307
462.87678	0.03287
461.59101	0.03269
460.30524	0.03250
459.01947	0.03226
457.73370	0.03199
456.44793	0.03173
455.16216	0.03149
453.87640	0.03126
452.59063	0.03101
451.30486	0.03070
450.01909	0.03035
448.73332	0.03000
447.44755	0.02975
446.16178	0.02961
444.87601	0.02955
443.59025	0.02951
442.30448	0.02942
441.01871	0.02930
439.73294	0.02921
438.44717	0.02916
437.16140	0.02918
435.87563	0.02925
434.58986	0.02933
433.30409	0.02938
432.01833	0.02940
430.73256	0.02938
429.44679	0.02937
428.16102	0.02939
426.87525	0.02941
425.58948	0.02935
424.30371	0.02919
423.01794	0.02896
421.73218	0.02874
420.44641	0.02856
419.16064	0.02844
417.87487	0.02837
416.58910	0.02832
415.30333	0.02827
414.01756	0.02820
412.73179	0.02809
411.44602	0.02792
410.16026	0.02768
408.87449	0.02741
407.58872	0.02718
406.30295	0.02705
405.01718	0.02703
403.73141	0.02708
402.44564	0.02712
401.15987	0.02714
399.87411	0.02714
