3997.45528	0.04977
3996.16951	0.04915
3994.88374	0.04872
3993.59798	0.04864
3992.31221	0.04890
3991.02644	0.04936
3989.74067	0.04994
3988.45490	0.05049
3987.16913	0.05088
3985.88336	0.05104
3984.59759	0.05099
3983.31183	0.05077
3982.02606	0.05038
3980.74029	0.04994
3979.45452	0.04962
3978.16875	0.04947
3976.88298	0.04935
3975.59721	0.04915
3974.31144	0.04895
3973.02567	0.04895
3971.73991	0.04924
3970.45414	0.04973
3969.16837	0.05024
3967.88260	0.05059
3966.59683	0.05058
3965.31106	0.05012
3964.02529	0.04931
3962.73952	0.04843
3961.45376	0.04777
3960.16799	0.04743
3958.88222	0.04739
3957.59645	0.04754
3956.31068	0.04774
3955.02491	0.04789
3953.73914	0.04799
3952.45337	0.04819
3951.16760	0.04863
3949.88184	0.04922
3948.59607	0.04976
3947.31030	0.05013
3946.02453	0.05037
3944.73876	0.05058
3943.45299	0.05073
3942.16722	0.05065
3940.88145	0.05020
3939.59569	0.04946
3938.30992	0.04871
3937.02415	0.04823
3935.73838	0.04809
3934.45261	0.04815
3933.16684	0.04828
3931.88107	0.04839
3930.59530	0.04841
3929.30953	0.04831
3928.02377	0.04816
3926.73800	0.04814
3925.45223	0.04835
3924.16646	0.04861
3922.88069	0.04857
3921.59492	0.04809
3920.30915	0.04740
3919.02338	0.04685
3917.73762	0.04661
3916.45185	0.04660
3915.16608	0.04665
3913.88031	0.04669
3912.59454	0.04672
3911.30877	0.04675
3910.02300	0.04673
3908.73723	0.04663
3907.45146	0.04650
3906.16570	0.04642
3904.87993	0.04647
3903.59416	0.04665
3902.30839	0.04683
3901.02262	0.04687
3899.73685	0.04676
3898.45108	0.04659
3897.16531	0.04635
3895.87955	0.04602
3894.59378	0.04575
3893.30801	0.04585
3892.02224	0.04648
3890.73647	0.04738
3889.45070	0.04800
3888.16493	0.04798
3886.87916	0.04745
3885.59339	0.04684
3884.30763	0.04651
3883.02186	0.04650
3881.73609	0.04654
3880.45032	0.04631
3879.16455	0.04575
3877.87878	0.04512
3876.59301	0.04479
3875.30724	0.04489
3874.02148	0.04528
3872.73571	0.04575
3871.44994	0.04615
3870.16417	0.04635
3868.87840	0.04616
3867.59263	0.04559
3866.30686	0.04490
3865.02109	0.04450
3863.73532	0.04462
3862.44956	0.04523
3861.16379	0.04606
3859.87802	0.04672
3858.59225	0.04697
3857.30648	0.04675
3856.02071	0.04622
3854.73494	0.04559
3853.44917	0.04503
3852.16341	0.04471
3850.87764	0.04471
3849.59187	0.04495
3848.30610	0.04527
3847.02033	0.04553
3845.73456	0.04571
3844.44879	0.04585
3843.16302	0.04588
3841.87725	0.04567
3840.59149	0.04527
3839.30572	0.04488
3838.01995	0.04468
3836.73418	0.04471
3835.44841	0.04486
3834.16264	0.04505
3832.87687	0.04517
3831.59110	0.04510
3830.30534	0.04478
3829.01957	0.04439
3827.73380	0.04421
3826.44803	0.04440
3825.16226	0.04484
3823.87649	0.04521
3822.59072	0.04524
3821.30495	0.04485
3820.01918	0.04424
3818.73342	0.04368
3817.44765	0.04340
3816.16188	0.04349
3814.87611	0.04387
3813.59034	0.04432
3812.30457	0.04456
3811.01880	0.04441
3809.73303	0.04398
3808.44726	0.04359
3807.16150	0.04347
3805.87573	0.04359
3804.58996	0.04374
3803.30419	0.04386
3802.01842	0.04400
3800.73265	0.04411
3799.44688	0.04406
3798.16111	0.04385
3796.87535	0.04372
3795.58958	0.04392
3794.30381	0.04441
3793.01804	0.04488
3791.73227	0.04513
3790.44650	0.04516
3789.16073	0.04511
3787.87496	0.04504
3786.58919	0.04485
3785.30343	0.04439
3784.01766	0.04364
3782.73189	0.04282
3781.44612	0.04232
3780.16035	0.04241
3778.87458	0.04298
3777.58881	0.04366
3776.30304	0.04410
3775.01728	0.04417
3773.73151	0.04397
3772.44574	0.04365
3771.15997	0.04326
3769.87420	0.04282
3768.58843	0.04246
3767.30266	0.04234
3766.01689	0.04245
3764.73112	0.04261
3763.44536	0.04261
3762.15959	0.04241
3760.87382	0.04218
3759.58805	0.04208
3758.30228	0.04207
3757.01651	0.04197
3755.73074	0.04166
3754.44497	0.04133
3753.15921	0.04134
3751.87344	0.04183
3750.58767	0.04247
3749.30190	0.04281
3748.01613	0.04268
3746.73036	0.04225
3745.44459	0.04171
3744.15882	0.04110
3742.87305	0.04044
3741.58729	0.03987
3740.30152	0.03962
3739.01575	0.03974
3737.72998	0.04006
3736.44421	0.04032
3735.15844	0.04048
3733.87267	0.04075
3732.58690	0.04124
3731.30114	0.04182
3730.01537	0.04220
3728.72960	0.04222
3727.44383	0.04204
3726.15806	0.04191
3724.87229	0.04193
3723.58652	0.04188
3722.30075	0.04154
3721.01498	0.04092
3719.72922	0.04036
3718.44345	0.04014
3717.15768	0.04023
3715.87191	0.04035
3714.58614	0.04034
3713.30037	0.04038
3712.01460	0.04078
3710.72883	0.04156
3709.44307	0.04231
3708.15730	0.04255
3706.87153	0.04212
3705.58576	0.04133
3704.29999	0.04065
3703.01422	0.04036
3701.72845	0.04044
3700.44268	0.04071
3699.15691	0.04101
3697.87115	0.04112
3696.58538	0.04087
3695.29961	0.04034
3694.01384	0.03981
3692.72807	0.03956
3691.44230	0.03960
3690.15653	0.03972
3688.87076	0.03973
3687.58500	0.03956
3686.29923	0.03931
3685.01346	0.03916
3683.72769	0.03919
3682.44192	0.03931
3681.15615	0.03947
3679.87038	0.03971
3678.58461	0.04003
3677.29884	0.04033
3676.01308	0.04053
3674.72731	0.04067
3673.44154	0.04082
3672.15577	0.04093
3670.87000	0.04091
3669.58423	0.04081
3668.29846	0.04072
3667.01269	0.04069
3665.72693	0.04069
3664.44116	0.04075
3663.15539	0.04100
3661.86962	0.04150
3660.58385	0.04213
3659.29808	0.04264
3658.01231	0.04285
3656.72654	0.04283
3655.44077	0.04280
3654.15501	0.04287
3652.86924	0.04292
3651.58347	0.04277
3650.29770	0.04245
3649.01193	0.04220
3647.72616	0.04231
3646.44039	0.04284
3645.15462	0.04359
3643.86886	0.04421
3642.58309	0.04448
3641.29732	0.04438
3640.01155	0.04413
3638.72578	0.04401
3637.44001	0.04422
3636.15424	0.04468
3634.86847	0.04517
3633.58270	0.04554
3632.29694	0.04584
3631.01117	0.04624
3629.72540	0.04675
3628.43963	0.04712
3627.15386	0.04716
3625.86809	0.04697
3624.58232	0.04692
3623.29655	0.04725
3622.01079	0.04786
3620.72502	0.04846
3619.43925	0.04884
3618.15348	0.04892
3616.86771	0.04869
3615.58194	0.04837
3614.29617	0.04820
3613.01040	0.04839
3611.72463	0.04886
3610.43887	0.04931
3609.15310	0.04954
3607.86733	0.04968
3606.58156	0.05005
3605.29579	0.05076
3604.01002	0.05167
3602.72425	0.05252
3601.43848	0.05318
3600.15272	0.05365
3598.86695	0.05406
3597.58118	0.05449
3596.29541	0.05500
3595.00964	0.05547
3593.72387	0.05580
3592.43810	0.05584
3591.15233	0.05562
3589.86656	0.05529
3588.58080	0.05504
3587.29503	0.05512
3586.00926	0.05565
3584.72349	0.05653
3583.43772	0.05743
3582.15195	0.05803
3580.86618	0.05824
3579.58041	0.05817
3578.29464	0.05808
3577.00888	0.05823
3575.72311	0.05873
3574.43734	0.05946
3573.15157	0.06016
3571.86580	0.06066
3570.58003	0.06101
3569.29426	0.06141
3568.00849	0.06202
3566.72273	0.06277
3565.43696	0.06347
3564.15119	0.06402
3562.86542	0.06452
3561.57965	0.06509
3560.29388	0.06570
3559.00811	0.06619
3557.72234	0.06641
3556.43657	0.06641
3555.15081	0.06643
3553.86504	0.06666
3552.57927	0.06705
3551.29350	0.06743
3550.00773	0.06780
3548.72196	0.06836
3547.43619	0.06921
3546.15042	0.07019
3544.86466	0.07096
3543.57889	0.07129
3542.29312	0.07116
3541.00735	0.07078
3539.72158	0.07042
3538.43581	0.07031
3537.15004	0.07050
3535.86427	0.07096
3534.57850	0.07168
3533.29274	0.07262
3532.00697	0.07364
3530.72120	0.07443
3529.43543	0.07482
3528.14966	0.07496
3526.86389	0.07518
3525.57812	0.07568
3524.29235	0.07640
3523.00659	0.07710
3521.72082	0.07764
3520.43505	0.07802
3519.14928	0.07826
3517.86351	0.07843
3516.57774	0.07856
3515.29197	0.07872
3514.00620	0.07907
3512.72043	0.07977
3511.43467	0.08083
3510.14890	0.08194
3508.86313	0.08266
3507.57736	0.08268
3506.29159	0.08215
3505.00582	0.08159
3503.72005	0.08149
3502.43428	0.08195
3501.14852	0.08262
3499.86275	0.08315
3498.57698	0.08346
3497.29121	0.08373
3496.00544	0.08423
3494.71967	0.08498
3493.43390	0.08574
3492.14813	0.08630
3490.86236	0.08665
3489.57660	0.08701
3488.29083	0.08749
3487.00506	0.08802
3485.71929	0.08847
3484.43352	0.08881
3483.14775	0.08914
3481.86198	0.08970
3480.57621	0.09062
3479.29045	0.09173
3478.00468	0.09262
3476.71891	0.09297
3475.43314	0.09291
3474.14737	0.09274
3472.86160	0.09264
3471.57583	0.09260
3470.29006	0.09259
3469.00429	0.09270
3467.71853	0.09303
3466.43276	0.09354
3465.14699	0.09406
3463.86122	0.09446
3462.57545	0.09478
3461.28968	0.09513
3460.00391	0.09556
3458.71814	0.09595
3457.43238	0.09617
3456.14661	0.09621
3454.86084	0.09624
3453.57507	0.09635
3452.28930	0.09649
3451.00353	0.09659
3449.71776	0.09674
3448.43199	0.09714
3447.14622	0.09778
3445.86046	0.09842
3444.57469	0.09889
3443.28892	0.09927
3442.00315	0.09974
3440.71738	0.10037
3439.43161	0.10109
3438.14584	0.10172
3436.86007	0.10218
3435.57431	0.10244
3434.28854	0.10254
3433.00277	0.10259
3431.71700	0.10269
3430.43123	0.10290
3429.14546	0.10326
3427.85969	0.10378
3426.57392	0.10442
3425.28815	0.10506
3424.00239	0.10552
3422.71662	0.10569
3421.43085	0.10567
3420.14508	0.10570
3418.85931	0.10592
3417.57354	0.10627
3416.28777	0.10665
3415.00200	0.10702
3413.71624	0.10740
3412.43047	0.10778
3411.14470	0.10811
3409.85893	0.10837
3408.57316	0.10861
3407.28739	0.10892
3406.00162	0.10938
3404.71585	0.11007
3403.43008	0.11093
3402.14432	0.11177
3400.85855	0.11243
3399.57278	0.11287
3398.28701	0.11327
3397.00124	0.11382
3395.71547	0.11447
3394.42970	0.11501
3393.14393	0.11530
3391.85817	0.11536
3390.57240	0.11539
3389.28663	0.11558
3388.00086	0.11607
3386.71509	0.11679
3385.42932	0.11749
3384.14355	0.11783
3382.85778	0.11776
3381.57201	0.11761
3380.28625	0.11785
3379.00048	0.11866
3377.71471	0.11979
3376.42894	0.12079
3375.14317	0.12138
3373.85740	0.12158
3372.57163	0.12161
3371.28586	0.12173
3370.00010	0.12212
3368.71433	0.12278
3367.42856	0.12354
3366.14279	0.12424
3364.85702	0.12479
3363.57125	0.12523
3362.28548	0.12555
3360.99971	0.12576
3359.71394	0.12601
3358.42818	0.12648
3357.14241	0.12729
3355.85664	0.12834
3354.57087	0.12944
3353.28510	0.13041
3351.99933	0.13109
3350.71356	0.13146
3349.42779	0.13171
3348.14202	0.13217
3346.85626	0.13308
3345.57049	0.13428
3344.28472	0.13533
3342.99895	0.13589
3341.71318	0.13609
3340.42741	0.13640
3339.14164	0.13710
3337.85587	0.13814
3336.57011	0.13924
3335.28434	0.14014
3333.99857	0.14068
3332.71280	0.14086
3331.42703	0.14090
3330.14126	0.14110
3328.85549	0.14164
3327.56972	0.14239
3326.28395	0.14304
3324.99819	0.14345
3323.71242	0.14370
3322.42665	0.14397
3321.14088	0.14430
3319.85511	0.14463
3318.56934	0.14493
3317.28357	0.14530
3315.99780	0.14578
3314.71204	0.14634
3313.42627	0.14684
3312.14050	0.14723
3310.85473	0.14758
3309.56896	0.14801
3308.28319	0.14852
3306.99742	0.14901
3305.71165	0.14937
3304.42588	0.14956
3303.14012	0.14968
3301.85435	0.14987
3300.56858	0.15021
3299.28281	0.15061
3297.99704	0.15094
3296.71127	0.15114
3295.42550	0.15123
3294.13973	0.15123
3292.85397	0.15111
3291.56820	0.15092
3290.28243	0.15079
3288.99666	0.15089
3287.71089	0.15124
3286.42512	0.15166
3285.13935	0.15192
3283.85358	0.15189
3282.56781	0.15162
3281.28205	0.15131
3279.99628	0.15106
3278.71051	0.15088
3277.42474	0.15069
3276.13897	0.15048
3274.85320	0.15024
3273.56743	0.14992
3272.28166	0.14949
3270.99590	0.14900
3269.71013	0.14850
3268.42436	0.14801
3267.13859	0.14746
3265.85282	0.14685
3264.56705	0.14621
3263.28128	0.14558
3261.99551	0.14497
3260.70974	0.14432
3259.42398	0.14360
3258.13821	0.14295
3256.85244	0.14253
3255.56667	0.14238
3254.28090	0.14236
3252.99513	0.14230
3251.70936	0.14211
3250.42359	0.14177
3249.13783	0.14123
3247.85206	0.14047
3246.56629	0.13962
3245.28052	0.13886
3243.99475	0.13831
3242.70898	0.13794
3241.42321	0.13764
3240.13744	0.13728
3238.85167	0.13676
3237.56591	0.13612
3236.28014	0.13549
3234.99437	0.13501
3233.70860	0.13467
3232.42283	0.13434
3231.13706	0.13397
3229.85129	0.13365
3228.56552	0.13344
3227.27976	0.13325
3225.99399	0.13289
3224.70822	0.13226
3223.42245	0.13150
3222.13668	0.13095
3220.85091	0.13080
3219.56514	0.13091
3218.27937	0.13091
3216.99360	0.13061
3215.70784	0.13009
3214.42207	0.12962
3213.13630	0.12933
3211.85053	0.12913
3210.56476	0.12884
3209.27899	0.12837
3207.99322	0.12771
3206.70745	0.12702
3205.42169	0.12648
3204.13592	0.12621
3202.85015	0.12607
3201.56438	0.12590
3200.27861	0.12562
3198.99284	0.12528
3197.70707	0.12493
3196.42130	0.12452
3195.13553	0.12396
3193.84977	0.12327
3192.56400	0.12254
3191.27823	0.12189
3189.99246	0.12144
3188.70669	0.12122
3187.42092	0.12113
3186.13515	0.12096
3184.84938	0.12046
3183.56362	0.11960
3182.27785	0.11860
3180.99208	0.11780
3179.70631	0.11738
3178.42054	0.11726
3177.13477	0.11716
3175.84900	0.11686
3174.56323	0.11632
3173.27746	0.11566
3171.99170	0.11501
3170.70593	0.11440
3169.42016	0.11371
3168.13439	0.11294
3166.84862	0.11225
3165.56285	0.11180
3164.27708	0.11157
3162.99131	0.11131
3161.70555	0.11086
3160.41978	0.11027
3159.13401	0.10970
3157.84824	0.10923
3156.56247	0.10877
3155.27670	0.10826
3153.99093	0.10770
3152.70516	0.10718
3151.41939	0.10674
3150.13363	0.10638
3148.84786	0.10604
3147.56209	0.10567
3146.27632	0.10516
3144.99055	0.10448
3143.70478	0.10376
3142.41901	0.10329
3141.13324	0.10326
3139.84748	0.10348
3138.56171	0.10349
3137.27594	0.10299
3135.99017	0.10209
3134.70440	0.10114
3133.41863	0.10046
3132.13286	0.10017
3130.84709	0.10017
3129.56132	0.10027
3128.27556	0.10029
3126.98979	0.10016
3125.70402	0.09990
3124.41825	0.09958
3123.13248	0.09925
3121.84671	0.09891
3120.56094	0.09854
3119.27517	0.09815
3117.98940	0.09785
3116.70364	0.09775
3115.41787	0.09782
3114.13210	0.09787
3112.84633	0.09776
3111.56056	0.09756
3110.27479	0.09751
3108.98902	0.09779
3107.70325	0.09830
3106.41749	0.09875
3105.13172	0.09890
3103.84595	0.09878
3102.56018	0.09857
3101.27441	0.09846
3099.98864	0.09857
3098.70287	0.09885
3097.41710	0.09919
3096.13133	0.09943
3094.84557	0.09949
3093.55980	0.09938
3092.27403	0.09921
3090.98826	0.09914
3089.70249	0.09925
3088.41672	0.09947
3087.13095	0.09967
3085.84518	0.09974
3084.55942	0.09974
3083.27365	0.09972
3081.98788	0.09967
3080.70211	0.09956
3079.41634	0.09945
3078.13057	0.09945
3076.84480	0.09959
3075.55903	0.09977
3074.27326	0.09995
3072.98750	0.10014
3071.70173	0.10034
3070.41596	0.10044
3069.13019	0.10029
3067.84442	0.09990
3066.55865	0.09944
3065.27288	0.09912
3063.98711	0.09903
3062.70135	0.09910
3061.41558	0.09917
3060.12981	0.09913
3058.84404	0.09896
3057.55827	0.09861
3056.27250	0.09804
3054.98673	0.09734
3053.70096	0.09665
3052.41519	0.09609
3051.12943	0.09569
3049.84366	0.09535
3048.55789	0.09503
3047.27212	0.09471
3045.98635	0.09443
3044.70058	0.09421
3043.41481	0.09403
3042.12904	0.09385
3040.84328	0.09361
3039.55751	0.09328
3038.27174	0.09283
3036.98597	0.09230
3035.70020	0.09174
3034.41443	0.09118
3033.12866	0.09061
3031.84289	0.09001
3030.55712	0.08937
3029.27136	0.08872
3027.98559	0.08816
3026.69982	0.08775
3025.41405	0.08748
3024.12828	0.08723
3022.84251	0.08688
3021.55674	0.08640
3020.27097	0.08586
3018.98521	0.08536
3017.69944	0.08496
3016.41367	0.08472
3015.12790	0.08465
3013.84213	0.08473
3012.55636	0.08485
3011.27059	0.08490
3009.98482	0.08486
3008.69905	0.08480
3007.41329	0.08477
3006.12752	0.08471
3004.84175	0.08456
3003.55598	0.08433
3002.27021	0.08410
3000.98444	0.08395
2999.69867	0.08392
2998.41290	0.08414
2997.12714	0.08447
2995.84137	0.08478
2994.55560	0.08499
2993.26983	0.08515
2991.98406	0.08533
2990.69829	0.08551
2989.41252	0.08562
2988.12675	0.08567
2986.84098	0.08585
2985.55522	0.08630
2984.26945	0.08699
2982.98368	0.08775
2981.69791	0.08848
2980.41214	0.08918
2979.12637	0.08983
2977.84060	0.09039
2976.55483	0.09083
2975.26907	0.09119
2973.98330	0.09157
2972.69753	0.09204
2971.41176	0.09260
2970.12599	0.09315
2968.84022	0.09363
2967.55445	0.09405
2966.26868	0.09449
2964.98291	0.09501
2963.69715	0.09558
2962.41138	0.09616
2961.12561	0.09666
2959.83984	0.09705
2958.55407	0.09734
2957.26830	0.09757
2955.98253	0.09770
2954.69676	0.09764
2953.41100	0.09741
2952.12523	0.09715
2950.83946	0.09702
2949.55369	0.09716
2948.26792	0.09752
2946.98215	0.09795
2945.69638	0.09830
2944.41061	0.09848
2943.12484	0.09858
2941.83908	0.09873
2940.55331	0.09901
2939.26754	0.09943
2937.98177	0.09994
2936.69600	0.10049
2935.41023	0.10103
2934.12446	0.10151
2932.83869	0.10191
2931.55293	0.10223
2930.26716	0.10256
2928.98139	0.10292
2927.69562	0.10324
2926.40985	0.10331
2925.12408	0.10298
2923.83831	0.10234
2922.55254	0.10164
2921.26677	0.10106
2919.98101	0.10058
2918.69524	0.10005
2917.40947	0.09936
2916.12370	0.09851
2914.83793	0.09745
2913.55216	0.09619
2912.26639	0.09480
2910.98062	0.09348
2909.69486	0.09240
2908.40909	0.09160
2907.12332	0.09097
2905.83755	0.09039
2904.55178	0.08985
2903.26601	0.08939
2901.98024	0.08905
2900.69447	0.08880
2899.40870	0.08861
2898.12294	0.08840
2896.83717	0.08807
2895.55140	0.08756
2894.26563	0.08693
2892.97986	0.08631
2891.69409	0.08585
2890.40832	0.08559
2889.12255	0.08549
2887.83678	0.08551
2886.55102	0.08558
2885.26525	0.08563
2883.97948	0.08559
2882.69371	0.08547
2881.40794	0.08535
2880.12217	0.08534
2878.83640	0.08547
2877.55063	0.08569
2876.26487	0.08588
2874.97910	0.08590
2873.69333	0.08578
2872.40756	0.08564
2871.12179	0.08556
2869.83602	0.08540
2868.55025	0.08498
2867.26448	0.08423
2865.97871	0.08336
2864.69295	0.08270
2863.40718	0.08243
2862.12141	0.08244
2860.83564	0.08239
2859.54987	0.08208
2858.26410	0.08163
2856.97833	0.08128
2855.69256	0.08119
2854.40680	0.08125
2853.12103	0.08126
2851.83526	0.08103
2850.54949	0.08050
2849.26372	0.07977
2847.97795	0.07894
2846.69218	0.07805
2845.40641	0.07712
2844.12064	0.07619
2842.83488	0.07539
2841.54911	0.07480
2840.26334	0.07441
2838.97757	0.07408
2837.69180	0.07372
2836.40603	0.07333
2835.12026	0.07296
2833.83449	0.07259
2832.54873	0.07214
2831.26296	0.07160
2829.97719	0.07106
2828.69142	0.07061
2827.40565	0.07025
2826.11988	0.06991
2824.83411	0.06958
2823.54834	0.06925
2822.26257	0.06897
2820.97681	0.06878
2819.69104	0.06868
2818.40527	0.06864
2817.11950	0.06860
2815.83373	0.06847
2814.54796	0.06819
2813.26219	0.06780
2811.97642	0.06746
2810.69066	0.06733
2809.40489	0.06734
2808.11912	0.06734
2806.83335	0.06725
2805.54758	0.06713
2804.26181	0.06708
2802.97604	0.06709
2801.69027	0.06705
2800.40450	0.06683
2799.11874	0.06642
2797.83297	0.06592
2796.54720	0.06548
2795.26143	0.06519
2793.97566	0.06504
2792.68989	0.06494
2791.40412	0.06483
2790.11835	0.06473
2788.83259	0.06469
2787.54682	0.06468
2786.26105	0.06466
2784.97528	0.06460
2783.68951	0.06449
2782.40374	0.06432
2781.11797	0.06410
2779.83220	0.06388
2778.54643	0.06370
2777.26067	0.06357
2775.97490	0.06340
2774.68913	0.06315
2773.40336	0.06284
2772.11759	0.06258
2770.83182	0.06242
2769.54605	0.06234
2768.26028	0.06225
2766.97452	0.06211
2765.68875	0.06192
2764.40298	0.06169
2763.11721	0.06140
2761.83144	0.06101
2760.54567	0.06056
2759.25990	0.06016
2757.97413	0.05991
2756.68836	0.05986
2755.40260	0.05995
2754.11683	0.06018
2752.83106	0.06051
2751.54529	0.06085
2750.25952	0.06103
2748.97375	0.06092
2747.68798	0.06061
2746.40221	0.06027
2745.11645	0.06000
2743.83068	0.05976
2742.54491	0.05947
2741.25914	0.05909
2739.97337	0.05870
2738.68760	0.05841
2737.40183	0.05825
2736.11606	0.05819
2734.83029	0.05819
2733.54453	0.05821
2732.25876	0.05825
2730.97299	0.05832
2729.68722	0.05837
2728.40145	0.05834
2727.11568	0.05818
2725.82991	0.05789
2724.54414	0.05754
2723.25838	0.05723
2721.97261	0.05701
2720.68684	0.05687
2719.40107	0.05678
2718.11530	0.05674
2716.82953	0.05675
2715.54376	0.05672
2714.25799	0.05655
2712.97222	0.05624
2711.68646	0.05584
2710.40069	0.05545
2709.11492	0.05514
2707.82915	0.05497
2706.54338	0.05497
2705.25761	0.05508
2703.97184	0.05516
2702.68607	0.05514
2701.40031	0.05506
2700.11454	0.05498
2698.82877	0.05494
2697.54300	0.05488
2696.25723	0.05477
2694.97146	0.05460
2693.68569	0.05439
2692.39992	0.05419
2691.11415	0.05400
2689.82839	0.05384
2688.54262	0.05373
2687.25685	0.05367
2685.97108	0.05364
2684.68531	0.05358
2683.39954	0.05350
2682.11377	0.05342
2680.82800	0.05339
2679.54224	0.05340
2678.25647	0.05339
2676.97070	0.05332
2675.68493	0.05318
2674.39916	0.05299
2673.11339	0.05278
2671.82762	0.05259
2670.54185	0.05255
2669.25608	0.05272
2667.97032	0.05302
2666.68455	0.05325
2665.39878	0.05327
2664.11301	0.05314
2662.82724	0.05300
2661.54147	0.05291
2660.25570	0.05278
2658.96993	0.05254
2657.68417	0.05226
2656.39840	0.05204
2655.11263	0.05187
2653.82686	0.05171
2652.54109	0.05157
2651.25532	0.05146
2649.96955	0.05136
2648.68378	0.05117
2647.39801	0.05087
2646.11225	0.05051
2644.82648	0.05020
2643.54071	0.05000
2642.25494	0.04989
2640.96917	0.04976
2639.68340	0.04957
2638.39763	0.04939
2637.11186	0.04930
2635.82609	0.04925
2634.54033	0.04910
2633.25456	0.04875
2631.96879	0.04831
2630.68302	0.04796
2629.39725	0.04773
2628.11148	0.04753
2626.82571	0.04734
2625.53994	0.04729
2624.25418	0.04744
2622.96841	0.04765
2621.68264	0.04772
2620.39687	0.04758
2619.11110	0.04730
2617.82533	0.04698
2616.53956	0.04669
2615.25379	0.04641
2613.96802	0.04606
2612.68226	0.04563
2611.39649	0.04518
2610.11072	0.04485
2608.82495	0.04469
2607.53918	0.04468
2606.25341	0.04476
2604.96764	0.04484
2603.68187	0.04479
2602.39611	0.04454
2601.11034	0.04417
2599.82457	0.04384
2598.53880	0.04362
2597.25303	0.04346
2595.96726	0.04333
2594.68149	0.04326
2593.39572	0.04326
2592.10995	0.04327
2590.82419	0.04324
2589.53842	0.04320
2588.25265	0.04320
2586.96688	0.04319
2585.68111	0.04308
2584.39534	0.04280
2583.10957	0.04238
2581.82380	0.04196
2580.53804	0.04176
2579.25227	0.04190
2577.96650	0.04232
2576.68073	0.04283
2575.39496	0.04322
2574.10919	0.04327
2572.82342	0.04281
2571.53765	0.04187
2570.25188	0.04085
2568.96612	0.04025
2567.68035	0.04023
2566.39458	0.04053
2565.10881	0.04084
2563.82304	0.04103
2562.53727	0.04112
2561.25150	0.04109
2559.96573	0.04089
2558.67997	0.04063
2557.39420	0.04045
2556.10843	0.04040
2554.82266	0.04038
2553.53689	0.04029
2552.25112	0.04012
2550.96535	0.03989
2549.67958	0.03965
2548.39381	0.03948
2547.10805	0.03938
2545.82228	0.03929
2544.53651	0.03915
2543.25074	0.03898
2541.96497	0.03882
2540.67920	0.03864
2539.39343	0.03849
2538.10766	0.03850
2536.82190	0.03873
2535.53613	0.03895
2534.25036	0.03888
2532.96459	0.03849
2531.67882	0.03801
2530.39305	0.03765
2529.10728	0.03750
2527.82151	0.03752
2526.53574	0.03763
2525.24998	0.03770
2523.96421	0.03763
2522.67844	0.03746
2521.39267	0.03738
2520.10690	0.03750
2518.82113	0.03779
2517.53536	0.03816
2516.24959	0.03852
2514.96383	0.03873
2513.67806	0.03860
2512.39229	0.03818
2511.10652	0.03771
2509.82075	0.03742
2508.53498	0.03728
2507.24921	0.03715
2505.96344	0.03697
2504.67767	0.03673
2503.39191	0.03644
2502.10614	0.03617
2500.82037	0.03612
2499.53460	0.03636
2498.24883	0.03666
2496.96306	0.03667
2495.67729	0.03640
2494.39152	0.03620
2493.10576	0.03632
2491.81999	0.03659
2490.53422	0.03668
2489.24845	0.03641
2487.96268	0.03585
2486.67691	0.03524
2485.39114	0.03479
2484.10537	0.03468
2482.81960	0.03492
2481.53384	0.03533
2480.24807	0.03566
2478.96230	0.03578
2477.67653	0.03574
2476.39076	0.03570
2475.10499	0.03585
2473.81922	0.03621
2472.53345	0.03653
2471.24769	0.03652
2469.96192	0.03616
2468.67615	0.03575
2467.39038	0.03551
2466.10461	0.03542
2464.81884	0.03536
2463.53307	0.03531
2462.24730	0.03534
2460.96153	0.03539
2459.67577	0.03540
2458.39000	0.03535
2457.10423	0.03530
2455.81846	0.03525
2454.53269	0.03519
2453.24692	0.03514
2451.96115	0.03518
2450.67538	0.03530
2449.38962	0.03540
2448.10385	0.03540
2446.81808	0.03527
2445.53231	0.03510
2444.24654	0.03498
2442.96077	0.03498
2441.67500	0.03509
2440.38923	0.03513
2439.10346	0.03496
2437.81770	0.03461
2436.53193	0.03426
2435.24616	0.03404
2433.96039	0.03391
2432.67462	0.03377
2431.38885	0.03365
2430.10308	0.03364
2428.81731	0.03369
2427.53155	0.03369
2426.24578	0.03359
2424.96001	0.03354
2423.67424	0.03375
2422.38847	0.03425
2421.10270	0.03482
2419.81693	0.03512
2418.53116	0.03500
2417.24539	0.03461
2415.95963	0.03427
2414.67386	0.03411
2413.38809	0.03404
2412.10232	0.03388
2410.81655	0.03358
2409.53078	0.03320
2408.24501	0.03285
2406.95924	0.03255
2405.67347	0.03231
2404.38771	0.03224
2403.10194	0.03246
2401.81617	0.03290
2400.53040	0.03325
2399.24463	0.03314
2397.95886	0.03283
2396.67309	0.03255
2395.38732	0.03249
2394.10156	0.03263
2392.81579	0.03284
2391.53002	0.03302
2390.24425	0.03314
2388.95848	0.03324
2387.67271	0.03329
2386.38694	0.03330
2385.10117	0.03330
2383.81540	0.03333
2382.52964	0.03344
2381.24387	0.03349
2379.95810	0.03352
2378.67233	0.03341
2377.38656	0.03336
2376.10079	0.03369
2374.81502	0.03432
2373.52925	0.03396
2372.24349	0.03383
2370.95772	0.03397
2369.67195	0.03399
2368.38618	0.03389
2367.10041	0.03390
2365.81464	0.03398
2364.52887	0.03407
2363.24310	0.03412
2361.95733	0.03426
2360.67157	0.03454
2359.38580	0.03470
2358.10003	0.03461
2356.81426	0.03432
2355.52849	0.03399
2354.24272	0.03402
2352.95695	0.03460
2351.67118	0.03466
2350.38542	0.03448
2349.09965	0.03440
2347.81388	0.03429
2346.52811	0.03442
2345.24234	0.03479
2343.95657	0.03530
2342.67080	0.03576
2341.38503	0.03527
2340.09926	0.03516
2338.81350	0.03487
2337.52773	0.03414
2336.24196	0.03390
2334.95619	0.03431
2333.67042	0.03455
2332.38465	0.03458
2331.09888	0.03375
2329.81311	0.03323
2328.52735	0.03273
2327.24158	0.03279
2325.95581	0.03337
2324.67004	0.03349
2323.38427	0.03362
2322.09850	0.03398
2320.81273	0.03406
2319.52696	0.03424
2318.24119	0.03440
2316.95543	0.03411
2315.66966	0.03383
2314.38389	0.03363
2313.09812	0.03327
2311.81235	0.03305
2310.52658	0.03272
2309.24081	0.03219
2307.95504	0.03178
2306.66928	0.03150
2305.38351	0.03130
2304.09774	0.03112
2302.81197	0.03096
2301.52620	0.03085
2300.24043	0.03069
2298.95466	0.03044
2297.66889	0.03010
2296.38312	0.02976
2295.09736	0.02955
2293.81159	0.02941
2292.52582	0.02924
2291.24005	0.02913
2289.95428	0.02914
2288.66851	0.02927
2287.38274	0.02941
2286.09697	0.02946
2284.81121	0.02943
2283.52544	0.02930
2282.23967	0.02908
2280.95390	0.02884
2279.66813	0.02861
2278.38236	0.02834
2277.09659	0.02797
2275.81082	0.02756
2274.52505	0.02728
2273.23929	0.02714
2271.95352	0.02704
2270.66775	0.02684
2269.38198	0.02658
2268.09621	0.02635
2266.81044	0.02625
2265.52467	0.02633
2264.23890	0.02654
2262.95314	0.02672
2261.66737	0.02667
2260.38160	0.02633
2259.09583	0.02586
2257.81006	0.02552
2256.52429	0.02546
2255.23852	0.02561
2253.95275	0.02577
2252.66698	0.02569
2251.38122	0.02531
2250.09545	0.02485
2248.80968	0.02448
2247.52391	0.02376
2246.23814	0.02308
2244.95237	0.02264
2243.66660	0.02265
2242.38083	0.02317
2241.09507	0.02399
2239.80930	0.02477
2238.52353	0.02516
2237.23776	0.02500
2235.95199	0.02452
2234.66622	0.02402
2233.38045	0.02364
2232.09468	0.02338
2230.80891	0.02333
2229.52315	0.02367
2228.23738	0.02425
2226.95161	0.02457
2225.66584	0.02421
2224.38007	0.02323
2223.09430	0.02213
2221.80853	0.02135
2220.52276	0.02091
2219.23700	0.02064
2217.95123	0.02053
2216.66546	0.02066
2215.37969	0.02088
2214.09392	0.02073
2212.80815	0.01993
2211.52238	0.01876
2210.23661	0.01806
2208.95084	0.01855
2207.66508	0.02007
2206.37931	0.02154
2205.09354	0.02178
2203.80777	0.02056
2202.52200	0.01879
2201.23623	0.01766
2199.95046	0.01765
2198.66469	0.01840
2197.37893	0.01920
2196.09316	0.01954
2194.80739	0.01928
2193.52162	0.01859
2192.23585	0.01784
2190.95008	0.01751
2189.66431	0.01781
2188.37854	0.01846
2187.09277	0.01890
2185.80701	0.01891
2184.52124	0.01876
2183.23547	0.01884
2181.94970	0.01926
2180.66393	0.01983
2179.37816	0.02017
2178.09239	0.01996
2176.80662	0.01917
2175.52085	0.01813
2174.23509	0.01723
2172.94932	0.01657
2171.66355	0.01600
2170.37778	0.01544
2169.09201	0.01491
2167.80624	0.01429
2166.52047	0.01364
2165.23470	0.01344
2163.94894	0.01409
2162.66317	0.01499
2161.37740	0.01478
2160.09163	0.01299
2158.80586	0.01101
2157.52009	0.01055
2156.23432	0.01152
2154.94855	0.01265
2153.66278	0.01332
2152.37702	0.01380
2151.09125	0.01431
2149.80548	0.01466
2148.51971	0.01477
2147.23394	0.01492
2145.94817	0.01531
2144.66240	0.01571
2143.37663	0.01569
2142.09087	0.01521
2140.80510	0.01475
2139.51933	0.01484
2138.23356	0.01561
2136.94779	0.01666
2135.66202	0.01752
2134.37625	0.01798
2133.09048	0.01823
2131.80471	0.01849
2130.51895	0.01885
2129.23318	0.01914
2127.94741	0.01921
2126.66164	0.01917
2125.37587	0.01942
2124.09010	0.02016
2122.80433	0.02109
2121.51856	0.02164
2120.23280	0.02156
2118.94703	0.02113
2117.66126	0.02074
2116.37549	0.02059
2115.08972	0.02067
2113.80395	0.02085
2112.51818	0.02090
2111.23241	0.02059
2109.94664	0.01995
2108.66088	0.01934
2107.37511	0.01920
2106.08934	0.01957
2104.80357	0.02013
2103.51780	0.02057
2102.23203	0.02077
2100.94626	0.02091
2099.66049	0.02369
2098.37473	0.02484
2097.08896	0.02432
2095.80319	0.02315
2094.51742	0.02174
2093.23165	0.02038
2091.94588	0.01931
2090.66011	0.01864
2089.37434	0.01832
2088.08857	0.01832
2086.80281	0.01866
2085.51704	0.01930
2084.23127	0.02006
2082.94550	0.02063
2081.65973	0.02090
2080.37396	0.02105
2079.08819	0.02141
2077.80242	0.02213
2076.51666	0.02298
2075.23089	0.02348
2073.94512	0.02330
2072.65935	0.02252
2071.37358	0.02156
2070.08781	0.02071
2068.80204	0.01998
2067.51627	0.01929
2066.23050	0.01869
2064.94474	0.01820
2063.65897	0.01781
2062.37320	0.01751
2061.08743	0.01730
2059.80166	0.01713
2058.51589	0.01688
2057.23012	0.01651
2055.94435	0.01606
2054.65859	0.01559
2053.37282	0.01531
2052.08705	0.01550
2050.80128	0.01623
2049.51551	0.01711
2048.22974	0.01770
2046.94397	0.01792
2045.65820	0.01803
2044.37243	0.01820
2043.08667	0.01824
2041.80090	0.01795
2040.51513	0.01742
2039.22936	0.01706
2037.94359	0.01730
2036.65782	0.01833
2035.37205	0.01989
2034.08628	0.02135
2032.80052	0.02194
2031.51475	0.02129
2030.22898	0.01975
2028.94321	0.01823
2027.65744	0.01734
2026.37167	0.01698
2025.08590	0.01670
2023.80013	0.01646
2022.51436	0.01649
2021.22860	0.01672
2019.94283	0.01673
2018.65706	0.01621
2017.37129	0.01535
2016.08552	0.01457
2014.79975	0.01408
2013.51398	0.01392
2012.22821	0.01414
2010.94245	0.01487
2009.65668	0.01612
2008.37091	0.01748
2007.08514	0.01822
2005.79937	0.01791
2004.51360	0.01682
2003.22783	0.01561
2001.94206	0.01476
2000.65629	0.01433
1999.37053	0.01418
1998.08476	0.01418
1996.79899	0.01429
1995.51322	0.01452
1994.22745	0.01479
1992.94168	0.01492
1991.65591	0.01469
1990.37014	0.01398
1989.08438	0.01300
1987.79861	0.01225
1986.51284	0.01216
1985.22707	0.01280
1983.94130	0.01402
1982.65553	0.01579
1981.36976	0.01820
1980.08399	0.02109
1978.79822	0.02378
1977.51246	0.02542
1976.22669	0.02558
1974.94092	0.02459
1973.65515	0.02322
1972.36938	0.02206
1971.08361	0.02108
1969.79784	0.01983
1968.51207	0.01814
1967.22631	0.01642
1965.94054	0.01543
1964.65477	0.01564
1963.36900	0.01681
1962.08323	0.01826
1960.79746	0.01925
1959.51169	0.01939
1958.22592	0.01866
1956.94015	0.01742
1955.65439	0.01626
1954.36862	0.01566
1953.08285	0.01569
1951.79708	0.01609
1950.51131	0.01659
1949.22554	0.01710
1947.93977	0.01755
1946.65400	0.01781
1945.36823	0.01785
1944.08247	0.01800
1942.79670	0.01866
1941.51093	0.01982
1940.22516	0.02093
1938.93939	0.02141
1937.65362	0.02113
1936.36785	0.02047
1935.08208	0.01984
1933.79632	0.01942
1932.51055	0.01914
1931.22478	0.01890
1929.93901	0.01860
1928.65324	0.01817
1927.36747	0.01767
1926.08170	0.01735
1924.79593	0.01739
1923.51016	0.01777
1922.22440	0.01828
1920.93863	0.01871
1919.65286	0.01905
1918.36709	0.01938
1917.08132	0.01974
1915.79555	0.02004
1914.50978	0.02015
1913.22401	0.02005
1911.93825	0.01983
1910.65248	0.01961
1909.36671	0.01939
1908.08094	0.01916
1906.79517	0.01899
1905.50940	0.01898
1904.22363	0.01914
1902.93786	0.01936
1901.65209	0.01958
1900.36633	0.01984
1899.08056	0.02009
1897.79479	0.02022
1896.50902	0.02016
1895.22325	0.01999
1893.93748	0.01984
1892.65171	0.01978
1891.36594	0.01976
1890.08018	0.01972
1888.79441	0.01961
1887.50864	0.01941
1886.22287	0.01918
1884.93710	0.01899
1883.65133	0.01890
1882.36556	0.01891
1881.07979	0.01896
1879.79402	0.01899
1878.50826	0.01905
1877.22249	0.01915
1875.93672	0.01923
1874.65095	0.01927
1873.36518	0.01930
1872.07941	0.01940
1870.79364	0.01952
1869.50787	0.01962
1868.22211	0.01967
1866.93634	0.01974
1865.65057	0.01984
1864.36480	0.01989
1863.07903	0.01981
1861.79326	0.01961
1860.50749	0.01941
1859.22172	0.01926
1857.93595	0.01917
1856.65019	0.01910
1855.36442	0.01905
1854.07865	0.01908
1852.79288	0.01912
1851.50711	0.01908
1850.22134	0.01890
1848.93557	0.01869
1847.64980	0.01858
1846.36404	0.01862
1845.07827	0.01875
1843.79250	0.01881
1842.50673	0.01873
1841.22096	0.01855
1839.93519	0.01836
1838.64942	0.01825
1837.36365	0.01819
1836.07788	0.01813
1834.79212	0.01804
1833.50635	0.01795
1832.22058	0.01795
1830.93481	0.01806
1829.64904	0.01826
1828.36327	0.01849
1827.07750	0.01871
1825.79173	0.01893
1824.50597	0.01923
1823.22020	0.01965
1821.93443	0.02011
1820.64866	0.02047
1819.36289	0.02050
1818.07712	0.02010
1816.79135	0.01933
1815.50558	0.01844
1814.21981	0.01767
1812.93405	0.01715
1811.64828	0.01688
1810.36251	0.01678
1809.07674	0.01680
1807.79097	0.01690
1806.50520	0.01705
1805.21943	0.01723
1803.93366	0.01742
1802.64790	0.01765
1801.36213	0.01789
1800.07636	0.01810
1798.79059	0.01822
1797.50482	0.01821
1796.21905	0.01812
1794.93328	0.01802
1793.64751	0.01799
1792.36174	0.01806
1791.07598	0.01818
1789.79021	0.01832
1788.50444	0.01844
1787.21867	0.01857
1785.93290	0.01871
1784.64713	0.01884
1783.36136	0.01893
1782.07559	0.01896
1780.78983	0.01894
1779.50406	0.01886
1778.21829	0.01876
1776.93252	0.01865
1775.64675	0.01853
1774.36098	0.01839
1773.07521	0.01820
1771.78944	0.01797
1770.50367	0.01778
1769.21791	0.01768
1767.93214	0.01768
1766.64637	0.01777
1765.36060	0.01793
1764.07483	0.01811
1762.78906	0.01826
1761.50329	0.01834
1760.21752	0.01837
1758.93176	0.01840
1757.64599	0.01850
1756.36022	0.01866
1755.07445	0.01884
1753.78868	0.01901
1752.50291	0.01917
1751.21714	0.01937
1749.93137	0.01960
1748.64560	0.01984
1747.35984	0.02009
1746.07407	0.02042
1744.78830	0.02084
1743.50253	0.02131
1742.21676	0.02176
1740.93099	0.02217
1739.64522	0.02257
1738.35945	0.02296
1737.07369	0.02329
1735.78792	0.02352
1734.50215	0.02372
1733.21638	0.02398
1731.93061	0.02431
1730.64484	0.02467
1729.35907	0.02500
1728.07330	0.02530
1726.78753	0.02564
1725.50177	0.02605
1724.21600	0.02652
1722.93023	0.02700
1721.64446	0.02748
1720.35869	0.02799
1719.07292	0.02857
1717.78715	0.02924
1716.50138	0.02995
1715.21561	0.03068
1713.92985	0.03145
1712.64408	0.03232
1711.35831	0.03337
1710.07254	0.03466
1708.78677	0.03619
1707.50100	0.03794
1706.21523	0.03983
1704.92946	0.04182
1703.64370	0.04395
1702.35793	0.04629
1701.07216	0.04889
1699.78639	0.05168
1698.50062	0.05456
1697.21485	0.05747
1695.92908	0.06040
1694.64331	0.06334
1693.35754	0.06627
1692.07178	0.06919
1690.78601	0.07212
1689.50024	0.07508
1688.21447	0.07810
1686.92870	0.08121
1685.64293	0.08445
1684.35716	0.08778
1683.07139	0.09115
1681.78563	0.09455
1680.49986	0.09806
1679.21409	0.10176
1677.92832	0.10565
1676.64255	0.10964
1675.35678	0.11364
1674.07101	0.11760
1672.78524	0.12155
1671.49947	0.12553
1670.21371	0.12955
1668.92794	0.13354
1667.64217	0.13744
1666.35640	0.14122
1665.07063	0.14494
1663.78486	0.14866
1662.49909	0.15238
1661.21332	0.15598
1659.92756	0.15936
1658.64179	0.16245
1657.35602	0.16525
1656.07025	0.16780
1654.78448	0.17013
1653.49871	0.17226
1652.21294	0.17414
1650.92717	0.17576
1649.64140	0.17715
1648.35564	0.17837
1647.06987	0.17949
1645.78410	0.18049
1644.49833	0.18134
1643.21256	0.18204
1641.92679	0.18259
1640.64102	0.18301
1639.35525	0.18331
1638.06949	0.18352
1636.78372	0.18361
1635.49795	0.18354
1634.21218	0.18326
1632.92641	0.18269
1631.64064	0.18175
1630.35487	0.18037
1629.06910	0.17849
1627.78333	0.17615
1626.49757	0.17341
1625.21180	0.17035
1623.92603	0.16698
1622.64026	0.16331
1621.35449	0.15939
1620.06872	0.15529
1618.78295	0.15110
1617.49718	0.14689
1616.21142	0.14274
1614.92565	0.13866
1613.63988	0.13464
1612.35411	0.13065
1611.06834	0.12673
1609.78257	0.12290
1608.49680	0.11924
1607.21103	0.11580
1605.92526	0.11261
1604.63950	0.10967
1603.35373	0.10695
1602.06796	0.10441
1600.78219	0.10207
1599.49642	0.09995
1598.21065	0.09805
1596.92488	0.09636
1595.63911	0.09486
1594.35335	0.09354
1593.06758	0.09242
1591.78181	0.09148
1590.49604	0.09072
1589.21027	0.09015
1587.92450	0.08981
1586.63873	0.08967
1585.35296	0.08970
1584.06719	0.08984
1582.78143	0.09007
1581.49566	0.09042
1580.20989	0.09094
1578.92412	0.09168
1577.63835	0.09265
1576.35258	0.09383
1575.06681	0.09516
1573.78104	0.09663
1572.49528	0.09828
1571.20951	0.10011
1569.92374	0.10210
1568.63797	0.10415
1567.35220	0.10620
1566.06643	0.10828
1564.78066	0.11042
1563.49489	0.11267
1562.20912	0.11503
1560.92336	0.11746
1559.63759	0.11992
1558.35182	0.12233
1557.06605	0.12461
1555.78028	0.12673
1554.49451	0.12873
1553.20874	0.13067
1551.92297	0.13256
1550.63721	0.13439
1549.35144	0.13611
1548.06567	0.13768
1546.77990	0.13908
1545.49413	0.14029
1544.20836	0.14131
1542.92259	0.14214
1541.63682	0.14280
1540.35105	0.14331
1539.06529	0.14366
1537.77952	0.14389
1536.49375	0.14403
1535.20798	0.14410
1533.92221	0.14410
1532.63644	0.14398
1531.35067	0.14371
1530.06490	0.14332
1528.77914	0.14284
1527.49337	0.14230
1526.20760	0.14171
1524.92183	0.14105
1523.63606	0.14032
1522.35029	0.13956
1521.06452	0.13879
1519.77875	0.13802
1518.49298	0.13720
1517.20722	0.13622
1515.92145	0.13497
1514.63568	0.13343
1513.34991	0.13162
1512.06414	0.12965
1510.77837	0.12754
1509.49260	0.12528
1508.20683	0.12284
1506.92107	0.12022
1505.63530	0.11751
1504.34953	0.11477
1503.06376	0.11205
1501.77799	0.10934
1500.49222	0.10665
1499.20645	0.10396
1497.92068	0.10129
1496.63491	0.09863
1495.34915	0.09601
1494.06338	0.09343
1492.77761	0.09093
1491.49184	0.08853
1490.20607	0.08627
1488.92030	0.08419
1487.63453	0.08231
1486.34876	0.08062
1485.06299	0.07915
1483.77723	0.07790
1482.49146	0.07689
1481.20569	0.07612
1479.91992	0.07562
1478.63415	0.07542
1477.34838	0.07550
1476.06261	0.07583
1474.77684	0.07641
1473.49108	0.07717
1472.20531	0.07809
1470.91954	0.07912
1469.63377	0.08022
1468.34800	0.08135
1467.06223	0.08250
1465.77646	0.08362
1464.49069	0.08470
1463.20492	0.08575
1461.91916	0.08680
1460.63339	0.08790
1459.34762	0.08906
1458.06185	0.09027
1456.77608	0.09148
1455.49031	0.09260
1454.20454	0.09355
1452.91877	0.09424
1451.63301	0.09464
1450.34724	0.09479
1449.06147	0.09475
1447.77570	0.09458
1446.48993	0.09430
1445.20416	0.09389
1443.91839	0.09336
1442.63262	0.09272
1441.34685	0.09199
1440.06109	0.09117
1438.77532	0.09025
1437.48955	0.08923
1436.20378	0.08812
1434.91801	0.08699
1433.63224	0.08592
1432.34647	0.08496
1431.06070	0.08413
1429.77494	0.08340
1428.48917	0.08279
1427.20340	0.08228
1425.91763	0.08188
1424.63186	0.08158
1423.34609	0.08136
1422.06032	0.08124
1420.77455	0.08122
1419.48878	0.08129
1418.20302	0.08139
1416.91725	0.08148
1415.63148	0.08156
1414.34571	0.08165
1413.05994	0.08178
1411.77417	0.08194
1410.48840	0.08213
1409.20263	0.08234
1407.91687	0.08253
1406.63110	0.08271
1405.34533	0.08289
1404.05956	0.08307
1402.77379	0.08322
1401.48802	0.08330
1400.20225	0.08331
1398.91648	0.08324
1397.63071	0.08314
1396.34495	0.08304
1395.05918	0.08292
1393.77341	0.08280
1392.48764	0.08268
1391.20187	0.08259
1389.91610	0.08251
1388.63033	0.08241
1387.34456	0.08223
1386.05880	0.08193
1384.77303	0.08155
1383.48726	0.08115
1382.20149	0.08077
1380.91572	0.08042
1379.62995	0.08003
1378.34418	0.07955
1377.05841	0.07895
1375.77264	0.07828
1374.48688	0.07758
1373.20111	0.07688
1371.91534	0.07616
1370.62957	0.07538
1369.34380	0.07451
1368.05803	0.07358
1366.77226	0.07262
1365.48649	0.07170
1364.20073	0.07085
1362.91496	0.07008
1361.62919	0.06939
1360.34342	0.06880
1359.05765	0.06832
1357.77188	0.06799
1356.48611	0.06777
1355.20034	0.06766
1353.91457	0.06765
1352.62881	0.06773
1351.34304	0.06789
1350.05727	0.06811
1348.77150	0.06839
1347.48573	0.06873
1346.19996	0.06916
1344.91419	0.06964
1343.62842	0.07013
1342.34266	0.07060
1341.05689	0.07100
1339.77112	0.07131
1338.48535	0.07151
1337.19958	0.07159
1335.91381	0.07156
1334.62804	0.07144
1333.34227	0.07122
1332.05650	0.07089
1330.77074	0.07048
1329.48497	0.07003
1328.19920	0.06958
1326.91343	0.06915
1325.62766	0.06874
1324.34189	0.06838
1323.05612	0.06809
1321.77035	0.06788
1320.48459	0.06774
1319.19882	0.06767
1317.91305	0.06765
1316.62728	0.06764
1315.34151	0.06760
1314.05574	0.06750
1312.76997	0.06731
1311.48420	0.06707
1310.19843	0.06682
1308.91267	0.06661
1307.62690	0.06642
1306.34113	0.06622
1305.05536	0.06598
1303.76959	0.06572
1302.48382	0.06545
1301.19805	0.06520
1299.91228	0.06496
1298.62652	0.06476
1297.34075	0.06463
1296.05498	0.06459
1294.76921	0.06463
1293.48344	0.06476
1292.19767	0.06499
1290.91190	0.06531
1289.62613	0.06571
1288.34036	0.06614
1287.05460	0.06656
1285.76883	0.06694
1284.48306	0.06729
1283.19729	0.06763
1281.91152	0.06795
1280.62575	0.06826
1279.33998	0.06853
1278.05421	0.06874
1276.76845	0.06889
1275.48268	0.06899
1274.19691	0.06906
1272.91114	0.06914
1271.62537	0.06926
1270.33960	0.06942
1269.05383	0.06965
1267.76806	0.06996
1266.48229	0.07034
1265.19653	0.07078
1263.91076	0.07125
1262.62499	0.07174
1261.33922	0.07223
1260.05345	0.07274
1258.76768	0.07332
1257.48191	0.07396
1256.19614	0.07464
1254.91037	0.07534
1253.62461	0.07602
1252.33884	0.07671
1251.05307	0.07742
1249.76730	0.07816
1248.48153	0.07895
1247.19576	0.07979
1245.90999	0.08065
1244.62422	0.08149
1243.33846	0.08226
1242.05269	0.08296
1240.76692	0.08358
1239.48115	0.08413
1238.19538	0.08459
1236.90961	0.08496
1235.62384	0.08522
1234.33807	0.08532
1233.05230	0.08524
1231.76654	0.08500
1230.48077	0.08464
1229.19500	0.08416
1227.90923	0.08356
1226.62346	0.08279
1225.33769	0.08183
1224.05192	0.08072
1222.76615	0.07953
1221.48039	0.07833
1220.19462	0.07720
1218.90885	0.07616
1217.62308	0.07521
1216.33731	0.07438
1215.05154	0.07366
1213.76577	0.07307
1212.48000	0.07263
1211.19423	0.07234
1209.90847	0.07221
1208.62270	0.07216
1207.33693	0.07214
1206.05116	0.07206
1204.76539	0.07193
1203.47962	0.07175
1202.19385	0.07148
1200.90808	0.07092
1199.62232	0.06996
1198.33655	0.06924
1197.05078	0.06840
1195.76501	0.06750
1194.47924	0.06661
1193.19347	0.06580
1191.90770	0.06507
1190.62193	0.06438
1189.33616	0.06370
1188.05040	0.06303
1186.76463	0.06243
1185.47886	0.06191
1184.19309	0.06148
1182.90732	0.06113
1181.62155	0.06087
1180.33578	0.06071
1179.05001	0.06063
1177.76425	0.06061
1176.47848	0.06065
1175.19271	0.06070
1173.90694	0.06074
1172.62117	0.06075
1171.33540	0.06074
1170.04963	0.06079
1168.76386	0.06091
1167.47809	0.06110
1166.19233	0.06130
1164.90656	0.06145
1163.62079	0.06150
1162.33502	0.06142
1161.04925	0.06127
1159.76348	0.06110
1158.47771	0.06093
1157.19194	0.06072
1155.90618	0.06044
1154.62041	0.06006
1153.33464	0.05961
1152.04887	0.05913
1150.76310	0.05863
1149.47733	0.05817
1148.19156	0.05778
1146.90579	0.05743
1145.62002	0.05705
1144.33426	0.05660
1143.04849	0.05607
1141.76272	0.05554
1140.47695	0.05509
1139.19118	0.05478
1137.90541	0.05463
1136.61964	0.05462
1135.33387	0.05472
1134.04811	0.05487
1132.76234	0.05505
1131.47657	0.05529
1130.19080	0.05563
1128.90503	0.05606
1127.61926	0.05657
1126.33349	0.05712
1125.04772	0.05774
1123.76195	0.05843
1122.47619	0.05914
1121.19042	0.05987
1119.90465	0.06064
1118.61888	0.06148
1117.33311	0.06238
1116.04734	0.06332
1114.76157	0.06427
1113.47580	0.06519
1112.19004	0.06607
1110.90427	0.06691
1109.61850	0.06775
1108.33273	0.06864
1107.04696	0.06958
1105.76119	0.07054
1104.47542	0.07145
1103.18965	0.07223
1101.90388	0.07287
1100.61812	0.07340
1099.33235	0.07391
1098.04658	0.07444
1096.76081	0.07493
1095.47504	0.07532
1094.18927	0.07559
1092.90350	0.07582
1091.61773	0.07609
1090.33197	0.07647
1089.04620	0.07693
1087.76043	0.07748
1086.47466	0.07812
1085.18889	0.07888
1083.90312	0.07978
1082.61735	0.08077
1081.33158	0.08175
1080.04581	0.08260
1078.76005	0.08325
1077.47428	0.08372
1076.18851	0.08414
1074.90274	0.08460
1073.61697	0.08510
1072.33120	0.08555
1071.04543	0.08591
1069.75966	0.08618
1068.47390	0.08641
1067.18813	0.08669
1065.90236	0.08707
1064.61659	0.08754
1063.33082	0.08803
1062.04505	0.08850
1060.75928	0.08893
1059.47351	0.08929
1058.18774	0.08957
1056.90198	0.08981
1055.61621	0.09003
1054.33044	0.09025
1053.04467	0.09044
1051.75890	0.09053
1050.47313	0.09054
1049.18736	0.09055
1047.90159	0.09065
1046.61583	0.09087
1045.33006	0.09119
1044.04429	0.09160
1042.75852	0.09206
1041.47275	0.09256
1040.18698	0.09309
1038.90121	0.09364
1037.61544	0.09425
1036.32967	0.09494
1035.04391	0.09567
1033.75814	0.09635
1032.47237	0.09680
1031.18660	0.09688
1029.90083	0.09649
1028.61506	0.09564
1027.32929	0.09437
1026.04352	0.09278
1024.75775	0.09095
1023.47199	0.08898
1022.18622	0.08698
1020.90045	0.08501
1019.61468	0.08309
1018.32891	0.08119
1017.04314	0.07929
1015.75737	0.07735
1014.47160	0.07542
1013.18584	0.07359
1011.90007	0.07193
1010.61430	0.07045
1009.32853	0.06907
1008.04276	0.06769
1006.75699	0.06631
1005.47122	0.06496
1004.18545	0.06370
1002.89968	0.06254
1001.61392	0.06146
1000.32815	0.06042
999.04238	0.05936
997.75661	0.05831
996.47084	0.05730
995.18507	0.05638
993.89930	0.05554
992.61353	0.05478
991.32777	0.05411
990.04200	0.05351
988.75623	0.05293
987.47046	0.05235
986.18469	0.05175
984.89892	0.05117
983.61315	0.05064
982.32738	0.05021
981.04161	0.04985
979.75585	0.04954
978.47008	0.04924
977.18431	0.04896
975.89854	0.04869
974.61277	0.04846
973.32700	0.04828
972.04123	0.04816
970.75546	0.04810
969.46970	0.04806
968.18393	0.04799
966.89816	0.04783
965.61239	0.04753
964.32662	0.04705
963.04085	0.04643
961.75508	0.04581
960.46931	0.04525
959.18354	0.04479
957.89778	0.04436
956.61201	0.04391
955.32624	0.04347
954.04047	0.04308
952.75470	0.04278
951.46893	0.04255
950.18316	0.04235
948.89739	0.04213
947.61163	0.04189
946.32586	0.04165
945.04009	0.04142
943.75432	0.04120
942.46855	0.04101
941.18278	0.04089
939.89701	0.04085
938.61124	0.04084
937.32547	0.04080
936.03971	0.04068
934.75394	0.04049
933.46817	0.04024
932.18240	0.03995
930.89663	0.03969
929.61086	0.03949
928.32509	0.03935
927.03932	0.03924
925.75356	0.03917
924.46779	0.03917
923.18202	0.03922
921.89625	0.03922
920.61048	0.03909
919.32471	0.03880
918.03894	0.03846
916.75317	0.03815
915.46740	0.03791
914.18164	0.03773
912.89587	0.03756
911.61010	0.03736
910.32433	0.03711
909.03856	0.03682
907.75279	0.03655
906.46702	0.03637
905.18125	0.03630
903.89549	0.03630
902.60972	0.03628
901.32395	0.03619
900.03818	0.03603
898.75241	0.03586
897.46664	0.03571
896.18087	0.03558
894.89510	0.03549
893.60933	0.03546
892.32357	0.03548
891.03780	0.03551
889.75203	0.03547
888.46626	0.03534
887.18049	0.03513
885.89472	0.03493
884.60895	0.03482
883.32318	0.03480
882.03742	0.03486
880.75165	0.03502
879.46588	0.03528
878.18011	0.03556
876.89434	0.03568
875.60857	0.03557
874.32280	0.03530
873.03703	0.03504
871.75126	0.03486
870.46550	0.03474
869.17973	0.03461
867.89396	0.03448
866.60819	0.03440
865.32242	0.03442
864.03665	0.03449
862.75088	0.03449
861.46511	0.03444
860.17935	0.03441
858.89358	0.03444
857.60781	0.03448
856.32204	0.03450
855.03627	0.03451
853.75050	0.03456
852.46473	0.03464
851.17896	0.03471
849.89319	0.03470
848.60743	0.03460
847.32166	0.03440
846.03589	0.03418
844.75012	0.03402
843.46435	0.03396
842.17858	0.03398
840.89281	0.03398
839.60704	0.03395
838.32128	0.03391
837.03551	0.03394
835.74974	0.03402
834.46397	0.03411
833.17820	0.03419
831.89243	0.03425
830.60666	0.03432
829.32089	0.03436
828.03512	0.03434
826.74936	0.03432
825.46359	0.03440
824.17782	0.03462
822.89205	0.03493
821.60628	0.03520
820.32051	0.03535
819.03474	0.03541
817.74897	0.03545
816.46321	0.03553
815.17744	0.03563
813.89167	0.03575
812.60590	0.03586
811.32013	0.03595
810.03436	0.03601
808.74859	0.03602
807.46282	0.03604
806.17705	0.03614
804.89129	0.03631
803.60552	0.03649
802.31975	0.03662
801.03398	0.03674
799.74821	0.03685
798.46244	0.03697
797.17667	0.03706
795.89090	0.03714
794.60513	0.03722
793.31937	0.03735
792.03360	0.03753
790.74783	0.03773
789.46206	0.03792
788.17629	0.03810
786.89052	0.03831
785.60475	0.03853
784.31898	0.03875
783.03322	0.03895
781.74745	0.03914
780.46168	0.03932
779.17591	0.03948
777.89014	0.03958
776.60437	0.03963
775.31860	0.03969
774.03283	0.03980
772.74706	0.03996
771.46130	0.04014
770.17553	0.04033
768.88976	0.04055
767.60399	0.04082
766.31822	0.04112
765.03245	0.04136
763.74668	0.04150
762.46091	0.04161
761.17515	0.04179
759.88938	0.04206
758.60361	0.04233
757.31784	0.04253
756.03207	0.04266
754.74630	0.04277
753.46053	0.04288
752.17476	0.04305
750.88899	0.04329
749.60323	0.04361
748.31746	0.04398
747.03169	0.04431
745.74592	0.04457
744.46015	0.04482
743.17438	0.04509
741.88861	0.04535
740.60284	0.04553
739.31708	0.04561
738.03131	0.04565
736.74554	0.04572
735.45977	0.04583
734.17400	0.04596
732.88823	0.04614
731.60246	0.04634
730.31669	0.04657
729.03092	0.04680
727.74516	0.04703
726.45939	0.04727
725.17362	0.04752
723.88785	0.04772
722.60208	0.04811
721.31631	0.04857
720.03054	0.04895
718.74477	0.04922
717.45901	0.04944
716.17324	0.04963
714.88747	0.04980
713.60170	0.04992
712.31593	0.05004
711.03016	0.05020
709.74439	0.05042
708.45862	0.05069
707.17285	0.05099
705.88709	0.05127
704.60132	0.05150
703.31555	0.05170
702.02978	0.05192
700.74401	0.05219
699.45824	0.05247
698.17247	0.05272
696.88670	0.05290
695.60094	0.05298
694.31517	0.05300
693.02940	0.05299
691.74363	0.05296
690.45786	0.05296
689.17209	0.05298
687.88632	0.05306
686.60055	0.05317
685.31478	0.05331
684.02902	0.05348
682.74325	0.05362
681.45748	0.05379
680.17171	0.05398
678.88594	0.05415
677.60017	0.05429
676.31440	0.05437
675.02863	0.05448
673.74287	0.05463
672.45710	0.05481
671.17133	0.05498
669.88556	0.05515
668.59979	0.05529
667.31402	0.05544
666.02825	0.05564
664.74248	0.05585
663.45671	0.05604
662.17095	0.05617
660.88518	0.05622
659.59941	0.05621
658.31364	0.05621
657.02787	0.05628
655.74210	0.05644
654.45633	0.05659
653.17056	0.05667
651.88480	0.05666
650.59903	0.05661
649.31326	0.05658
648.02749	0.05662
646.74172	0.05671
645.45595	0.05677
644.17018	0.05673
642.88441	0.05657
641.59864	0.05634
640.31288	0.05615
639.02711	0.05606
637.74134	0.05608
636.45557	0.05621
635.16980	0.05641
633.88403	0.05659
632.59826	0.05662
631.31249	0.05683
630.02673	0.05887
628.74096	0.06197
627.45519	0.05971
626.16942	0.06325
624.88365	0.07074
623.59788	0.07760
622.31211	0.08167
621.02634	0.08194
619.74057	0.07874
618.45481	0.07351
617.16904	0.06787
615.88327	0.06289
614.59750	0.05937
613.31173	0.05834
612.02596	0.06069
610.74019	0.06604
609.45442	0.07228
608.16866	0.07704
606.88289	0.07939
605.59712	0.07974
604.31135	0.07880
603.02558	0.07715
601.73981	0.07526
600.45404	0.07340
599.16827	0.07164
597.88250	0.06995
596.59674	0.06839
595.31097	0.06712
594.02520	0.06623
592.73943	0.06567
591.45366	0.06528
590.16789	0.06497
588.88212	0.06479
587.59635	0.06483
586.31059	0.06506
585.02482	0.06541
583.73905	0.06584
582.45328	0.06640
581.16751	0.06707
579.88174	0.06771
578.59597	0.06815
577.31020	0.06836
576.02443	0.06849
574.73867	0.06876
573.45290	0.06931
572.16713	0.07014
570.88136	0.07117
569.59559	0.07226
568.30982	0.07324
567.02405	0.07394
565.73828	0.07428
564.45251	0.07427
563.16675	0.07399
561.88098	0.07350
560.59521	0.07286
559.30944	0.07212
558.02367	0.07129
556.73790	0.07041
555.45213	0.06949
554.16636	0.06861
552.88060	0.06781
551.59483	0.06711
550.30906	0.06653
549.02329	0.06604
547.73752	0.06563
546.45175	0.06526
545.16598	0.06496
543.88021	0.06470
542.59444	0.06443
541.30868	0.06408
540.02291	0.06366
538.73714	0.06325
537.45137	0.06287
536.16560	0.06248
534.87983	0.06212
533.59406	0.06185
532.30829	0.06174
531.02253	0.06174
529.73676	0.06173
528.45099	0.06165
527.16522	0.06155
525.87945	0.06149
524.59368	0.06142
523.30791	0.06124
522.02214	0.06086
520.73637	0.06041
519.45061	0.06004
518.16484	0.05982
516.87907	0.05969
515.59330	0.05955
514.30753	0.05932
513.02176	0.05900
511.73599	0.05861
510.45022	0.05823
509.16446	0.05789
507.87869	0.05754
506.59292	0.05712
505.30715	0.05662
504.02138	0.05610
502.73561	0.05563
501.44984	0.05529
500.16407	0.05505
498.87830	0.05483
497.59254	0.05453
496.30677	0.05418
495.02100	0.05386
493.73523	0.05365
492.44946	0.05354
491.16369	0.05344
489.87792	0.05330
488.59215	0.05309
487.30639	0.05286
486.02062	0.05263
484.73485	0.05242
483.44908	0.05219
482.16331	0.05192
480.87754	0.05159
479.59177	0.05120
478.30600	0.05079
477.02023	0.05042
475.73447	0.05020
474.44870	0.05013
473.16293	0.05017
471.87716	0.05022
470.59139	0.05021
469.30562	0.05013
468.01985	0.04997
466.73408	0.04976
465.44832	0.04951
464.16255	0.04920
462.87678	0.04885
461.59101	0.04850
460.30524	0.04821
459.01947	0.04800
457.73370	0.04780
456.44793	0.04753
455.16216	0.04714
453.87640	0.04669
452.59063	0.04623
451.30486	0.04580
450.01909	0.04541
448.73332	0.04506
447.44755	0.04473
446.16178	0.04442
444.87601	0.04415
443.59025	0.04390
442.30448	0.04367
441.01871	0.04347
439.73294	0.04327
438.44717	0.04310
437.16140	0.04296
435.87563	0.04287
434.58986	0.04281
433.30409	0.04275
432.01833	0.04262
430.73256	0.04242
429.44679	0.04218
428.16102	0.04194
426.87525	0.04174
425.58948	0.04157
424.30371	0.04140
423.01794	0.04121
421.73218	0.04098
420.44641	0.04072
419.16064	0.04048
417.87487	0.04026
416.58910	0.04007
415.30333	0.03989
414.01756	0.03971
412.73179	0.03955
411.44602	0.03941
410.16026	0.03926
408.87449	0.03909
407.58872	0.03888
406.30295	0.03866
405.01718	0.03847
403.73141	0.03831
402.44564	0.03814
401.15987	0.03792
399.87411	0.03768
