3997.45528	0.04430
3996.16951	0.04456
3994.88374	0.04477
3993.59798	0.04481
3992.31221	0.04464
3991.02644	0.04439
3989.74067	0.04421
3988.45490	0.04417
3987.16913	0.04426
3985.88336	0.04447
3984.59759	0.04477
3983.31183	0.04508
3982.02606	0.04525
3980.74029	0.04512
3979.45452	0.04470
3978.16875	0.04409
3976.88298	0.04343
3975.59721	0.04292
3974.31144	0.04275
3973.02567	0.04299
3971.73991	0.04352
3970.45414	0.04408
3969.16837	0.04446
3967.88260	0.04465
3966.59683	0.04477
3965.31106	0.04485
3964.02529	0.04488
3962.73952	0.04492
3961.45376	0.04516
3960.16799	0.04567
3958.88222	0.04621
3957.59645	0.04640
3956.31068	0.04608
3955.02491	0.04545
3953.73914	0.04487
3952.45337	0.04457
3951.16760	0.04464
3949.88184	0.04503
3948.59607	0.04549
3947.31030	0.04573
3946.02453	0.04560
3944.73876	0.04516
3943.45299	0.04463
3942.16722	0.04429
3940.88145	0.04425
3939.59569	0.04439
3938.30992	0.04443
3937.02415	0.04421
3935.73838	0.04381
3934.45261	0.04340
3933.16684	0.04307
3931.88107	0.04280
3930.59530	0.04257
3929.30953	0.04236
3928.02377	0.04224
3926.73800	0.04232
3925.45223	0.04259
3924.16646	0.04285
3922.88069	0.04280
3921.59492	0.04231
3920.30915	0.04159
3919.02338	0.04101
3917.73762	0.04091
3916.45185	0.04129
3915.16608	0.04186
3913.88031	0.04224
3912.59454	0.04232
3911.30877	0.04232
3910.02300	0.04250
3908.73723	0.04285
3907.45146	0.04307
3906.16570	0.04287
3904.87993	0.04223
3903.59416	0.04144
3902.30839	0.04087
3901.02262	0.04075
3899.73685	0.04104
3898.45108	0.04147
3897.16531	0.04184
3895.87955	0.04217
3894.59378	0.04260
3893.30801	0.04314
3892.02224	0.04356
3890.73647	0.04357
3889.45070	0.04318
3888.16493	0.04270
3886.87916	0.04243
3885.59339	0.04242
3884.30763	0.04251
3883.02186	0.04251
3881.73609	0.04239
3880.45032	0.04223
3879.16455	0.04207
3877.87878	0.04183
3876.59301	0.04147
3875.30724	0.04109
3874.02148	0.04086
3872.73571	0.04080
3871.44994	0.04081
3870.16417	0.04076
3868.87840	0.04065
3867.59263	0.04058
3866.30686	0.04062
3865.02109	0.04074
3863.73532	0.04088
3862.44956	0.04100
3861.16379	0.04111
3859.87802	0.04112
3858.59225	0.04083
3857.30648	0.04023
3856.02071	0.03963
3854.73494	0.03944
3853.44917	0.03981
3852.16341	0.04046
3850.87764	0.04094
3849.59187	0.04101
3848.30610	0.04072
3847.02033	0.04023
3845.73456	0.03971
3844.44879	0.03936
3843.16302	0.03934
3841.87725	0.03978
3840.59149	0.04064
3839.30572	0.04163
3838.01995	0.04226
3836.73418	0.04216
3835.44841	0.04134
3834.16264	0.04026
3832.87687	0.03948
3831.59110	0.03925
3830.30534	0.03940
3829.01957	0.03965
3827.73380	0.03984
3826.44803	0.03999
3825.16226	0.04017
3823.87649	0.04032
3822.59072	0.04034
3821.30495	0.04025
3820.01918	0.04025
3818.73342	0.04057
3817.44765	0.04114
3816.16188	0.04160
3814.87611	0.04161
3813.59034	0.04123
3812.30457	0.04076
3811.01880	0.04051
3809.73303	0.04053
3808.44726	0.04077
3807.16150	0.04117
3805.87573	0.04161
3804.58996	0.04184
3803.30419	0.04163
3802.01842	0.04096
3800.73265	0.04013
3799.44688	0.03953
3798.16111	0.03941
3796.87535	0.03970
3795.58958	0.04011
3794.30381	0.04029
3793.01804	0.04005
3791.73227	0.03955
3790.44650	0.03920
3789.16073	0.03930
3787.87496	0.03978
3786.58919	0.04026
3785.30343	0.04043
3784.01766	0.04032
3782.73189	0.04016
3781.44612	0.04006
3780.16035	0.03989
3778.87458	0.03960
3777.58881	0.03932
3776.30304	0.03929
3775.01728	0.03952
3773.73151	0.03975
3772.44574	0.03971
3771.15997	0.03930
3769.87420	0.03860
3768.58843	0.03789
3767.30266	0.03745
3766.01689	0.03734
3764.73112	0.03738
3763.44536	0.03735
3762.15959	0.03724
3760.87382	0.03722
3759.58805	0.03735
3758.30228	0.03744
3757.01651	0.03734
3755.73074	0.03712
3754.44497	0.03702
3753.15921	0.03717
3751.87344	0.03744
3750.58767	0.03760
3749.30190	0.03753
3748.01613	0.03731
3746.73036	0.03717
3745.44459	0.03731
3744.15882	0.03770
3742.87305	0.03802
3741.58729	0.03802
3740.30152	0.03776
3739.01575	0.03753
3737.72998	0.03752
3736.44421	0.03764
3735.15844	0.03767
3733.87267	0.03746
3732.58690	0.03707
3731.30114	0.03673
3730.01537	0.03663
3728.72960	0.03686
3727.44383	0.03728
3726.15806	0.03754
3724.87229	0.03744
3723.58652	0.03704
3722.30075	0.03670
3721.01498	0.03665
3719.72922	0.03680
3718.44345	0.03690
3717.15768	0.03694
3715.87191	0.03701
3714.58614	0.03713
3713.30037	0.03715
3712.01460	0.03694
3710.72883	0.03658
3709.44307	0.03632
3708.15730	0.03640
3706.87153	0.03684
3705.58576	0.03745
3704.29999	0.03775
3703.01422	0.03756
3701.72845	0.03706
3700.44268	0.03662
3699.15691	0.03633
3697.87115	0.03611
3696.58538	0.03588
3695.29961	0.03553
3694.01384	0.03518
3692.72807	0.03502
3691.44230	0.03505
3690.15653	0.03511
3688.87076	0.03526
3687.58500	0.03568
3686.29923	0.03635
3685.01346	0.03705
3683.72769	0.03745
3682.44192	0.03729
3681.15615	0.03669
3679.87038	0.03610
3678.58461	0.03595
3677.29884	0.03640
3676.01308	0.03720
3674.72731	0.03781
3673.44154	0.03782
3672.15577	0.03720
3670.87000	0.03646
3669.58423	0.03606
3668.29846	0.03607
3667.01269	0.03622
3665.72693	0.03626
3664.44116	0.03615
3663.15539	0.03594
3661.86962	0.03572
3660.58385	0.03567
3659.29808	0.03590
3658.01231	0.03626
3656.72654	0.03660
3655.44077	0.03687
3654.15501	0.03712
3652.86924	0.03726
3651.58347	0.03714
3650.29770	0.03678
3649.01193	0.03633
3647.72616	0.03599
3646.44039	0.03593
3645.15462	0.03626
3643.86886	0.03689
3642.58309	0.03755
3641.29732	0.03802
3640.01155	0.03837
3638.72578	0.03876
3637.44001	0.03917
3636.15424	0.03942
3634.86847	0.03939
3633.58270	0.03908
3632.29694	0.03861
3631.01117	0.03821
3629.72540	0.03812
3628.43963	0.03838
3627.15386	0.03870
3625.86809	0.03867
3624.58232	0.03826
3623.29655	0.03779
3622.01079	0.03766
3620.72502	0.03803
3619.43925	0.03878
3618.15348	0.03967
3616.86771	0.04053
3615.58194	0.04132
3614.29617	0.04200
3613.01040	0.04253
3611.72463	0.04287
3610.43887	0.04314
3609.15310	0.04352
3607.86733	0.04409
3606.58156	0.04467
3605.29579	0.04498
3604.01002	0.04489
3602.72425	0.04465
3601.43848	0.04470
3600.15272	0.04524
3598.86695	0.04592
3597.58118	0.04643
3596.29541	0.04677
3595.00964	0.04718
3593.72387	0.04765
3592.43810	0.04807
3591.15233	0.04833
3589.86656	0.04825
3588.58080	0.04786
3587.29503	0.04739
3586.00926	0.04721
3584.72349	0.04744
3583.43772	0.04787
3582.15195	0.04821
3580.86618	0.04832
3579.58041	0.04838
3578.29464	0.04862
3577.00888	0.04901
3575.72311	0.04940
3574.43734	0.04969
3573.15157	0.04990
3571.86580	0.05014
3570.58003	0.05054
3569.29426	0.05109
3568.00849	0.05169
3566.72273	0.05214
3565.43696	0.05232
3564.15119	0.05226
3562.86542	0.05218
3561.57965	0.05233
3560.29388	0.05280
3559.00811	0.05343
3557.72234	0.05403
3556.43657	0.05455
3555.15081	0.05499
3553.86504	0.05528
3552.57927	0.05530
3551.29350	0.05511
3550.00773	0.05488
3548.72196	0.05475
3547.43619	0.05479
3546.15042	0.05507
3544.86466	0.05566
3543.57889	0.05648
3542.29312	0.05726
3541.00735	0.05779
3539.72158	0.05799
3538.43581	0.05800
3537.15004	0.05803
3535.86427	0.05826
3534.57850	0.05879
3533.29274	0.05960
3532.00697	0.06053
3530.72120	0.06135
3529.43543	0.06180
3528.14966	0.06178
3526.86389	0.06148
3525.57812	0.06135
3524.29235	0.06172
3523.00659	0.06245
3521.72082	0.06307
3520.43505	0.06329
3519.14928	0.06324
3517.86351	0.06319
3516.57774	0.06334
3515.29197	0.06369
3514.00620	0.06416
3512.72043	0.06457
3511.43467	0.06469
3510.14890	0.06452
3508.86313	0.06435
3507.57736	0.06453
3506.29159	0.06510
3505.00582	0.06579
3503.72005	0.06629
3502.43428	0.06647
3501.14852	0.06648
3499.86275	0.06652
3498.57698	0.06664
3497.29121	0.06676
3496.00544	0.06685
3494.71967	0.06698
3493.43390	0.06721
3492.14813	0.06752
3490.86236	0.06786
3489.57660	0.06821
3488.29083	0.06858
3487.00506	0.06904
3485.71929	0.06959
3484.43352	0.07016
3483.14775	0.07060
3481.86198	0.07085
3480.57621	0.07099
3479.29045	0.07112
3478.00468	0.07133
3476.71891	0.07156
3475.43314	0.07174
3474.14737	0.07183
3472.86160	0.07183
3471.57583	0.07175
3470.29006	0.07158
3469.00429	0.07134
3467.71853	0.07111
3466.43276	0.07105
3465.14699	0.07129
3463.86122	0.07182
3462.57545	0.07249
3461.28968	0.07312
3460.00391	0.07370
3458.71814	0.07430
3457.43238	0.07484
3456.14661	0.07516
3454.86084	0.07516
3453.57507	0.07494
3452.28930	0.07464
3451.00353	0.07437
3449.71776	0.07418
3448.43199	0.07413
3447.14622	0.07431
3445.86046	0.07477
3444.57469	0.07542
3443.28892	0.07613
3442.00315	0.07676
3440.71738	0.07725
3439.43161	0.07761
3438.14584	0.07788
3436.86007	0.07807
3435.57431	0.07816
3434.28854	0.07819
3433.00277	0.07825
3431.71700	0.07840
3430.43123	0.07866
3429.14546	0.07905
3427.85969	0.07962
3426.57392	0.08028
3425.28815	0.08084
3424.00239	0.08106
3422.71662	0.08104
3421.43085	0.08111
3420.14508	0.08156
3418.85931	0.08225
3417.57354	0.08280
3416.28777	0.08300
3415.00200	0.08292
3413.71624	0.08272
3412.43047	0.08262
3411.14470	0.08278
3409.85893	0.08329
3408.57316	0.08394
3407.28739	0.08442
3406.00162	0.08465
3404.71585	0.08477
3403.43008	0.08496
3402.14432	0.08522
3400.85855	0.08548
3399.57278	0.08574
3398.28701	0.08601
3397.00124	0.08632
3395.71547	0.08666
3394.42970	0.08708
3393.14393	0.08764
3391.85817	0.08829
3390.57240	0.08885
3389.28663	0.08915
3388.00086	0.08916
3386.71509	0.08903
3385.42932	0.08896
3384.14355	0.08916
3382.85778	0.08965
3381.57201	0.09026
3380.28625	0.09076
3379.00048	0.09104
3377.71471	0.09117
3376.42894	0.09133
3375.14317	0.09163
3373.85740	0.09204
3372.57163	0.09245
3371.28586	0.09272
3370.00010	0.09282
3368.71433	0.09281
3367.42856	0.09286
3366.14279	0.09311
3364.85702	0.09365
3363.57125	0.09438
3362.28548	0.09513
3360.99971	0.09576
3359.71394	0.09622
3358.42818	0.09659
3357.14241	0.09696
3355.85664	0.09744
3354.57087	0.09808
3353.28510	0.09882
3351.99933	0.09955
3350.71356	0.10016
3349.42779	0.10066
3348.14202	0.10114
3346.85626	0.10166
3345.57049	0.10220
3344.28472	0.10265
3342.99895	0.10296
3341.71318	0.10321
3340.42741	0.10354
3339.14164	0.10402
3337.85587	0.10458
3336.57011	0.10502
3335.28434	0.10524
3333.99857	0.10534
3332.71280	0.10555
3331.42703	0.10596
3330.14126	0.10647
3328.85549	0.10693
3327.56972	0.10722
3326.28395	0.10740
3324.99819	0.10758
3323.71242	0.10790
3322.42665	0.10844
3321.14088	0.10911
3319.85511	0.10974
3318.56934	0.11020
3317.28357	0.11049
3315.99780	0.11062
3314.71204	0.11060
3313.42627	0.11053
3312.14050	0.11066
3310.85473	0.11117
3309.56896	0.11196
3308.28319	0.11274
3306.99742	0.11321
3305.71165	0.11330
3304.42588	0.11316
3303.14012	0.11305
3301.85435	0.11317
3300.56858	0.11351
3299.28281	0.11397
3297.99704	0.11443
3296.71127	0.11475
3295.42550	0.11480
3294.13973	0.11451
3292.85397	0.11407
3291.56820	0.11379
3290.28243	0.11381
3288.99666	0.11390
3287.71089	0.11377
3286.42512	0.11337
3285.13935	0.11299
3283.85358	0.11298
3282.56781	0.11341
3281.28205	0.11401
3279.99628	0.11443
3278.71051	0.11456
3277.42474	0.11450
3276.13897	0.11437
3274.85320	0.11418
3273.56743	0.11389
3272.28166	0.11358
3270.99590	0.11339
3269.71013	0.11333
3268.42436	0.11338
3267.13859	0.11351
3265.85282	0.11372
3264.56705	0.11385
3263.28128	0.11368
3261.99551	0.11312
3260.70974	0.11235
3259.42398	0.11165
3258.13821	0.11111
3256.85244	0.11070
3255.56667	0.11041
3254.28090	0.11036
3252.99513	0.11056
3251.70936	0.11078
3250.42359	0.11074
3249.13783	0.11038
3247.85206	0.10987
3246.56629	0.10937
3245.28052	0.10886
3243.99475	0.10825
3242.70898	0.10759
3241.42321	0.10709
3240.13744	0.10690
3238.85167	0.10689
3237.56591	0.10683
3236.28014	0.10654
3234.99437	0.10597
3233.70860	0.10522
3232.42283	0.10450
3231.13706	0.10404
3229.85129	0.10392
3228.56552	0.10400
3227.27976	0.10409
3225.99399	0.10411
3224.70822	0.10407
3223.42245	0.10397
3222.13668	0.10374
3220.85091	0.10344
3219.56514	0.10323
3218.27937	0.10327
3216.99360	0.10353
3215.70784	0.10383
3214.42207	0.10395
3213.13630	0.10376
3211.85053	0.10332
3210.56476	0.10278
3209.27899	0.10223
3207.99322	0.10167
3206.70745	0.10110
3205.42169	0.10061
3204.13592	0.10028
3202.85015	0.10009
3201.56438	0.09993
3200.27861	0.09977
3198.99284	0.09963
3197.70707	0.09951
3196.42130	0.09934
3195.13553	0.09905
3193.84977	0.09861
3192.56400	0.09808
3191.27823	0.09759
3189.99246	0.09725
3188.70669	0.09708
3187.42092	0.09692
3186.13515	0.09662
3184.84938	0.09610
3183.56362	0.09546
3182.27785	0.09487
3180.99208	0.09445
3179.70631	0.09424
3178.42054	0.09409
3177.13477	0.09381
3175.84900	0.09330
3174.56323	0.09261
3173.27746	0.09198
3171.99170	0.09157
3170.70593	0.09147
3169.42016	0.09165
3168.13439	0.09197
3166.84862	0.09226
3165.56285	0.09229
3164.27708	0.09195
3162.99131	0.09134
3161.70555	0.09069
3160.41978	0.09020
3159.13401	0.08994
3157.84824	0.08978
3156.56247	0.08959
3155.27670	0.08932
3153.99093	0.08896
3152.70516	0.08853
3151.41939	0.08799
3150.13363	0.08739
3148.84786	0.08682
3147.56209	0.08641
3146.27632	0.08614
3144.99055	0.08586
3143.70478	0.08546
3142.41901	0.08501
3141.13324	0.08469
3139.84748	0.08457
3138.56171	0.08446
3137.27594	0.08410
3135.99017	0.08339
3134.70440	0.08254
3133.41863	0.08194
3132.13286	0.08179
3130.84709	0.08196
3129.56132	0.08217
3128.27556	0.08226
3126.98979	0.08228
3125.70402	0.08229
3124.41825	0.08226
3123.13248	0.08214
3121.84671	0.08193
3120.56094	0.08167
3119.27517	0.08141
3117.98940	0.08122
3116.70364	0.08114
3115.41787	0.08119
3114.13210	0.08132
3112.84633	0.08142
3111.56056	0.08146
3110.27479	0.08150
3108.98902	0.08161
3107.70325	0.08180
3106.41749	0.08201
3105.13172	0.08216
3103.84595	0.08219
3102.56018	0.08208
3101.27441	0.08189
3099.98864	0.08175
3098.70287	0.08176
3097.41710	0.08193
3096.13133	0.08214
3094.84557	0.08226
3093.55980	0.08233
3092.27403	0.08246
3090.98826	0.08268
3089.70249	0.08295
3088.41672	0.08319
3087.13095	0.08335
3085.84518	0.08345
3084.55942	0.08348
3083.27365	0.08351
3081.98788	0.08358
3080.70211	0.08362
3079.41634	0.08357
3078.13057	0.08344
3076.84480	0.08333
3075.55903	0.08333
3074.27326	0.08336
3072.98750	0.08333
3071.70173	0.08329
3070.41596	0.08331
3069.13019	0.08332
3067.84442	0.08315
3066.55865	0.08283
3065.27288	0.08260
3063.98711	0.08268
3062.70135	0.08302
3061.41558	0.08335
3060.12981	0.08344
3058.84404	0.08326
3057.55827	0.08294
3056.27250	0.08263
3054.98673	0.08239
3053.70096	0.08218
3052.41519	0.08185
3051.12943	0.08137
3049.84366	0.08083
3048.55789	0.08038
3047.27212	0.07998
3045.98635	0.07955
3044.70058	0.07907
3043.41481	0.07866
3042.12904	0.07845
3040.84328	0.07839
3039.55751	0.07829
3038.27174	0.07802
3036.98597	0.07756
3035.70020	0.07706
3034.41443	0.07670
3033.12866	0.07661
3031.84289	0.07670
3030.55712	0.07674
3029.27136	0.07647
3027.98559	0.07594
3026.69982	0.07535
3025.41405	0.07491
3024.12828	0.07458
3022.84251	0.07431
3021.55674	0.07410
3020.27097	0.07399
3018.98521	0.07390
3017.69944	0.07370
3016.41367	0.07338
3015.12790	0.07304
3013.84213	0.07278
3012.55636	0.07259
3011.27059	0.07238
3009.98482	0.07217
3008.69905	0.07200
3007.41329	0.07195
3006.12752	0.07202
3004.84175	0.07209
3003.55598	0.07204
3002.27021	0.07184
3000.98444	0.07155
2999.69867	0.07131
2998.41290	0.07127
2997.12714	0.07137
2995.84137	0.07162
2994.55560	0.07204
2993.26983	0.07251
2991.98406	0.07282
2990.69829	0.07288
2989.41252	0.07287
2988.12675	0.07302
2986.84098	0.07338
2985.55522	0.07386
2984.26945	0.07433
2982.98368	0.07470
2981.69791	0.07495
2980.41214	0.07514
2979.12637	0.07541
2977.84060	0.07585
2976.55483	0.07642
2975.26907	0.07700
2973.98330	0.07748
2972.69753	0.07781
2971.41176	0.07803
2970.12599	0.07823
2968.84022	0.07847
2967.55445	0.07868
2966.26868	0.07877
2964.98291	0.07881
2963.69715	0.07892
2962.41138	0.07919
2961.12561	0.07952
2959.83984	0.07985
2958.55407	0.08021
2957.26830	0.08064
2955.98253	0.08102
2954.69676	0.08113
2953.41100	0.08085
2952.12523	0.08034
2950.83946	0.07992
2949.55369	0.07982
2948.26792	0.08000
2946.98215	0.08022
2945.69638	0.08033
2944.41061	0.08034
2943.12484	0.08046
2941.83908	0.08078
2940.55331	0.08123
2939.26754	0.08164
2937.98177	0.08196
2936.69600	0.08227
2935.41023	0.08257
2934.12446	0.08279
2932.83869	0.08283
2931.55293	0.08275
2930.26716	0.08271
2928.98139	0.08282
2927.69562	0.08299
2926.40985	0.08302
2925.12408	0.08281
2923.83831	0.08245
2922.55254	0.08210
2921.26677	0.08179
2919.98101	0.08145
2918.69524	0.08106
2917.40947	0.08065
2916.12370	0.08017
2914.83793	0.07954
2913.55216	0.07882
2912.26639	0.07819
2910.98062	0.07772
2909.69486	0.07734
2908.40909	0.07693
2907.12332	0.07647
2905.83755	0.07603
2904.55178	0.07566
2903.26601	0.07532
2901.98024	0.07495
2900.69447	0.07452
2899.40870	0.07408
2898.12294	0.07368
2896.83717	0.07332
2895.55140	0.07293
2894.26563	0.07257
2892.97986	0.07234
2891.69409	0.07238
2890.40832	0.07262
2889.12255	0.07287
2887.83678	0.07295
2886.55102	0.07280
2885.26525	0.07248
2883.97948	0.07214
2882.69371	0.07192
2881.40794	0.07194
2880.12217	0.07219
2878.83640	0.07256
2877.55063	0.07287
2876.26487	0.07303
2874.97910	0.07302
2873.69333	0.07288
2872.40756	0.07267
2871.12179	0.07244
2869.83602	0.07220
2868.55025	0.07197
2867.26448	0.07170
2865.97871	0.07136
2864.69295	0.07096
2863.40718	0.07049
2862.12141	0.06999
2860.83564	0.06950
2859.54987	0.06910
2858.26410	0.06881
2856.97833	0.06864
2855.69256	0.06854
2854.40680	0.06853
2853.12103	0.06865
2851.83526	0.06884
2850.54949	0.06888
2849.26372	0.06863
2847.97795	0.06819
2846.69218	0.06773
2845.40641	0.06732
2844.12064	0.06688
2842.83488	0.06639
2841.54911	0.06593
2840.26334	0.06557
2838.97757	0.06525
2837.69180	0.06488
2836.40603	0.06440
2835.12026	0.06391
2833.83449	0.06353
2832.54873	0.06325
2831.26296	0.06290
2829.97719	0.06238
2828.69142	0.06179
2827.40565	0.06130
2826.11988	0.06108
2824.83411	0.06112
2823.54834	0.06131
2822.26257	0.06146
2820.97681	0.06149
2819.69104	0.06135
2818.40527	0.06109
2817.11950	0.06075
2815.83373	0.06041
2814.54796	0.06017
2813.26219	0.06005
2811.97642	0.06001
2810.69066	0.05999
2809.40489	0.05991
2808.11912	0.05973
2806.83335	0.05951
2805.54758	0.05941
2804.26181	0.05954
2802.97604	0.05977
2801.69027	0.05994
2800.40450	0.05993
2799.11874	0.05973
2797.83297	0.05938
2796.54720	0.05897
2795.26143	0.05862
2793.97566	0.05840
2792.68989	0.05831
2791.40412	0.05831
2790.11835	0.05830
2788.83259	0.05825
2787.54682	0.05814
2786.26105	0.05798
2784.97528	0.05784
2783.68951	0.05774
2782.40374	0.05764
2781.11797	0.05739
2779.83220	0.05696
2778.54643	0.05649
2777.26067	0.05621
2775.97490	0.05622
2774.68913	0.05637
2773.40336	0.05649
2772.11759	0.05649
2770.83182	0.05643
2769.54605	0.05641
2768.26028	0.05649
2766.97452	0.05655
2765.68875	0.05644
2764.40298	0.05606
2763.11721	0.05553
2761.83144	0.05508
2760.54567	0.05490
2759.25990	0.05495
2757.97413	0.05510
2756.68836	0.05514
2755.40260	0.05500
2754.11683	0.05473
2752.83106	0.05451
2751.54529	0.05448
2750.25952	0.05459
2748.97375	0.05468
2747.68798	0.05459
2746.40221	0.05431
2745.11645	0.05391
2743.83068	0.05353
2742.54491	0.05329
2741.25914	0.05328
2739.97337	0.05345
2738.68760	0.05361
2737.40183	0.05360
2736.11606	0.05339
2734.83029	0.05314
2733.54453	0.05299
2732.25876	0.05296
2730.97299	0.05297
2729.68722	0.05293
2728.40145	0.05279
2727.11568	0.05259
2725.82991	0.05238
2724.54414	0.05217
2723.25838	0.05191
2721.97261	0.05161
2720.68684	0.05135
2719.40107	0.05129
2718.11530	0.05146
2716.82953	0.05176
2715.54376	0.05191
2714.25799	0.05176
2712.97222	0.05140
2711.68646	0.05109
2710.40069	0.05096
2709.11492	0.05094
2707.82915	0.05089
2706.54338	0.05079
2705.25761	0.05066
2703.97184	0.05053
2702.68607	0.05042
2701.40031	0.05032
2700.11454	0.05022
2698.82877	0.05009
2697.54300	0.04994
2696.25723	0.04985
2694.97146	0.04985
2693.68569	0.04993
2692.39992	0.05006
2691.11415	0.05017
2689.82839	0.05019
2688.54262	0.05007
2687.25685	0.04988
2685.97108	0.04971
2684.68531	0.04958
2683.39954	0.04949
2682.11377	0.04940
2680.82800	0.04933
2679.54224	0.04930
2678.25647	0.04931
2676.97070	0.04929
2675.68493	0.04921
2674.39916	0.04908
2673.11339	0.04896
2671.82762	0.04890
2670.54185	0.04887
2669.25608	0.04887
2667.97032	0.04882
2666.68455	0.04866
2665.39878	0.04836
2664.11301	0.04809
2662.82724	0.04800
2661.54147	0.04814
2660.25570	0.04842
2658.96993	0.04870
2657.68417	0.04893
2656.39840	0.04907
2655.11263	0.04908
2653.82686	0.04894
2652.54109	0.04866
2651.25532	0.04829
2649.96955	0.04792
2648.68378	0.04761
2647.39801	0.04738
2646.11225	0.04721
2644.82648	0.04708
2643.54071	0.04696
2642.25494	0.04681
2640.96917	0.04660
2639.68340	0.04633
2638.39763	0.04597
2637.11186	0.04552
2635.82609	0.04503
2634.54033	0.04459
2633.25456	0.04430
2631.96879	0.04421
2630.68302	0.04434
2629.39725	0.04460
2628.11148	0.04484
2626.82571	0.04488
2625.53994	0.04469
2624.25418	0.04443
2622.96841	0.04426
2621.68264	0.04426
2620.39687	0.04431
2619.11110	0.04423
2617.82533	0.04395
2616.53956	0.04354
2615.25379	0.04320
2613.96802	0.04306
2612.68226	0.04305
2611.39649	0.04293
2610.11072	0.04259
2608.82495	0.04214
2607.53918	0.04182
2606.25341	0.04170
2604.96764	0.04173
2603.68187	0.04172
2602.39611	0.04153
2601.11034	0.04117
2599.82457	0.04082
2598.53880	0.04061
2597.25303	0.04050
2595.96726	0.04038
2594.68149	0.04026
2593.39572	0.04023
2592.10995	0.04031
2590.82419	0.04043
2589.53842	0.04049
2588.25265	0.04050
2586.96688	0.04055
2585.68111	0.04068
2584.39534	0.04077
2583.10957	0.04066
2581.82380	0.04038
2580.53804	0.04009
2579.25227	0.03983
2577.96650	0.03957
2576.68073	0.03935
2575.39496	0.03927
2574.10919	0.03929
2572.82342	0.03919
2571.53765	0.03884
2570.25188	0.03840
2568.96612	0.03820
2567.68035	0.03841
2566.39458	0.03882
2565.10881	0.03907
2563.82304	0.03897
2562.53727	0.03868
2561.25150	0.03843
2559.96573	0.03828
2558.67997	0.03812
2557.39420	0.03782
2556.10843	0.03738
2554.82266	0.03702
2553.53689	0.03692
2552.25112	0.03706
2550.96535	0.03725
2549.67958	0.03735
2548.39381	0.03729
2547.10805	0.03709
2545.82228	0.03680
2544.53651	0.03658
2543.25074	0.03659
2541.96497	0.03677
2540.67920	0.03690
2539.39343	0.03682
2538.10766	0.03653
2536.82190	0.03620
2535.53613	0.03598
2534.25036	0.03594
2532.96459	0.03604
2531.67882	0.03610
2530.39305	0.03598
2529.10728	0.03566
2527.82151	0.03531
2526.53574	0.03518
2525.24998	0.03538
2523.96421	0.03575
2522.67844	0.03607
2521.39267	0.03624
2520.10690	0.03637
2518.82113	0.03655
2517.53536	0.03672
2516.24959	0.03672
2514.96383	0.03651
2513.67806	0.03616
2512.39229	0.03584
2511.10652	0.03569
2509.82075	0.03571
2508.53498	0.03579
2507.24921	0.03584
2505.96344	0.03588
2504.67767	0.03596
2503.39191	0.03599
2502.10614	0.03583
2500.82037	0.03553
2499.53460	0.03529
2498.24883	0.03515
2496.96306	0.03494
2495.67729	0.03453
2494.39152	0.03399
2493.10576	0.03354
2491.81999	0.03334
2490.53422	0.03339
2489.24845	0.03356
2487.96268	0.03376
2486.67691	0.03397
2485.39114	0.03431
2484.10537	0.03474
2482.81960	0.03502
2481.53384	0.03491
2480.24807	0.03445
2478.96230	0.03401
2477.67653	0.03390
2476.39076	0.03413
2475.10499	0.03448
2473.81922	0.03472
2472.53345	0.03474
2471.24769	0.03457
2469.96192	0.03428
2468.67615	0.03399
2467.39038	0.03386
2466.10461	0.03394
2464.81884	0.03420
2463.53307	0.03459
2462.24730	0.03494
2460.96153	0.03499
2459.67577	0.03458
2458.39000	0.03388
2457.10423	0.03336
2455.81846	0.03326
2454.53269	0.03341
2453.24692	0.03350
2451.96115	0.03343
2450.67538	0.03337
2449.38962	0.03345
2448.10385	0.03363
2446.81808	0.03380
2445.53231	0.03392
2444.24654	0.03398
2442.96077	0.03400
2441.67500	0.03395
2440.38923	0.03383
2439.10346	0.03365
2437.81770	0.03344
2436.53193	0.03325
2435.24616	0.03301
2433.96039	0.03273
2432.67462	0.03253
2431.38885	0.03256
2430.10308	0.03279
2428.81731	0.03305
2427.53155	0.03316
2426.24578	0.03304
2424.96001	0.03271
2423.67424	0.03238
2422.38847	0.03222
2421.10270	0.03223
2419.81693	0.03223
2418.53116	0.03210
2417.24539	0.03198
2415.95963	0.03213
2414.67386	0.03265
2413.38809	0.03334
2412.10232	0.03383
2410.81655	0.03386
2409.53078	0.03348
2408.24501	0.03299
2406.95924	0.03269
2405.67347	0.03263
2404.38771	0.03268
2403.10194	0.03273
2401.81617	0.03274
2400.53040	0.03269
2399.24463	0.03252
2397.95886	0.03233
2396.67309	0.03218
2395.38732	0.03210
2394.10156	0.03212
2392.81579	0.03221
2391.53002	0.03231
2390.24425	0.03239
2388.95848	0.03245
2387.67271	0.03241
2386.38694	0.03223
2385.10117	0.03198
2383.81540	0.03187
2382.52964	0.03202
2381.24387	0.03237
2379.95810	0.03271
2378.67233	0.03323
2377.38656	0.03364
2376.10079	0.03349
2374.81502	0.03303
2373.52925	0.03350
2372.24349	0.03461
2370.95772	0.03530
2369.67195	0.03536
2368.38618	0.03504
2367.10041	0.03476
2365.81464	0.03458
2364.52887	0.03467
2363.24310	0.03500
2361.95733	0.03543
2360.67157	0.03593
2359.38580	0.03611
2358.10003	0.03588
2356.81426	0.03530
2355.52849	0.03432
2354.24272	0.03291
2352.95695	0.03173
2351.67118	0.03202
2350.38542	0.03287
2349.09965	0.03299
2347.81388	0.03287
2346.52811	0.03338
2345.24234	0.03371
2343.95657	0.03285
2342.67080	0.03100
2341.38503	0.03179
2340.09926	0.03422
2338.81350	0.03419
2337.52773	0.03223
2336.24196	0.03283
2334.95619	0.03436
2333.67042	0.03351
2332.38465	0.03127
2331.09888	0.03268
2329.81311	0.03325
2328.52735	0.03219
2327.24158	0.03309
2325.95581	0.03444
2324.67004	0.03443
2323.38427	0.03354
2322.09850	0.03357
2320.81273	0.03297
2319.52696	0.03247
2318.24119	0.03229
2316.95543	0.03213
2315.66966	0.03235
2314.38389	0.03246
2313.09812	0.03239
2311.81235	0.03256
2310.52658	0.03245
2309.24081	0.03214
2307.95504	0.03198
2306.66928	0.03167
2305.38351	0.03132
2304.09774	0.03086
2302.81197	0.03043
2301.52620	0.03024
2300.24043	0.03015
2298.95466	0.03008
2297.66889	0.03002
2296.38312	0.03006
2295.09736	0.03022
2293.81159	0.03038
2292.52582	0.03039
2291.24005	0.03020
2289.95428	0.02996
2288.66851	0.02981
2287.38274	0.02973
2286.09697	0.02964
2284.81121	0.02953
2283.52544	0.02950
2282.23967	0.02957
2280.95390	0.02959
2279.66813	0.02934
2278.38236	0.02875
2277.09659	0.02794
2275.81082	0.02719
2274.52505	0.02669
2273.23929	0.02656
2271.95352	0.02672
2270.66775	0.02700
2269.38198	0.02730
2268.09621	0.02772
2266.81044	0.02828
2265.52467	0.02875
2264.23890	0.02861
2262.95314	0.02773
2261.66737	0.02654
2260.38160	0.02566
2259.09583	0.02539
2257.81006	0.02558
2256.52429	0.02581
2255.23852	0.02582
2253.95275	0.02567
2252.66698	0.02546
2251.38122	0.02521
2250.09545	0.02488
2248.80968	0.02445
2247.52391	0.02387
2246.23814	0.02359
2244.95237	0.02382
2243.66660	0.02431
2242.38083	0.02459
2241.09507	0.02444
2239.80930	0.02407
2238.52353	0.02373
2237.23776	0.02356
2235.95199	0.02352
2234.66622	0.02346
2233.38045	0.02315
2232.09468	0.02262
2230.80891	0.02216
2229.52315	0.02193
2228.23738	0.02175
2226.95161	0.02149
2225.66584	0.02132
2224.38007	0.02146
2223.09430	0.02177
2221.80853	0.02184
2220.52276	0.02146
2219.23700	0.02090
2217.95123	0.02064
2216.66546	0.02087
2215.37969	0.02124
2214.09392	0.02140
2212.80815	0.02134
2211.52238	0.02120
2210.23661	0.02091
2208.95084	0.02037
2207.66508	0.01980
2206.37931	0.01966
2205.09354	0.02021
2203.80777	0.02115
2202.52200	0.02193
2201.23623	0.02218
2199.95046	0.02200
2198.66469	0.02172
2197.37893	0.02153
2196.09316	0.02133
2194.80739	0.02090
2193.52162	0.02023
2192.23585	0.01972
2190.95008	0.01983
2189.66431	0.02054
2188.37854	0.02118
2187.09277	0.02118
2185.80701	0.02082
2184.52124	0.02081
2183.23547	0.02137
2181.94970	0.02196
2180.66393	0.02194
2179.37816	0.02116
2178.09239	0.01985
2176.80662	0.01843
2175.52085	0.01735
2174.23509	0.01694
2172.94932	0.01723
2171.66355	0.01802
2170.37778	0.01901
2169.09201	0.01992
2167.80624	0.02056
2166.52047	0.02091
2165.23470	0.02106
2163.94894	0.02086
2162.66317	0.01981
2161.37740	0.01750
2160.09163	0.01450
2158.80586	0.01228
2157.52009	0.01209
2156.23432	0.01371
2154.94855	0.01570
2153.66278	0.01675
2152.37702	0.01668
2151.09125	0.01636
2149.80548	0.01661
2148.51971	0.01736
2147.23394	0.01791
2145.94817	0.01791
2144.66240	0.01760
2143.37663	0.01741
2142.09087	0.01741
2140.80510	0.01741
2139.51933	0.01726
2138.23356	0.01709
2136.94779	0.01715
2135.66202	0.01751
2134.37625	0.01795
2133.09048	0.01826
2131.80471	0.01839
2130.51895	0.01852
2129.23318	0.01887
2127.94741	0.01950
2126.66164	0.02014
2125.37587	0.02038
2124.09010	0.02014
2122.80433	0.01984
2121.51856	0.01990
2120.23280	0.02030
2118.94703	0.02069
2117.66126	0.02087
2116.37549	0.02096
2115.08972	0.02113
2113.80395	0.02139
2112.51818	0.02163
2111.23241	0.02178
2109.94664	0.02178
2108.66088	0.02160
2107.37511	0.02129
2106.08934	0.02094
2104.80357	0.02067
2103.51780	0.02057
2102.23203	0.02062
2100.94626	0.02080
2099.66049	0.02431
2098.37473	0.02601
2097.08896	0.02601
2095.80319	0.02548
2094.51742	0.02450
2093.23165	0.02305
2091.94588	0.02146
2090.66011	0.02022
2089.37434	0.01963
2088.08857	0.01964
2086.80281	0.02001
2085.51704	0.02049
2084.23127	0.02095
2082.94550	0.02139
2081.65973	0.02180
2080.37396	0.02217
2079.08819	0.02257
2077.80242	0.02311
2076.51666	0.02389
2075.23089	0.02478
2073.94512	0.02549
2072.65935	0.02577
2071.37358	0.02557
2070.08781	0.02507
2068.80204	0.02443
2067.51627	0.02370
2066.23050	0.02289
2064.94474	0.02207
2063.65897	0.02122
2062.37320	0.02027
2061.08743	0.01918
2059.80166	0.01812
2058.51589	0.01741
2057.23012	0.01727
2055.94435	0.01763
2054.65859	0.01832
2053.37282	0.01929
2052.08705	0.02064
2050.80128	0.02221
2049.51551	0.02348
2048.22974	0.02410
2046.94397	0.02417
2045.65820	0.02405
2044.37243	0.02390
2043.08667	0.02361
2041.80090	0.02308
2040.51513	0.02246
2039.22936	0.02201
2037.94359	0.02186
2036.65782	0.02185
2035.37205	0.02169
2034.08628	0.02124
2032.80052	0.02068
2031.51475	0.02024
2030.22898	0.01990
2028.94321	0.01943
2027.65744	0.01872
2026.37167	0.01790
2025.08590	0.01723
2023.80013	0.01698
2022.51436	0.01729
2021.22860	0.01805
2019.94283	0.01891
2018.65706	0.01966
2017.37129	0.02036
2016.08552	0.02128
2014.79975	0.02232
2013.51398	0.02291
2012.22821	0.02264
2010.94245	0.02186
2009.65668	0.02141
2008.37091	0.02161
2007.08514	0.02187
2005.79937	0.02141
2004.51360	0.02016
2003.22783	0.01873
2001.94206	0.01766
2000.65629	0.01689
1999.37053	0.01598
1998.08476	0.01479
1996.79899	0.01369
1995.51322	0.01324
1994.22745	0.01353
1992.94168	0.01406
1991.65591	0.01432
1990.37014	0.01420
1989.08438	0.01400
1987.79861	0.01407
1986.51284	0.01453
1985.22707	0.01531
1983.94130	0.01637
1982.65553	0.01794
1981.36976	0.02033
1980.08399	0.02353
1978.79822	0.02677
1977.51246	0.02892
1976.22669	0.02931
1974.94092	0.02817
1973.65515	0.02625
1972.36938	0.02426
1971.08361	0.02269
1969.79784	0.02182
1968.51207	0.02160
1967.22631	0.02168
1965.94054	0.02175
1964.65477	0.02189
1963.36900	0.02232
1962.08323	0.02293
1960.79746	0.02315
1959.51169	0.02256
1958.22592	0.02137
1956.94015	0.02019
1955.65439	0.01943
1954.36862	0.01898
1953.08285	0.01858
1951.79708	0.01815
1950.51131	0.01797
1949.22554	0.01827
1947.93977	0.01903
1946.65400	0.01993
1945.36823	0.02061
1944.08247	0.02097
1942.79670	0.02110
1941.51093	0.02111
1940.22516	0.02100
1938.93939	0.02079
1937.65362	0.02065
1936.36785	0.02075
1935.08208	0.02107
1933.79632	0.02133
1932.51055	0.02123
1931.22478	0.02076
1929.93901	0.02009
1928.65324	0.01950
1927.36747	0.01915
1926.08170	0.01912
1924.79593	0.01937
1923.51016	0.01972
1922.22440	0.01991
1920.93863	0.01982
1919.65286	0.01957
1918.36709	0.01939
1917.08132	0.01938
1915.79555	0.01953
1914.50978	0.01977
1913.22401	0.02009
1911.93825	0.02045
1910.65248	0.02078
1909.36671	0.02106
1908.08094	0.02134
1906.79517	0.02162
1905.50940	0.02181
1904.22363	0.02179
1902.93786	0.02152
1901.65209	0.02111
1900.36633	0.02073
1899.08056	0.02053
1897.79479	0.02053
1896.50902	0.02065
1895.22325	0.02082
1893.93748	0.02095
1892.65171	0.02093
1891.36594	0.02071
1890.08018	0.02032
1888.79441	0.01994
1887.50864	0.01975
1886.22287	0.01981
1884.93710	0.02001
1883.65133	0.02023
1882.36556	0.02037
1881.07979	0.02038
1879.79402	0.02025
1878.50826	0.02002
1877.22249	0.01979
1875.93672	0.01969
1874.65095	0.01974
1873.36518	0.01985
1872.07941	0.01994
1870.79364	0.01998
1869.50787	0.01995
1868.22211	0.01979
1866.93634	0.01954
1865.65057	0.01934
1864.36480	0.01937
1863.07903	0.01962
1861.79326	0.01992
1860.50749	0.02011
1859.22172	0.02014
1857.93595	0.02003
1856.65019	0.01981
1855.36442	0.01954
1854.07865	0.01931
1852.79288	0.01917
1851.50711	0.01914
1850.22134	0.01914
1848.93557	0.01912
1847.64980	0.01908
1846.36404	0.01901
1845.07827	0.01895
1843.79250	0.01891
1842.50673	0.01886
1841.22096	0.01879
1839.93519	0.01867
1838.64942	0.01851
1837.36365	0.01835
1836.07788	0.01823
1834.79212	0.01821
1833.50635	0.01833
1832.22058	0.01857
1830.93481	0.01889
1829.64904	0.01918
1828.36327	0.01938
1827.07750	0.01953
1825.79173	0.01969
1824.50597	0.01996
1823.22020	0.02038
1821.93443	0.02092
1820.64866	0.02140
1819.36289	0.02150
1818.07712	0.02097
1816.79135	0.01992
1815.50558	0.01871
1814.21981	0.01771
1812.93405	0.01706
1811.64828	0.01669
1810.36251	0.01653
1809.07674	0.01652
1807.79097	0.01665
1806.50520	0.01685
1805.21943	0.01702
1803.93366	0.01710
1802.64790	0.01710
1801.36213	0.01715
1800.07636	0.01729
1798.79059	0.01750
1797.50482	0.01770
1796.21905	0.01783
1794.93328	0.01793
1793.64751	0.01802
1792.36174	0.01814
1791.07598	0.01823
1789.79021	0.01827
1788.50444	0.01822
1787.21867	0.01813
1785.93290	0.01802
1784.64713	0.01793
1783.36136	0.01787
1782.07559	0.01784
1780.78983	0.01785
1779.50406	0.01787
1778.21829	0.01784
1776.93252	0.01772
1775.64675	0.01753
1774.36098	0.01734
1773.07521	0.01721
1771.78944	0.01713
1770.50367	0.01703
1769.21791	0.01691
1767.93214	0.01680
1766.64637	0.01673
1765.36060	0.01674
1764.07483	0.01682
1762.78906	0.01696
1761.50329	0.01711
1760.21752	0.01720
1758.93176	0.01721
1757.64599	0.01715
1756.36022	0.01709
1755.07445	0.01704
1753.78868	0.01701
1752.50291	0.01697
1751.21714	0.01695
1749.93137	0.01699
1748.64560	0.01715
1747.35984	0.01740
1746.07407	0.01767
1744.78830	0.01791
1743.50253	0.01810
1742.21676	0.01827
1740.93099	0.01844
1739.64522	0.01865
1738.35945	0.01888
1737.07369	0.01910
1735.78792	0.01926
1734.50215	0.01939
1733.21638	0.01953
1731.93061	0.01971
1730.64484	0.01992
1729.35907	0.02018
1728.07330	0.02048
1726.78753	0.02077
1725.50177	0.02103
1724.21600	0.02125
1722.93023	0.02146
1721.64446	0.02169
1720.35869	0.02192
1719.07292	0.02215
1717.78715	0.02238
1716.50138	0.02268
1715.21561	0.02314
1713.92985	0.02379
1712.64408	0.02459
1711.35831	0.02549
1710.07254	0.02646
1708.78677	0.02749
1707.50100	0.02861
1706.21523	0.02982
1704.92946	0.03110
1703.64370	0.03244
1702.35793	0.03389
1701.07216	0.03552
1699.78639	0.03735
1698.50062	0.03934
1697.21485	0.04140
1695.92908	0.04347
1694.64331	0.04549
1693.35754	0.04746
1692.07178	0.04936
1690.78601	0.05121
1689.50024	0.05302
1688.21447	0.05483
1686.92870	0.05671
1685.64293	0.05872
1684.35716	0.06086
1683.07139	0.06303
1681.78563	0.06516
1680.49986	0.06727
1679.21409	0.06947
1677.92832	0.07179
1676.64255	0.07419
1675.35678	0.07661
1674.07101	0.07899
1672.78524	0.08135
1671.49947	0.08372
1670.21371	0.08613
1668.92794	0.08855
1667.64217	0.09094
1666.35640	0.09328
1665.07063	0.09559
1663.78486	0.09792
1662.49909	0.10023
1661.21332	0.10249
1659.92756	0.10464
1658.64179	0.10666
1657.35602	0.10854
1656.07025	0.11027
1654.78448	0.11190
1653.49871	0.11349
1652.21294	0.11501
1650.92717	0.11636
1649.64140	0.11743
1648.35564	0.11827
1647.06987	0.11908
1645.78410	0.12002
1644.49833	0.12108
1643.21256	0.12214
1641.92679	0.12306
1640.64102	0.12381
1639.35525	0.12442
1638.06949	0.12493
1636.78372	0.12538
1635.49795	0.12578
1634.21218	0.12608
1632.92641	0.12621
1631.64064	0.12614
1630.35487	0.12583
1629.06910	0.12527
1627.78333	0.12447
1626.49757	0.12342
1625.21180	0.12212
1623.92603	0.12057
1622.64026	0.11878
1621.35449	0.11679
1620.06872	0.11466
1618.78295	0.11248
1617.49718	0.11026
1616.21142	0.10803
1614.92565	0.10576
1613.63988	0.10342
1612.35411	0.10100
1611.06834	0.09855
1609.78257	0.09614
1608.49680	0.09385
1607.21103	0.09167
1605.92526	0.08959
1604.63950	0.08760
1603.35373	0.08568
1602.06796	0.08385
1600.78219	0.08213
1599.49642	0.08051
1598.21065	0.07901
1596.92488	0.07763
1595.63911	0.07639
1594.35335	0.07529
1593.06758	0.07429
1591.78181	0.07340
1590.49604	0.07262
1589.21027	0.07198
1587.92450	0.07150
1586.63873	0.07112
1585.35296	0.07084
1584.06719	0.07066
1582.78143	0.07062
1581.49566	0.07074
1580.20989	0.07099
1578.92412	0.07136
1577.63835	0.07181
1576.35258	0.07235
1575.06681	0.07298
1573.78104	0.07370
1572.49528	0.07453
1571.20951	0.07548
1569.92374	0.07654
1568.63797	0.07767
1567.35220	0.07885
1566.06643	0.08007
1564.78066	0.08130
1563.49489	0.08253
1562.20912	0.08376
1560.92336	0.08503
1559.63759	0.08642
1558.35182	0.08794
1557.06605	0.08953
1555.78028	0.09111
1554.49451	0.09261
1553.20874	0.09400
1551.92297	0.09526
1550.63721	0.09642
1549.35144	0.09750
1548.06567	0.09853
1546.77990	0.09954
1545.49413	0.10050
1544.20836	0.10135
1542.92259	0.10208
1541.63682	0.10271
1540.35105	0.10328
1539.06529	0.10383
1537.77952	0.10432
1536.49375	0.10474
1535.20798	0.10510
1533.92221	0.10547
1532.63644	0.10583
1531.35067	0.10614
1530.06490	0.10637
1528.77914	0.10649
1527.49337	0.10650
1526.20760	0.10643
1524.92183	0.10630
1523.63606	0.10613
1522.35029	0.10596
1521.06452	0.10584
1519.77875	0.10573
1518.49298	0.10558
1517.20722	0.10530
1515.92145	0.10484
1514.63568	0.10417
1513.34991	0.10330
1512.06414	0.10230
1510.77837	0.10119
1509.49260	0.10000
1508.20683	0.09872
1506.92107	0.09735
1505.63530	0.09590
1504.34953	0.09438
1503.06376	0.09281
1501.77799	0.09121
1500.49222	0.08956
1499.20645	0.08786
1497.92068	0.08607
1496.63491	0.08421
1495.34915	0.08234
1494.06338	0.08052
1492.77761	0.07875
1491.49184	0.07701
1490.20607	0.07526
1488.92030	0.07355
1487.63453	0.07193
1486.34876	0.07045
1485.06299	0.06914
1483.77723	0.06801
1482.49146	0.06705
1481.20569	0.06624
1479.91992	0.06558
1478.63415	0.06509
1477.34838	0.06479
1476.06261	0.06471
1474.77684	0.06487
1473.49108	0.06523
1472.20531	0.06570
1470.91954	0.06623
1469.63377	0.06678
1468.34800	0.06735
1467.06223	0.06796
1465.77646	0.06861
1464.49069	0.06928
1463.20492	0.06995
1461.91916	0.07060
1460.63339	0.07128
1459.34762	0.07204
1458.06185	0.07294
1456.77608	0.07393
1455.49031	0.07490
1454.20454	0.07572
1452.91877	0.07634
1451.63301	0.07673
1450.34724	0.07692
1449.06147	0.07697
1447.77570	0.07690
1446.48993	0.07672
1445.20416	0.07645
1443.91839	0.07613
1442.63262	0.07579
1441.34685	0.07544
1440.06109	0.07507
1438.77532	0.07460
1437.48955	0.07401
1436.20378	0.07329
1434.91801	0.07248
1433.63224	0.07164
1432.34647	0.07081
1431.06070	0.07004
1429.77494	0.06936
1428.48917	0.06878
1427.20340	0.06829
1425.91763	0.06789
1424.63186	0.06760
1423.34609	0.06741
1422.06032	0.06729
1420.77455	0.06723
1419.48878	0.06719
1418.20302	0.06718
1416.91725	0.06721
1415.63148	0.06725
1414.34571	0.06733
1413.05994	0.06741
1411.77417	0.06750
1410.48840	0.06760
1409.20263	0.06771
1407.91687	0.06785
1406.63110	0.06805
1405.34533	0.06828
1404.05956	0.06847
1402.77379	0.06856
1401.48802	0.06854
1400.20225	0.06847
1398.91648	0.06841
1397.63071	0.06838
1396.34495	0.06837
1395.05918	0.06839
1393.77341	0.06841
1392.48764	0.06840
1391.20187	0.06833
1389.91610	0.06820
1388.63033	0.06807
1387.34456	0.06795
1386.05880	0.06783
1384.77303	0.06765
1383.48726	0.06738
1382.20149	0.06703
1380.91572	0.06663
1379.62995	0.06623
1378.34418	0.06587
1377.05841	0.06551
1375.77264	0.06511
1374.48688	0.06464
1373.20111	0.06410
1371.91534	0.06354
1370.62957	0.06301
1369.34380	0.06249
1368.05803	0.06196
1366.77226	0.06135
1365.48649	0.06071
1364.20073	0.06007
1362.91496	0.05950
1361.62919	0.05902
1360.34342	0.05862
1359.05765	0.05828
1357.77188	0.05797
1356.48611	0.05766
1355.20034	0.05736
1353.91457	0.05712
1352.62881	0.05697
1351.34304	0.05693
1350.05727	0.05701
1348.77150	0.05718
1347.48573	0.05739
1346.19996	0.05764
1344.91419	0.05792
1343.62842	0.05819
1342.34266	0.05845
1341.05689	0.05868
1339.77112	0.05893
1338.48535	0.05919
1337.19958	0.05941
1335.91381	0.05953
1334.62804	0.05950
1333.34227	0.05930
1332.05650	0.05896
1330.77074	0.05854
1329.48497	0.05810
1328.19920	0.05772
1326.91343	0.05746
1325.62766	0.05729
1324.34189	0.05718
1323.05612	0.05708
1321.77035	0.05697
1320.48459	0.05687
1319.19882	0.05678
1317.91305	0.05667
1316.62728	0.05653
1315.34151	0.05638
1314.05574	0.05625
1312.76997	0.05617
1311.48420	0.05606
1310.19843	0.05589
1308.91267	0.05568
1307.62690	0.05551
1306.34113	0.05539
1305.05536	0.05529
1303.76959	0.05513
1302.48382	0.05491
1301.19805	0.05469
1299.91228	0.05452
1298.62652	0.05439
1297.34075	0.05427
1296.05498	0.05415
1294.76921	0.05406
1293.48344	0.05404
1292.19767	0.05415
1290.91190	0.05438
1289.62613	0.05468
1288.34036	0.05500
1287.05460	0.05530
1285.76883	0.05556
1284.48306	0.05576
1283.19729	0.05592
1281.91152	0.05605
1280.62575	0.05614
1279.33998	0.05620
1278.05421	0.05624
1276.76845	0.05628
1275.48268	0.05635
1274.19691	0.05645
1272.91114	0.05658
1271.62537	0.05670
1270.33960	0.05682
1269.05383	0.05698
1267.76806	0.05718
1266.48229	0.05743
1265.19653	0.05771
1263.91076	0.05799
1262.62499	0.05826
1261.33922	0.05852
1260.05345	0.05882
1258.76768	0.05916
1257.48191	0.05954
1256.19614	0.05992
1254.91037	0.06030
1253.62461	0.06071
1252.33884	0.06117
1251.05307	0.06168
1249.76730	0.06222
1248.48153	0.06281
1247.19576	0.06344
1245.90999	0.06409
1244.62422	0.06473
1243.33846	0.06531
1242.05269	0.06583
1240.76692	0.06629
1239.48115	0.06670
1238.19538	0.06707
1236.90961	0.06740
1235.62384	0.06767
1234.33807	0.06786
1233.05230	0.06793
1231.76654	0.06788
1230.48077	0.06772
1229.19500	0.06747
1227.90923	0.06715
1226.62346	0.06676
1225.33769	0.06631
1224.05192	0.06577
1222.76615	0.06515
1221.48039	0.06449
1220.19462	0.06382
1218.90885	0.06317
1217.62308	0.06257
1216.33731	0.06201
1215.05154	0.06150
1213.76577	0.06105
1212.48000	0.06069
1211.19423	0.06044
1209.90847	0.06029
1208.62270	0.06022
1207.33693	0.06019
1206.05116	0.06018
1204.76539	0.06018
1203.47962	0.06018
1202.19385	0.06011
1200.90808	0.05972
1199.62232	0.05888
1198.33655	0.05850
1197.05078	0.05809
1195.76501	0.05761
1194.47924	0.05709
1193.19347	0.05655
1191.90770	0.05601
1190.62193	0.05548
1189.33616	0.05497
1188.05040	0.05446
1186.76463	0.05397
1185.47886	0.05354
1184.19309	0.05316
1182.90732	0.05286
1181.62155	0.05259
1180.33578	0.05234
1179.05001	0.05213
1177.76425	0.05199
1176.47848	0.05190
1175.19271	0.05184
1173.90694	0.05176
1172.62117	0.05172
1171.33540	0.05176
1170.04963	0.05189
1168.76386	0.05204
1167.47809	0.05215
1166.19233	0.05222
1164.90656	0.05224
1163.62079	0.05225
1162.33502	0.05224
1161.04925	0.05222
1159.76348	0.05219
1158.47771	0.05211
1157.19194	0.05195
1155.90618	0.05170
1154.62041	0.05140
1153.33464	0.05110
1152.04887	0.05078
1150.76310	0.05040
1149.47733	0.04993
1148.19156	0.04941
1146.90579	0.04890
1145.62002	0.04842
1144.33426	0.04801
1143.04849	0.04768
1141.76272	0.04746
1140.47695	0.04734
1139.19118	0.04726
1137.90541	0.04719
1136.61964	0.04713
1135.33387	0.04711
1134.04811	0.04710
1132.76234	0.04707
1131.47657	0.04699
1130.19080	0.04695
1128.90503	0.04698
1127.61926	0.04713
1126.33349	0.04740
1125.04772	0.04781
1123.76195	0.04835
1122.47619	0.04893
1121.19042	0.04947
1119.90465	0.04998
1118.61888	0.05050
1117.33311	0.05110
1116.04734	0.05171
1114.76157	0.05227
1113.47580	0.05281
1112.19004	0.05338
1110.90427	0.05403
1109.61850	0.05468
1108.33273	0.05527
1107.04696	0.05583
1105.76119	0.05643
1104.47542	0.05706
1103.18965	0.05766
1101.90388	0.05818
1100.61812	0.05864
1099.33235	0.05906
1098.04658	0.05942
1096.76081	0.05966
1095.47504	0.05979
1094.18927	0.05984
1092.90350	0.05987
1091.61773	0.05994
1090.33197	0.06006
1089.04620	0.06025
1087.76043	0.06051
1086.47466	0.06091
1085.18889	0.06147
1083.90312	0.06219
1082.61735	0.06297
1081.33158	0.06372
1080.04581	0.06437
1078.76005	0.06492
1077.47428	0.06536
1076.18851	0.06573
1074.90274	0.06607
1073.61697	0.06640
1072.33120	0.06672
1071.04543	0.06702
1069.75966	0.06730
1068.47390	0.06757
1067.18813	0.06784
1065.90236	0.06809
1064.61659	0.06829
1063.33082	0.06847
1062.04505	0.06872
1060.75928	0.06910
1059.47351	0.06955
1058.18774	0.06995
1056.90198	0.07024
1055.61621	0.07044
1054.33044	0.07060
1053.04467	0.07071
1051.75890	0.07078
1050.47313	0.07085
1049.18736	0.07098
1047.90159	0.07119
1046.61583	0.07145
1045.33006	0.07175
1044.04429	0.07208
1042.75852	0.07244
1041.47275	0.07280
1040.18698	0.07319
1038.90121	0.07364
1037.61544	0.07415
1036.32967	0.07469
1035.04391	0.07524
1033.75814	0.07578
1032.47237	0.07625
1031.18660	0.07657
1029.90083	0.07664
1028.61506	0.07642
1027.32929	0.07592
1026.04352	0.07517
1024.75775	0.07425
1023.47199	0.07323
1022.18622	0.07218
1020.90045	0.07106
1019.61468	0.06980
1018.32891	0.06844
1017.04314	0.06707
1015.75737	0.06582
1014.47160	0.06469
1013.18584	0.06365
1011.90007	0.06265
1010.61430	0.06171
1009.32853	0.06083
1008.04276	0.05995
1006.75699	0.05903
1005.47122	0.05808
1004.18545	0.05717
1002.89968	0.05631
1001.61392	0.05553
1000.32815	0.05481
999.04238	0.05411
997.75661	0.05343
996.47084	0.05277
995.18507	0.05213
993.89930	0.05155
992.61353	0.05101
991.32777	0.05046
990.04200	0.04989
988.75623	0.04933
987.47046	0.04886
986.18469	0.04847
984.89892	0.04811
983.61315	0.04775
982.32738	0.04736
981.04161	0.04697
979.75585	0.04664
978.47008	0.04640
977.18431	0.04629
975.89854	0.04624
974.61277	0.04613
973.32700	0.04593
972.04123	0.04566
970.75546	0.04544
969.46970	0.04529
968.18393	0.04521
966.89816	0.04514
965.61239	0.04502
964.32662	0.04481
963.04085	0.04451
961.75508	0.04417
960.46931	0.04382
959.18354	0.04350
957.89778	0.04316
956.61201	0.04278
955.32624	0.04236
954.04047	0.04197
952.75470	0.04168
951.46893	0.04150
950.18316	0.04140
948.89739	0.04133
947.61163	0.04127
946.32586	0.04118
945.04009	0.04105
943.75432	0.04085
942.46855	0.04062
941.18278	0.04040
939.89701	0.04021
938.61124	0.04002
937.32547	0.03985
936.03971	0.03967
934.75394	0.03948
933.46817	0.03931
932.18240	0.03917
930.89663	0.03908
929.61086	0.03901
928.32509	0.03892
927.03932	0.03878
925.75356	0.03857
924.46779	0.03831
923.18202	0.03810
921.89625	0.03801
920.61048	0.03802
919.32471	0.03800
918.03894	0.03785
916.75317	0.03757
915.46740	0.03724
914.18164	0.03695
912.89587	0.03670
911.61010	0.03644
910.32433	0.03614
909.03856	0.03583
907.75279	0.03558
906.46702	0.03541
905.18125	0.03528
903.89549	0.03516
902.60972	0.03500
901.32395	0.03483
900.03818	0.03466
898.75241	0.03453
897.46664	0.03444
896.18087	0.03440
894.89510	0.03441
893.60933	0.03444
892.32357	0.03444
891.03780	0.03433
889.75203	0.03411
888.46626	0.03388
887.18049	0.03380
885.89472	0.03387
884.60895	0.03395
883.32318	0.03389
882.03742	0.03371
880.75165	0.03354
879.46588	0.03350
878.18011	0.03355
876.89434	0.03361
875.60857	0.03361
874.32280	0.03357
873.03703	0.03353
871.75126	0.03353
870.46550	0.03358
869.17973	0.03364
867.89396	0.03365
866.60819	0.03357
865.32242	0.03341
864.03665	0.03321
862.75088	0.03302
861.46511	0.03286
860.17935	0.03276
858.89358	0.03272
857.60781	0.03268
856.32204	0.03257
855.03627	0.03238
853.75050	0.03221
852.46473	0.03219
851.17896	0.03229
849.89319	0.03240
848.60743	0.03242
847.32166	0.03230
846.03589	0.03213
844.75012	0.03199
843.46435	0.03189
842.17858	0.03180
840.89281	0.03170
839.60704	0.03158
838.32128	0.03146
837.03551	0.03131
835.74974	0.03116
834.46397	0.03109
833.17820	0.03117
831.89243	0.03134
830.60666	0.03146
829.32089	0.03145
828.03512	0.03134
826.74936	0.03127
825.46359	0.03135
824.17782	0.03154
822.89205	0.03174
821.60628	0.03185
820.32051	0.03187
819.03474	0.03186
817.74897	0.03188
816.46321	0.03195
815.17744	0.03205
813.89167	0.03219
812.60590	0.03236
811.32013	0.03253
810.03436	0.03261
808.74859	0.03257
807.46282	0.03249
806.17705	0.03244
804.89129	0.03243
803.60552	0.03244
802.31975	0.03243
801.03398	0.03243
799.74821	0.03249
798.46244	0.03263
797.17667	0.03279
795.89090	0.03284
794.60513	0.03271
793.31937	0.03249
792.03360	0.03241
790.74783	0.03262
789.46206	0.03302
788.17629	0.03337
786.89052	0.03351
785.60475	0.03348
784.31898	0.03342
783.03322	0.03342
781.74745	0.03350
780.46168	0.03362
779.17591	0.03376
777.89014	0.03393
776.60437	0.03412
775.31860	0.03430
774.03283	0.03443
772.74706	0.03441
771.46130	0.03425
770.17553	0.03406
768.88976	0.03399
767.60399	0.03412
766.31822	0.03438
765.03245	0.03470
763.74668	0.03502
762.46091	0.03529
761.17515	0.03547
759.88938	0.03553
758.60361	0.03554
757.31784	0.03557
756.03207	0.03563
754.74630	0.03570
753.46053	0.03574
752.17476	0.03580
750.88899	0.03593
749.60323	0.03614
748.31746	0.03636
747.03169	0.03657
745.74592	0.03674
744.46015	0.03689
743.17438	0.03702
741.88861	0.03715
740.60284	0.03729
739.31708	0.03738
738.03131	0.03738
736.74554	0.03732
735.45977	0.03727
734.17400	0.03728
732.88823	0.03734
731.60246	0.03744
730.31669	0.03754
729.03092	0.03757
727.74516	0.03757
726.45939	0.03763
725.17362	0.03785
723.88785	0.03819
722.60208	0.03862
721.31631	0.03896
720.03054	0.03911
718.74477	0.03907
717.45901	0.03894
716.17324	0.03884
714.88747	0.03884
713.60170	0.03895
712.31593	0.03917
711.03016	0.03945
709.74439	0.03974
708.45862	0.03999
707.17285	0.04021
705.88709	0.04039
704.60132	0.04055
703.31555	0.04068
702.02978	0.04082
700.74401	0.04097
699.45824	0.04113
698.17247	0.04123
696.88670	0.04128
695.60094	0.04131
694.31517	0.04134
693.02940	0.04136
691.74363	0.04139
690.45786	0.04145
689.17209	0.04156
687.88632	0.04162
686.60055	0.04162
685.31478	0.04158
684.02902	0.04159
682.74325	0.04172
681.45748	0.04188
680.17171	0.04197
678.88594	0.04201
677.60017	0.04204
676.31440	0.04216
675.02863	0.04231
673.74287	0.04243
672.45710	0.04250
671.17133	0.04255
669.88556	0.04265
668.59979	0.04276
667.31402	0.04275
666.02825	0.04283
664.74248	0.04296
663.45671	0.04311
662.17095	0.04321
660.88518	0.04324
659.59941	0.04324
658.31364	0.04330
657.02787	0.04341
655.74210	0.04346
654.45633	0.04337
653.17056	0.04317
651.88480	0.04297
650.59903	0.04291
649.31326	0.04302
648.02749	0.04323
646.74172	0.04345
645.45595	0.04357
644.17018	0.04349
642.88441	0.04325
641.59864	0.04302
640.31288	0.04299
639.02711	0.04316
637.74134	0.04339
636.45557	0.04352
635.16980	0.04350
633.88403	0.04336
632.59826	0.04314
631.31249	0.04335
630.02673	0.04600
628.74096	0.05005
627.45519	0.04738
626.16942	0.05208
624.88365	0.06192
623.59788	0.07145
622.31211	0.07830
621.02634	0.08118
619.74057	0.07960
618.45481	0.07424
617.16904	0.06676
615.88327	0.05947
614.59750	0.05474
613.31173	0.05396
612.02596	0.05658
610.74019	0.06055
609.45442	0.06403
608.16866	0.06666
606.88289	0.06890
605.59712	0.07062
604.31135	0.07096
603.02558	0.06931
601.73981	0.06613
600.45404	0.06261
599.16827	0.05970
597.88250	0.05760
596.59674	0.05603
595.31097	0.05477
594.02520	0.05377
592.73943	0.05304
591.45366	0.05255
590.16789	0.05223
588.88212	0.05208
587.59635	0.05213
586.31059	0.05227
585.02482	0.05233
583.73905	0.05227
582.45328	0.05230
581.16751	0.05273
579.88174	0.05359
578.59597	0.05451
577.31020	0.05505
576.02443	0.05513
574.73867	0.05511
573.45290	0.05542
572.16713	0.05624
570.88136	0.05739
569.59559	0.05861
568.30982	0.05963
567.02405	0.06029
565.73828	0.06050
564.45251	0.06034
563.16675	0.05998
561.88098	0.05956
560.59521	0.05910
559.30944	0.05855
558.02367	0.05784
556.73790	0.05702
555.45213	0.05627
554.16636	0.05573
552.88060	0.05538
551.59483	0.05508
550.30906	0.05469
549.02329	0.05424
547.73752	0.05384
546.45175	0.05352
545.16598	0.05323
543.88021	0.05284
542.59444	0.05235
541.30868	0.05182
540.02291	0.05134
538.73714	0.05101
537.45137	0.05085
536.16560	0.05084
534.87983	0.05088
533.59406	0.05084
532.30829	0.05065
531.02253	0.05034
529.73676	0.05005
528.45099	0.04992
527.16522	0.04999
525.87945	0.05012
524.59368	0.05009
523.30791	0.04983
522.02214	0.04949
520.73637	0.04925
519.45061	0.04921
518.16484	0.04929
516.87907	0.04938
515.59330	0.04931
514.30753	0.04900
513.02176	0.04845
511.73599	0.04785
510.45022	0.04744
509.16446	0.04736
507.87869	0.04746
506.59292	0.04746
505.30715	0.04712
504.02138	0.04642
502.73561	0.04555
501.44984	0.04477
500.16407	0.04425
498.87830	0.04407
497.59254	0.04416
496.30677	0.04441
495.02100	0.04462
493.73523	0.04465
492.44946	0.04449
491.16369	0.04424
489.87792	0.04403
488.59215	0.04390
487.30639	0.04383
486.02062	0.04372
484.73485	0.04351
483.44908	0.04322
482.16331	0.04283
480.87754	0.04236
479.59177	0.04187
478.30600	0.04146
477.02023	0.04119
475.73447	0.04101
474.44870	0.04087
473.16293	0.04077
471.87716	0.04073
470.59139	0.04075
469.30562	0.04078
468.01985	0.04075
466.73408	0.04066
465.44832	0.04055
464.16255	0.04044
462.87678	0.04032
461.59101	0.04011
460.30524	0.03976
459.01947	0.03931
457.73370	0.03886
456.44793	0.03852
455.16216	0.03830
453.87640	0.03812
452.59063	0.03795
451.30486	0.03780
450.01909	0.03765
448.73332	0.03749
447.44755	0.03729
446.16178	0.03703
444.87601	0.03673
443.59025	0.03644
442.30448	0.03618
441.01871	0.03596
439.73294	0.03577
438.44717	0.03560
437.16140	0.03545
435.87563	0.03536
434.58986	0.03531
433.30409	0.03527
432.01833	0.03523
430.73256	0.03515
429.44679	0.03502
428.16102	0.03483
426.87525	0.03462
425.58948	0.03442
424.30371	0.03423
423.01794	0.03407
421.73218	0.03393
420.44641	0.03377
419.16064	0.03357
417.87487	0.03333
416.58910	0.03311
415.30333	0.03294
414.01756	0.03283
412.73179	0.03272
411.44602	0.03254
410.16026	0.03226
408.87449	0.03194
407.58872	0.03168
406.30295	0.03154
405.01718	0.03153
403.73141	0.03153
402.44564	0.03141
401.15987	0.03114
399.87411	0.03079
