3997.45528	0.04939
3996.16951	0.04944
3994.88374	0.04920
3993.59798	0.04862
3992.31221	0.04789
3991.02644	0.04739
3989.74067	0.04743
3988.45490	0.04799
3987.16913	0.04872
3985.88336	0.04921
3984.59759	0.04916
3983.31183	0.04858
3982.02606	0.04781
3980.74029	0.04736
3979.45452	0.04745
3978.16875	0.04785
3976.88298	0.04815
3975.59721	0.04815
3974.31144	0.04781
3973.02567	0.04712
3971.73991	0.04618
3970.45414	0.04541
3969.16837	0.04521
3967.88260	0.04557
3966.59683	0.04612
3965.31106	0.04653
3964.02529	0.04675
3962.73952	0.04688
3961.45376	0.04696
3960.16799	0.04697
3958.88222	0.04692
3957.59645	0.04686
3956.31068	0.04686
3955.02491	0.04695
3953.73914	0.04720
3952.45337	0.04766
3951.16760	0.04814
3949.88184	0.04827
3948.59607	0.04786
3947.31030	0.04708
3946.02453	0.04625
3944.73876	0.04555
3943.45299	0.04513
3942.16722	0.04518
3940.88145	0.04570
3939.59569	0.04639
3938.30992	0.04697
3937.02415	0.04734
3935.73838	0.04747
3934.45261	0.04732
3933.16684	0.04701
3931.88107	0.04686
3930.59530	0.04710
3929.30953	0.04762
3928.02377	0.04801
3926.73800	0.04793
3925.45223	0.04754
3924.16646	0.04741
3922.88069	0.04769
3921.59492	0.04794
3920.30915	0.04763
3919.02338	0.04677
3917.73762	0.04593
3916.45185	0.04568
3915.16608	0.04604
3913.88031	0.04656
3912.59454	0.04688
3911.30877	0.04695
3910.02300	0.04685
3908.73723	0.04664
3907.45146	0.04630
3906.16570	0.04577
3904.87993	0.04519
3903.59416	0.04489
3902.30839	0.04503
3901.02262	0.04545
3899.73685	0.04593
3898.45108	0.04633
3897.16531	0.04657
3895.87955	0.04658
3894.59378	0.04635
3893.30801	0.04590
3892.02224	0.04550
3890.73647	0.04556
3889.45070	0.04608
3888.16493	0.04646
3886.87916	0.04630
3885.59339	0.04582
3884.30763	0.04528
3883.02186	0.04473
3881.73609	0.04434
3880.45032	0.04452
3879.16455	0.04523
3877.87878	0.04591
3876.59301	0.04611
3875.30724	0.04598
3874.02148	0.04584
3872.73571	0.04561
3871.44994	0.04509
3870.16417	0.04474
3868.87840	0.04499
3867.59263	0.04535
3866.30686	0.04529
3865.02109	0.04512
3863.73532	0.04532
3862.44956	0.04571
3861.16379	0.04595
3859.87802	0.04607
3858.59225	0.04626
3857.30648	0.04641
3856.02071	0.04616
3854.73494	0.04568
3853.44917	0.04566
3852.16341	0.04621
3850.87764	0.04661
3849.59187	0.04642
3848.30610	0.04590
3847.02033	0.04540
3845.73456	0.04505
3844.44879	0.04492
3843.16302	0.04512
3841.87725	0.04556
3840.59149	0.04576
3839.30572	0.04541
3838.01995	0.04480
3836.73418	0.04433
3835.44841	0.04390
3834.16264	0.04334
3832.87687	0.04292
3831.59110	0.04295
3830.30534	0.04323
3829.01957	0.04331
3827.73380	0.04308
3826.44803	0.04290
3825.16226	0.04294
3823.87649	0.04284
3822.59072	0.04248
3821.30495	0.04236
3820.01918	0.04268
3818.73342	0.04272
3817.44765	0.04198
3816.16188	0.04127
3814.87611	0.04152
3813.59034	0.04241
3812.30457	0.04319
3811.01880	0.04366
3809.73303	0.04384
3808.44726	0.04381
3807.16150	0.04406
3805.87573	0.04485
3804.58996	0.04541
3803.30419	0.04475
3802.01842	0.04318
3800.73265	0.04184
3799.44688	0.04117
3798.16111	0.04090
3796.87535	0.04107
3795.58958	0.04172
3794.30381	0.04233
3793.01804	0.04234
3791.73227	0.04186
3790.44650	0.04145
3789.16073	0.04157
3787.87496	0.04223
3786.58919	0.04309
3785.30343	0.04372
3784.01766	0.04389
3782.73189	0.04367
3781.44612	0.04326
3780.16035	0.04286
3778.87458	0.04257
3777.58881	0.04232
3776.30304	0.04215
3775.01728	0.04228
3773.73151	0.04267
3772.44574	0.04273
3771.15997	0.04210
3769.87420	0.04120
3768.58843	0.04072
3767.30266	0.04076
3766.01689	0.04097
3764.73112	0.04099
3763.44536	0.04071
3762.15959	0.04026
3760.87382	0.03996
3759.58805	0.04001
3758.30228	0.04029
3757.01651	0.04057
3755.73074	0.04059
3754.44497	0.04013
3753.15921	0.03935
3751.87344	0.03869
3750.58767	0.03840
3749.30190	0.03854
3748.01613	0.03899
3746.73036	0.03912
3745.44459	0.03885
3744.15882	0.03908
3742.87305	0.04000
3741.58729	0.04058
3740.30152	0.04031
3739.01575	0.03956
3737.72998	0.03869
3736.44421	0.03807
3735.15844	0.03793
3733.87267	0.03806
3732.58690	0.03824
3731.30114	0.03854
3730.01537	0.03880
3728.72960	0.03861
3727.44383	0.03812
3726.15806	0.03797
3724.87229	0.03844
3723.58652	0.03912
3722.30075	0.03947
3721.01498	0.03920
3719.72922	0.03837
3718.44345	0.03743
3717.15768	0.03689
3715.87191	0.03683
3714.58614	0.03683
3713.30037	0.03674
3712.01460	0.03686
3710.72883	0.03734
3709.44307	0.03779
3708.15730	0.03784
3706.87153	0.03768
3705.58576	0.03761
3704.29999	0.03753
3703.01422	0.03717
3701.72845	0.03658
3700.44268	0.03613
3699.15691	0.03600
3697.87115	0.03618
3696.58538	0.03655
3695.29961	0.03691
3694.01384	0.03717
3692.72807	0.03755
3691.44230	0.03805
3690.15653	0.03834
3688.87076	0.03834
3687.58500	0.03823
3686.29923	0.03783
3685.01346	0.03694
3683.72769	0.03595
3682.44192	0.03556
3681.15615	0.03606
3679.87038	0.03717
3678.58461	0.03812
3677.29884	0.03829
3676.01308	0.03804
3674.72731	0.03806
3673.44154	0.03812
3672.15577	0.03758
3670.87000	0.03682
3669.58423	0.03678
3668.29846	0.03742
3667.01269	0.03804
3665.72693	0.03833
3664.44116	0.03845
3663.15539	0.03862
3661.86962	0.03901
3660.58385	0.03970
3659.29808	0.04043
3658.01231	0.04076
3656.72654	0.04071
3655.44077	0.04073
3654.15501	0.04093
3652.86924	0.04103
3651.58347	0.04102
3650.29770	0.04131
3649.01193	0.04219
3647.72616	0.04343
3646.44039	0.04451
3645.15462	0.04509
3643.86886	0.04514
3642.58309	0.04488
3641.29732	0.04461
3640.01155	0.04457
3638.72578	0.04487
3637.44001	0.04537
3636.15424	0.04578
3634.86847	0.04596
3633.58270	0.04618
3632.29694	0.04656
3631.01117	0.04687
3629.72540	0.04700
3628.43963	0.04725
3627.15386	0.04770
3625.86809	0.04814
3624.58232	0.04863
3623.29655	0.04929
3622.01079	0.04986
3620.72502	0.05000
3619.43925	0.04984
3618.15348	0.04971
3616.86771	0.04970
3615.58194	0.04969
3614.29617	0.04971
3613.01040	0.05001
3611.72463	0.05072
3610.43887	0.05162
3609.15310	0.05238
3607.86733	0.05271
3606.58156	0.05247
3605.29579	0.05191
3604.01002	0.05157
3602.72425	0.05184
3601.43848	0.05270
3600.15272	0.05386
3598.86695	0.05498
3597.58118	0.05589
3596.29541	0.05657
3595.00964	0.05706
3593.72387	0.05738
3592.43810	0.05765
3591.15233	0.05793
3589.86656	0.05819
3588.58080	0.05848
3587.29503	0.05900
3586.00926	0.05980
3584.72349	0.06069
3583.43772	0.06144
3582.15195	0.06195
3580.86618	0.06222
3579.58041	0.06233
3578.29464	0.06244
3577.00888	0.06270
3575.72311	0.06320
3574.43734	0.06385
3573.15157	0.06442
3571.86580	0.06479
3570.58003	0.06491
3569.29426	0.06491
3568.00849	0.06513
3566.72273	0.06587
3565.43696	0.06708
3564.15119	0.06832
3562.86542	0.06918
3561.57965	0.06957
3560.29388	0.06976
3559.00811	0.07014
3557.72234	0.07093
3556.43657	0.07193
3555.15081	0.07276
3553.86504	0.07316
3552.57927	0.07313
3551.29350	0.07289
3550.00773	0.07261
3548.72196	0.07239
3547.43619	0.07237
3546.15042	0.07271
3544.86466	0.07342
3543.57889	0.07437
3542.29312	0.07541
3541.00735	0.07646
3539.72158	0.07745
3538.43581	0.07821
3537.15004	0.07861
3535.86427	0.07877
3534.57850	0.07897
3533.29274	0.07936
3532.00697	0.07982
3530.72120	0.08020
3529.43543	0.08057
3528.14966	0.08105
3526.86389	0.08169
3525.57812	0.08240
3524.29235	0.08303
3523.00659	0.08350
3521.72082	0.08386
3520.43505	0.08430
3519.14928	0.08495
3517.86351	0.08568
3516.57774	0.08622
3515.29197	0.08645
3514.00620	0.08647
3512.72043	0.08637
3511.43467	0.08617
3510.14890	0.08598
3508.86313	0.08601
3507.57736	0.08640
3506.29159	0.08710
3505.00582	0.08795
3503.72005	0.08886
3502.43428	0.08971
3501.14852	0.09038
3499.86275	0.09078
3498.57698	0.09100
3497.29121	0.09110
3496.00544	0.09110
3494.71967	0.09098
3493.43390	0.09084
3492.14813	0.09087
3490.86236	0.09123
3489.57660	0.09189
3488.29083	0.09270
3487.00506	0.09352
3485.71929	0.09421
3484.43352	0.09471
3483.14775	0.09509
3481.86198	0.09548
3480.57621	0.09593
3479.29045	0.09633
3478.00468	0.09657
3476.71891	0.09667
3475.43314	0.09681
3474.14737	0.09709
3472.86160	0.09754
3471.57583	0.09814
3470.29006	0.09880
3469.00429	0.09934
3467.71853	0.09964
3466.43276	0.09976
3465.14699	0.09992
3463.86122	0.10035
3462.57545	0.10108
3461.28968	0.10191
3460.00391	0.10260
3458.71814	0.10305
3457.43238	0.10332
3456.14661	0.10353
3454.86084	0.10369
3453.57507	0.10375
3452.28930	0.10361
3451.00353	0.10330
3449.71776	0.10304
3448.43199	0.10316
3447.14622	0.10376
3445.86046	0.10458
3444.57469	0.10525
3443.28892	0.10567
3442.00315	0.10608
3440.71738	0.10657
3439.43161	0.10700
3438.14584	0.10721
3436.86007	0.10734
3435.57431	0.10760
3434.28854	0.10806
3433.00277	0.10854
3431.71700	0.10898
3430.43123	0.10956
3429.14546	0.11047
3427.85969	0.11171
3426.57392	0.11295
3425.28815	0.11378
3424.00239	0.11406
3422.71662	0.11399
3421.43085	0.11398
3420.14508	0.11431
3418.85931	0.11488
3417.57354	0.11537
3416.28777	0.11556
3415.00200	0.11549
3413.71624	0.11536
3412.43047	0.11534
3411.14470	0.11546
3409.85893	0.11567
3408.57316	0.11590
3407.28739	0.11617
3406.00162	0.11651
3404.71585	0.11692
3403.43008	0.11736
3402.14432	0.11779
3400.85855	0.11832
3399.57278	0.11907
3398.28701	0.11986
3397.00124	0.12061
3395.71547	0.12108
3394.42970	0.12110
3393.14393	0.12086
3391.85817	0.12070
3390.57240	0.12085
3389.28663	0.12129
3388.00086	0.12188
3386.71509	0.12244
3385.42932	0.12292
3384.14355	0.12342
3382.85778	0.12406
3381.57201	0.12482
3380.28625	0.12553
3379.00048	0.12601
3377.71471	0.12627
3376.42894	0.12643
3375.14317	0.12666
3373.85740	0.12710
3372.57163	0.12785
3371.28586	0.12883
3370.00010	0.12972
3368.71433	0.13021
3367.42856	0.13020
3366.14279	0.12992
3364.85702	0.12973
3363.57125	0.12986
3362.28548	0.13037
3360.99971	0.13118
3359.71394	0.13214
3358.42818	0.13300
3357.14241	0.13355
3355.85664	0.13377
3354.57087	0.13390
3353.28510	0.13428
3351.99933	0.13509
3350.71356	0.13617
3349.42779	0.13724
3348.14202	0.13819
3346.85626	0.13910
3345.57049	0.14000
3344.28472	0.14084
3342.99895	0.14157
3341.71318	0.14221
3340.42741	0.14281
3339.14164	0.14335
3337.85587	0.14383
3336.57011	0.14427
3335.28434	0.14472
3333.99857	0.14528
3332.71280	0.14601
3331.42703	0.14682
3330.14126	0.14752
3328.85549	0.14797
3327.56972	0.14822
3326.28395	0.14849
3324.99819	0.14896
3323.71242	0.14957
3322.42665	0.15014
3321.14088	0.15051
3319.85511	0.15070
3318.56934	0.15088
3317.28357	0.15121
3315.99780	0.15174
3314.71204	0.15236
3313.42627	0.15294
3312.14050	0.15343
3310.85473	0.15387
3309.56896	0.15425
3308.28319	0.15453
3306.99742	0.15478
3305.71165	0.15523
3304.42588	0.15605
3303.14012	0.15710
3301.85435	0.15797
3300.56858	0.15834
3299.28281	0.15825
3297.99704	0.15805
3296.71127	0.15806
3295.42550	0.15834
3294.13973	0.15864
3292.85397	0.15879
3291.56820	0.15879
3290.28243	0.15876
3288.99666	0.15871
3287.71089	0.15865
3286.42512	0.15868
3285.13935	0.15891
3283.85358	0.15925
3282.56781	0.15940
3281.28205	0.15913
3279.99628	0.15853
3278.71051	0.15798
3277.42474	0.15774
3276.13897	0.15781
3274.85320	0.15800
3273.56743	0.15811
3272.28166	0.15803
3270.99590	0.15771
3269.71013	0.15720
3268.42436	0.15661
3267.13859	0.15611
3265.85282	0.15592
3264.56705	0.15607
3263.28128	0.15639
3261.99551	0.15661
3260.70974	0.15654
3259.42398	0.15620
3258.13821	0.15569
3256.85244	0.15513
3255.56667	0.15460
3254.28090	0.15415
3252.99513	0.15375
3251.70936	0.15326
3250.42359	0.15254
3249.13783	0.15157
3247.85206	0.15053
3246.56629	0.14971
3245.28052	0.14933
3243.99475	0.14933
3242.70898	0.14945
3241.42321	0.14943
3240.13744	0.14918
3238.85167	0.14878
3237.56591	0.14836
3236.28014	0.14799
3234.99437	0.14767
3233.70860	0.14728
3232.42283	0.14679
3231.13706	0.14621
3229.85129	0.14562
3228.56552	0.14507
3227.27976	0.14462
3225.99399	0.14433
3224.70822	0.14418
3223.42245	0.14407
3222.13668	0.14387
3220.85091	0.14350
3219.56514	0.14301
3218.27937	0.14253
3216.99360	0.14221
3215.70784	0.14212
3214.42207	0.14219
3213.13630	0.14226
3211.85053	0.14209
3210.56476	0.14160
3209.27899	0.14091
3207.99322	0.14027
3206.70745	0.13988
3205.42169	0.13973
3204.13592	0.13970
3202.85015	0.13968
3201.56438	0.13969
3200.27861	0.13975
3198.99284	0.13970
3197.70707	0.13934
3196.42130	0.13866
3195.13553	0.13782
3193.84977	0.13707
3192.56400	0.13656
3191.27823	0.13625
3189.99246	0.13600
3188.70669	0.13574
3187.42092	0.13551
3186.13515	0.13533
3184.84938	0.13502
3183.56362	0.13434
3182.27785	0.13328
3180.99208	0.13220
3179.70631	0.13150
3178.42054	0.13119
3177.13477	0.13094
3175.84900	0.13048
3174.56323	0.12983
3173.27746	0.12922
3171.99170	0.12875
3170.70593	0.12834
3169.42016	0.12794
3168.13439	0.12758
3166.84862	0.12730
3165.56285	0.12705
3164.27708	0.12667
3162.99131	0.12604
3161.70555	0.12519
3160.41978	0.12432
3159.13401	0.12361
3157.84824	0.12312
3156.56247	0.12268
3155.27670	0.12215
3153.99093	0.12154
3152.70516	0.12096
3151.41939	0.12044
3150.13363	0.11995
3148.84786	0.11945
3147.56209	0.11904
3146.27632	0.11876
3144.99055	0.11856
3143.70478	0.11827
3142.41901	0.11785
3141.13324	0.11736
3139.84748	0.11690
3138.56171	0.11651
3137.27594	0.11618
3135.99017	0.11586
3134.70440	0.11551
3133.41863	0.11521
3132.13286	0.11507
3130.84709	0.11508
3129.56132	0.11509
3128.27556	0.11491
3126.98979	0.11447
3125.70402	0.11388
3124.41825	0.11329
3123.13248	0.11273
3121.84671	0.11225
3120.56094	0.11187
3119.27517	0.11167
3117.98940	0.11166
3116.70364	0.11183
3115.41787	0.11212
3114.13210	0.11242
3112.84633	0.11252
3111.56056	0.11225
3110.27479	0.11169
3108.98902	0.11117
3107.70325	0.11098
3106.41749	0.11112
3105.13172	0.11134
3103.84595	0.11141
3102.56018	0.11130
3101.27441	0.11117
3099.98864	0.11117
3098.70287	0.11134
3097.41710	0.11158
3096.13133	0.11185
3094.84557	0.11217
3093.55980	0.11258
3092.27403	0.11307
3090.98826	0.11349
3089.70249	0.11372
3088.41672	0.11377
3087.13095	0.11370
3085.84518	0.11353
3084.55942	0.11329
3083.27365	0.11308
3081.98788	0.11311
3080.70211	0.11344
3079.41634	0.11389
3078.13057	0.11413
3076.84480	0.11402
3075.55903	0.11368
3074.27326	0.11339
3072.98750	0.11333
3071.70173	0.11344
3070.41596	0.11358
3069.13019	0.11362
3067.84442	0.11352
3066.55865	0.11328
3065.27288	0.11295
3063.98711	0.11263
3062.70135	0.11246
3061.41558	0.11253
3060.12981	0.11282
3058.84404	0.11311
3057.55827	0.11319
3056.27250	0.11294
3054.98673	0.11245
3053.70096	0.11186
3052.41519	0.11132
3051.12943	0.11086
3049.84366	0.11041
3048.55789	0.10987
3047.27212	0.10921
3045.98635	0.10855
3044.70058	0.10799
3043.41481	0.10756
3042.12904	0.10715
3040.84328	0.10663
3039.55751	0.10594
3038.27174	0.10516
3036.98597	0.10440
3035.70020	0.10374
3034.41443	0.10319
3033.12866	0.10278
3031.84289	0.10253
3030.55712	0.10235
3029.27136	0.10203
3027.98559	0.10142
3026.69982	0.10060
3025.41405	0.09982
3024.12828	0.09930
3022.84251	0.09906
3021.55674	0.09898
3020.27097	0.09887
3018.98521	0.09863
3017.69944	0.09826
3016.41367	0.09779
3015.12790	0.09724
3013.84213	0.09665
3012.55636	0.09610
3011.27059	0.09571
3009.98482	0.09556
3008.69905	0.09557
3007.41329	0.09558
3006.12752	0.09550
3004.84175	0.09538
3003.55598	0.09527
3002.27021	0.09514
3000.98444	0.09492
2999.69867	0.09465
2998.41290	0.09458
2997.12714	0.09464
2995.84137	0.09469
2994.55560	0.09459
2993.26983	0.09438
2991.98406	0.09421
2990.69829	0.09426
2989.41252	0.09456
2988.12675	0.09501
2986.84098	0.09550
2985.55522	0.09596
2984.26945	0.09637
2982.98368	0.09671
2981.69791	0.09698
2980.41214	0.09725
2979.12637	0.09759
2977.84060	0.09797
2976.55483	0.09830
2975.26907	0.09854
2973.98330	0.09879
2972.69753	0.09920
2971.41176	0.09986
2970.12599	0.10071
2968.84022	0.10161
2967.55445	0.10247
2966.26868	0.10328
2964.98291	0.10402
2963.69715	0.10471
2962.41138	0.10531
2961.12561	0.10577
2959.83984	0.10609
2958.55407	0.10639
2957.26830	0.10675
2955.98253	0.10713
2954.69676	0.10738
2953.41100	0.10749
2952.12523	0.10751
2950.83946	0.10746
2949.55369	0.10735
2948.26792	0.10727
2946.98215	0.10732
2945.69638	0.10751
2944.41061	0.10775
2943.12484	0.10800
2941.83908	0.10834
2940.55331	0.10887
2939.26754	0.10957
2937.98177	0.11037
2936.69600	0.11126
2935.41023	0.11218
2934.12446	0.11302
2932.83869	0.11368
2931.55293	0.11419
2930.26716	0.11472
2928.98139	0.11531
2927.69562	0.11582
2926.40985	0.11607
2925.12408	0.11604
2923.83831	0.11584
2922.55254	0.11562
2921.26677	0.11546
2919.98101	0.11526
2918.69524	0.11484
2917.40947	0.11412
2916.12370	0.11320
2914.83793	0.11219
2913.55216	0.11111
2912.26639	0.10993
2910.98062	0.10867
2909.69486	0.10744
2908.40909	0.10637
2907.12332	0.10551
2905.83755	0.10485
2904.55178	0.10433
2903.26601	0.10390
2901.98024	0.10353
2900.69447	0.10316
2899.40870	0.10276
2898.12294	0.10233
2896.83717	0.10198
2895.55140	0.10170
2894.26563	0.10142
2892.97986	0.10099
2891.69409	0.10042
2890.40832	0.09982
2889.12255	0.09936
2887.83678	0.09915
2886.55102	0.09914
2885.26525	0.09915
2883.97948	0.09902
2882.69371	0.09871
2881.40794	0.09838
2880.12217	0.09820
2878.83640	0.09823
2877.55063	0.09831
2876.26487	0.09829
2874.97910	0.09813
2873.69333	0.09794
2872.40756	0.09784
2871.12179	0.09782
2869.83602	0.09777
2868.55025	0.09768
2867.26448	0.09758
2865.97871	0.09748
2864.69295	0.09729
2863.40718	0.09693
2862.12141	0.09653
2860.83564	0.09627
2859.54987	0.09626
2858.26410	0.09643
2856.97833	0.09667
2855.69256	0.09695
2854.40680	0.09734
2853.12103	0.09779
2851.83526	0.09804
2850.54949	0.09781
2849.26372	0.09694
2847.97795	0.09556
2846.69218	0.09396
2845.40641	0.09249
2844.12064	0.09139
2842.83488	0.09069
2841.54911	0.09021
2840.26334	0.08972
2838.97757	0.08914
2837.69180	0.08853
2836.40603	0.08800
2835.12026	0.08760
2833.83449	0.08723
2832.54873	0.08671
2831.26296	0.08593
2829.97719	0.08498
2828.69142	0.08418
2827.40565	0.08375
2826.11988	0.08368
2824.83411	0.08375
2823.54834	0.08374
2822.26257	0.08355
2820.97681	0.08316
2819.69104	0.08262
2818.40527	0.08209
2817.11950	0.08175
2815.83373	0.08169
2814.54796	0.08179
2813.26219	0.08189
2811.97642	0.08191
2810.69066	0.08180
2809.40489	0.08160
2808.11912	0.08143
2806.83335	0.08143
2805.54758	0.08166
2804.26181	0.08200
2802.97604	0.08216
2801.69027	0.08192
2800.40450	0.08135
2799.11874	0.08072
2797.83297	0.08028
2796.54720	0.08009
2795.26143	0.08003
2793.97566	0.07997
2792.68989	0.07982
2791.40412	0.07959
2790.11835	0.07936
2788.83259	0.07915
2787.54682	0.07896
2786.26105	0.07879
2784.97528	0.07868
2783.68951	0.07869
2782.40374	0.07876
2781.11797	0.07878
2779.83220	0.07865
2778.54643	0.07835
2777.26067	0.07794
2775.97490	0.07749
2774.68913	0.07707
2773.40336	0.07667
2772.11759	0.07635
2770.83182	0.07619
2769.54605	0.07620
2768.26028	0.07630
2766.97452	0.07635
2765.68875	0.07624
2764.40298	0.07600
2763.11721	0.07578
2761.83144	0.07567
2760.54567	0.07563
2759.25990	0.07559
2757.97413	0.07544
2756.68836	0.07514
2755.40260	0.07473
2754.11683	0.07428
2752.83106	0.07391
2751.54529	0.07367
2750.25952	0.07354
2748.97375	0.07353
2747.68798	0.07362
2746.40221	0.07374
2745.11645	0.07374
2743.83068	0.07357
2742.54491	0.07334
2741.25914	0.07319
2739.97337	0.07313
2738.68760	0.07309
2737.40183	0.07303
2736.11606	0.07300
2734.83029	0.07306
2733.54453	0.07316
2732.25876	0.07309
2730.97299	0.07274
2729.68722	0.07223
2728.40145	0.07180
2727.11568	0.07160
2725.82991	0.07154
2724.54414	0.07147
2723.25838	0.07130
2721.97261	0.07105
2720.68684	0.07077
2719.40107	0.07054
2718.11530	0.07039
2716.82953	0.07027
2715.54376	0.07010
2714.25799	0.06990
2712.97222	0.06975
2711.68646	0.06971
2710.40069	0.06969
2709.11492	0.06961
2707.82915	0.06950
2706.54338	0.06945
2705.25761	0.06942
2703.97184	0.06928
2702.68607	0.06896
2701.40031	0.06859
2700.11454	0.06833
2698.82877	0.06824
2697.54300	0.06826
2696.25723	0.06827
2694.97146	0.06821
2693.68569	0.06804
2692.39992	0.06780
2691.11415	0.06755
2689.82839	0.06735
2688.54262	0.06725
2687.25685	0.06722
2685.97108	0.06722
2684.68531	0.06720
2683.39954	0.06719
2682.11377	0.06722
2680.82800	0.06722
2679.54224	0.06710
2678.25647	0.06682
2676.97070	0.06651
2675.68493	0.06630
2674.39916	0.06625
2673.11339	0.06628
2671.82762	0.06626
2670.54185	0.06611
2669.25608	0.06591
2667.97032	0.06580
2666.68455	0.06588
2665.39878	0.06611
2664.11301	0.06635
2662.82724	0.06650
2661.54147	0.06650
2660.25570	0.06638
2658.96993	0.06621
2657.68417	0.06599
2656.39840	0.06571
2655.11263	0.06533
2653.82686	0.06493
2652.54109	0.06464
2651.25532	0.06451
2649.96955	0.06448
2648.68378	0.06441
2647.39801	0.06417
2646.11225	0.06380
2644.82648	0.06344
2643.54071	0.06320
2642.25494	0.06311
2640.96917	0.06309
2639.68340	0.06303
2638.39763	0.06280
2637.11186	0.06238
2635.82609	0.06182
2634.54033	0.06124
2633.25456	0.06076
2631.96879	0.06048
2630.68302	0.06039
2629.39725	0.06037
2628.11148	0.06026
2626.82571	0.06001
2625.53994	0.05970
2624.25418	0.05944
2622.96841	0.05933
2621.68264	0.05937
2620.39687	0.05941
2619.11110	0.05930
2617.82533	0.05899
2616.53956	0.05856
2615.25379	0.05813
2613.96802	0.05780
2612.68226	0.05759
2611.39649	0.05740
2610.11072	0.05714
2608.82495	0.05685
2607.53918	0.05670
2606.25341	0.05674
2604.96764	0.05684
2603.68187	0.05686
2602.39611	0.05674
2601.11034	0.05654
2599.82457	0.05630
2598.53880	0.05602
2597.25303	0.05573
2595.96726	0.05553
2594.68149	0.05551
2593.39572	0.05556
2592.10995	0.05546
2590.82419	0.05514
2589.53842	0.05474
2588.25265	0.05447
2586.96688	0.05440
2585.68111	0.05440
2584.39534	0.05438
2583.10957	0.05427
2581.82380	0.05410
2580.53804	0.05391
2579.25227	0.05380
2577.96650	0.05388
2576.68073	0.05409
2575.39496	0.05421
2574.10919	0.05402
2572.82342	0.05349
2571.53765	0.05284
2570.25188	0.05234
2568.96612	0.05209
2567.68035	0.05199
2566.39458	0.05184
2565.10881	0.05152
2563.82304	0.05117
2562.53727	0.05107
2561.25150	0.05139
2559.96573	0.05184
2558.67997	0.05203
2557.39420	0.05187
2556.10843	0.05164
2554.82266	0.05155
2553.53689	0.05157
2552.25112	0.05153
2550.96535	0.05135
2549.67958	0.05107
2548.39381	0.05074
2547.10805	0.05050
2545.82228	0.05053
2544.53651	0.05086
2543.25074	0.05126
2541.96497	0.05138
2540.67920	0.05117
2539.39343	0.05085
2538.10766	0.05064
2536.82190	0.05055
2535.53613	0.05040
2534.25036	0.05009
2532.96459	0.04972
2531.67882	0.04949
2530.39305	0.04958
2529.10728	0.04995
2527.82151	0.05032
2526.53574	0.05030
2525.24998	0.04971
2523.96421	0.04882
2522.67844	0.04813
2521.39267	0.04803
2520.10690	0.04844
2518.82113	0.04897
2517.53536	0.04923
2516.24959	0.04911
2514.96383	0.04879
2513.67806	0.04853
2512.39229	0.04846
2511.10652	0.04850
2509.82075	0.04848
2508.53498	0.04833
2507.24921	0.04810
2505.96344	0.04791
2504.67767	0.04783
2503.39191	0.04782
2502.10614	0.04776
2500.82037	0.04757
2499.53460	0.04733
2498.24883	0.04716
2496.96306	0.04713
2495.67729	0.04724
2494.39152	0.04742
2493.10576	0.04755
2491.81999	0.04753
2490.53422	0.04732
2489.24845	0.04696
2487.96268	0.04647
2486.67691	0.04591
2485.39114	0.04545
2484.10537	0.04531
2482.81960	0.04551
2481.53384	0.04580
2480.24807	0.04603
2478.96230	0.04632
2477.67653	0.04679
2476.39076	0.04726
2475.10499	0.04736
2473.81922	0.04689
2472.53345	0.04602
2471.24769	0.04513
2469.96192	0.04456
2468.67615	0.04448
2467.39038	0.04480
2466.10461	0.04523
2464.81884	0.04542
2463.53307	0.04523
2462.24730	0.04490
2460.96153	0.04478
2459.67577	0.04504
2458.39000	0.04541
2457.10423	0.04553
2455.81846	0.04531
2454.53269	0.04499
2453.24692	0.04481
2451.96115	0.04480
2450.67538	0.04480
2449.38962	0.04475
2448.10385	0.04470
2446.81808	0.04472
2445.53231	0.04473
2444.24654	0.04462
2442.96077	0.04441
2441.67500	0.04424
2440.38923	0.04425
2439.10346	0.04444
2437.81770	0.04466
2436.53193	0.04473
2435.24616	0.04465
2433.96039	0.04462
2432.67462	0.04481
2431.38885	0.04520
2430.10308	0.04555
2428.81731	0.04564
2427.53155	0.04545
2426.24578	0.04507
2424.96001	0.04464
2423.67424	0.04433
2422.38847	0.04415
2421.10270	0.04391
2419.81693	0.04347
2418.53116	0.04298
2417.24539	0.04276
2415.95963	0.04298
2414.67386	0.04347
2413.38809	0.04398
2412.10232	0.04434
2410.81655	0.04454
2409.53078	0.04461
2408.24501	0.04456
2406.95924	0.04441
2405.67347	0.04426
2404.38771	0.04418
2403.10194	0.04418
2401.81617	0.04421
2400.53040	0.04420
2399.24463	0.04387
2397.95886	0.04387
2396.67309	0.04405
2395.38732	0.04413
2394.10156	0.04404
2392.81579	0.04384
2391.53002	0.04371
2390.24425	0.04386
2388.95848	0.04423
2387.67271	0.04457
2386.38694	0.04464
2385.10117	0.04447
2383.81540	0.04432
2382.52964	0.04441
2381.24387	0.04470
2379.95810	0.04505
2378.67233	0.04538
2377.38656	0.04572
2376.10079	0.04610
2374.81502	0.04645
2373.52925	0.04693
2372.24349	0.04752
2370.95772	0.04810
2369.67195	0.04845
2368.38618	0.04863
2367.10041	0.04886
2365.81464	0.04915
2364.52887	0.04939
2363.24310	0.04950
2361.95733	0.04959
2360.67157	0.04990
2359.38580	0.05012
2358.10003	0.04994
2356.81426	0.04935
2355.52849	0.04849
2354.24272	0.04752
2352.95695	0.04671
2351.67118	0.04646
2350.38542	0.04658
2349.09965	0.04665
2347.81388	0.04682
2346.52811	0.04769
2345.24234	0.04870
2343.95657	0.04871
2342.67080	0.04791
2341.38503	0.04804
2340.09926	0.04905
2338.81350	0.04869
2337.52773	0.04713
2336.24196	0.04729
2334.95619	0.04853
2333.67042	0.04782
2332.38465	0.04588
2331.09888	0.04575
2329.81311	0.04566
2328.52735	0.04415
2327.24158	0.04428
2325.95581	0.04564
2324.67004	0.04599
2323.38427	0.04653
2322.09850	0.04761
2320.81273	0.04744
2319.52696	0.04733
2318.24119	0.04744
2316.95543	0.04695
2315.66966	0.04674
2314.38389	0.04656
2313.09812	0.04589
2311.81235	0.04532
2310.52658	0.04456
2309.24081	0.04377
2307.95504	0.04321
2306.66928	0.04263
2305.38351	0.04228
2304.09774	0.04203
2302.81197	0.04172
2301.52620	0.04137
2300.24043	0.04087
2298.95466	0.04031
2297.66889	0.03971
2296.38312	0.03915
2295.09736	0.03877
2293.81159	0.03859
2292.52582	0.03858
2291.24005	0.03863
2289.95428	0.03871
2288.66851	0.03878
2287.38274	0.03879
2286.09697	0.03875
2284.81121	0.03878
2283.52544	0.03898
2282.23967	0.03929
2280.95390	0.03953
2279.66813	0.03954
2278.38236	0.03920
2277.09659	0.03856
2275.81082	0.03781
2274.52505	0.03727
2273.23929	0.03707
2271.95352	0.03708
2270.66775	0.03702
2269.38198	0.03667
2268.09621	0.03603
2266.81044	0.03524
2265.52467	0.03456
2264.23890	0.03417
2262.95314	0.03405
2261.66737	0.03398
2260.38160	0.03379
2259.09583	0.03355
2257.81006	0.03338
2256.52429	0.03314
2255.23852	0.03260
2253.95275	0.03182
2252.66698	0.03101
2251.38122	0.03040
2250.09545	0.03054
2248.80968	0.03168
2247.52391	0.03208
2246.23814	0.03253
2244.95237	0.03277
2243.66660	0.03269
2242.38083	0.03237
2241.09507	0.03183
2239.80930	0.03102
2238.52353	0.03016
2237.23776	0.02976
2235.95199	0.03001
2234.66622	0.03054
2233.38045	0.03092
2232.09468	0.03115
2230.80891	0.03141
2229.52315	0.03155
2228.23738	0.03119
2226.95161	0.03023
2225.66584	0.02910
2224.38007	0.02836
2223.09430	0.02832
2221.80853	0.02879
2220.52276	0.02924
2219.23700	0.02917
2217.95123	0.02858
2216.66546	0.02794
2215.37969	0.02768
2214.09392	0.02775
2212.80815	0.02772
2211.52238	0.02733
2210.23661	0.02688
2208.95084	0.02686
2207.66508	0.02741
2206.37931	0.02817
2205.09354	0.02871
2203.80777	0.02883
2202.52200	0.02856
2201.23623	0.02799
2199.95046	0.02726
2198.66469	0.02670
2197.37893	0.02663
2196.09316	0.02697
2194.80739	0.02726
2193.52162	0.02709
2192.23585	0.02651
2190.95008	0.02585
2189.66431	0.02546
2188.37854	0.02551
2187.09277	0.02594
2185.80701	0.02651
2184.52124	0.02679
2183.23547	0.02655
2181.94970	0.02589
2180.66393	0.02520
2179.37816	0.02471
2178.09239	0.02438
2176.80662	0.02400
2175.52085	0.02357
2174.23509	0.02331
2172.94932	0.02330
2171.66355	0.02321
2170.37778	0.02280
2169.09201	0.02235
2167.80624	0.02244
2166.52047	0.02306
2165.23470	0.02348
2163.94894	0.02301
2162.66317	0.02168
2161.37740	0.02009
2160.09163	0.01894
2158.80586	0.01883
2157.52009	0.01986
2156.23432	0.02130
2154.94855	0.02213
2153.66278	0.02203
2152.37702	0.02168
2151.09125	0.02176
2149.80548	0.02222
2148.51971	0.02258
2147.23394	0.02280
2145.94817	0.02329
2144.66240	0.02413
2143.37663	0.02479
2142.09087	0.02478
2140.80510	0.02430
2139.51933	0.02395
2138.23356	0.02414
2136.94779	0.02476
2135.66202	0.02542
2134.37625	0.02578
2133.09048	0.02573
2131.80471	0.02544
2130.51895	0.02525
2129.23318	0.02546
2127.94741	0.02607
2126.66164	0.02679
2125.37587	0.02728
2124.09010	0.02751
2122.80433	0.02779
2121.51856	0.02839
2120.23280	0.02920
2118.94703	0.02981
2117.66126	0.02995
2116.37549	0.02965
2115.08972	0.02915
2113.80395	0.02867
2112.51818	0.02840
2111.23241	0.02835
2109.94664	0.02835
2108.66088	0.02824
2107.37511	0.02802
2106.08934	0.02783
2104.80357	0.02767
2103.51780	0.02735
2102.23203	0.02674
2100.94626	0.02625
2099.66049	0.02953
2098.37473	0.03138
2097.08896	0.03142
2095.80319	0.03066
2094.51742	0.02951
2093.23165	0.02831
2091.94588	0.02729
2090.66011	0.02657
2089.37434	0.02622
2088.08857	0.02617
2086.80281	0.02627
2085.51704	0.02634
2084.23127	0.02635
2082.94550	0.02641
2081.65973	0.02656
2080.37396	0.02680
2079.08819	0.02714
2077.80242	0.02759
2076.51666	0.02812
2075.23089	0.02876
2073.94512	0.02950
2072.65935	0.03020
2071.37358	0.03063
2070.08781	0.03062
2068.80204	0.03018
2067.51627	0.02939
2066.23050	0.02840
2064.94474	0.02745
2063.65897	0.02682
2062.37320	0.02657
2061.08743	0.02646
2059.80166	0.02616
2058.51589	0.02553
2057.23012	0.02463
2055.94435	0.02357
2054.65859	0.02269
2053.37282	0.02251
2052.08705	0.02349
2050.80128	0.02532
2049.51551	0.02703
2048.22974	0.02769
2046.94397	0.02720
2045.65820	0.02617
2044.37243	0.02527
2043.08667	0.02473
2041.80090	0.02444
2040.51513	0.02435
2039.22936	0.02452
2037.94359	0.02501
2036.65782	0.02566
2035.37205	0.02613
2034.08628	0.02617
2032.80052	0.02584
2031.51475	0.02531
2030.22898	0.02466
2028.94321	0.02385
2027.65744	0.02287
2026.37167	0.02185
2025.08590	0.02099
2023.80013	0.02054
2022.51436	0.02066
2021.22860	0.02130
2019.94283	0.02223
2018.65706	0.02313
2017.37129	0.02374
2016.08552	0.02404
2014.79975	0.02429
2013.51398	0.02492
2012.22821	0.02620
2010.94245	0.02796
2009.65668	0.02954
2008.37091	0.03025
2007.08514	0.02984
2005.79937	0.02862
2004.51360	0.02706
2003.22783	0.02540
2001.94206	0.02369
2000.65629	0.02216
1999.37053	0.02126
1998.08476	0.02125
1996.79899	0.02180
1995.51322	0.02222
1994.22745	0.02204
1992.94168	0.02150
1991.65591	0.02101
1990.37014	0.02064
1989.08438	0.02018
1987.79861	0.01968
1986.51284	0.01947
1985.22707	0.01979
1983.94130	0.02069
1982.65553	0.02226
1981.36976	0.02458
1980.08399	0.02737
1978.79822	0.02982
1977.51246	0.03108
1976.22669	0.03095
1974.94092	0.02993
1973.65515	0.02870
1972.36938	0.02758
1971.08361	0.02640
1969.79784	0.02497
1968.51207	0.02351
1967.22631	0.02258
1965.94054	0.02252
1964.65477	0.02302
1963.36900	0.02340
1962.08323	0.02313
1960.79746	0.02225
1959.51169	0.02120
1958.22592	0.02048
1956.94015	0.02032
1955.65439	0.02068
1954.36862	0.02139
1953.08285	0.02222
1951.79708	0.02297
1950.51131	0.02354
1949.22554	0.02390
1947.93977	0.02403
1946.65400	0.02393
1945.36823	0.02366
1944.08247	0.02351
1942.79670	0.02381
1941.51093	0.02456
1940.22516	0.02536
1938.93939	0.02578
1937.65362	0.02572
1936.36785	0.02542
1935.08208	0.02518
1933.79632	0.02516
1932.51055	0.02533
1931.22478	0.02559
1929.93901	0.02584
1928.65324	0.02605
1927.36747	0.02615
1926.08170	0.02607
1924.79593	0.02578
1923.51016	0.02544
1922.22440	0.02533
1920.93863	0.02555
1919.65286	0.02595
1918.36709	0.02625
1917.08132	0.02624
1915.79555	0.02587
1914.50978	0.02537
1913.22401	0.02506
1911.93825	0.02514
1910.65248	0.02556
1909.36671	0.02609
1908.08094	0.02651
1906.79517	0.02668
1905.50940	0.02664
1904.22363	0.02650
1902.93786	0.02640
1901.65209	0.02637
1900.36633	0.02641
1899.08056	0.02649
1897.79479	0.02656
1896.50902	0.02652
1895.22325	0.02636
1893.93748	0.02614
1892.65171	0.02598
1891.36594	0.02593
1890.08018	0.02599
1888.79441	0.02614
1887.50864	0.02626
1886.22287	0.02623
1884.93710	0.02607
1883.65133	0.02590
1882.36556	0.02581
1881.07979	0.02580
1879.79402	0.02585
1878.50826	0.02596
1877.22249	0.02608
1875.93672	0.02616
1874.65095	0.02621
1873.36518	0.02627
1872.07941	0.02634
1870.79364	0.02632
1869.50787	0.02621
1868.22211	0.02604
1866.93634	0.02583
1865.65057	0.02557
1864.36480	0.02535
1863.07903	0.02526
1861.79326	0.02528
1860.50749	0.02536
1859.22172	0.02548
1857.93595	0.02566
1856.65019	0.02583
1855.36442	0.02583
1854.07865	0.02560
1852.79288	0.02521
1851.50711	0.02486
1850.22134	0.02473
1848.93557	0.02488
1847.64980	0.02521
1846.36404	0.02547
1845.07827	0.02549
1843.79250	0.02533
1842.50673	0.02512
1841.22096	0.02486
1839.93519	0.02456
1838.64942	0.02431
1837.36365	0.02417
1836.07788	0.02414
1834.79212	0.02422
1833.50635	0.02433
1832.22058	0.02443
1830.93481	0.02454
1829.64904	0.02482
1828.36327	0.02530
1827.07750	0.02583
1825.79173	0.02629
1824.50597	0.02669
1823.22020	0.02709
1821.93443	0.02741
1820.64866	0.02753
1819.36289	0.02731
1818.07712	0.02665
1816.79135	0.02571
1815.50558	0.02479
1814.21981	0.02411
1812.93405	0.02370
1811.64828	0.02348
1810.36251	0.02338
1809.07674	0.02336
1807.79097	0.02339
1806.50520	0.02347
1805.21943	0.02357
1803.93366	0.02365
1802.64790	0.02374
1801.36213	0.02385
1800.07636	0.02401
1798.79059	0.02414
1797.50482	0.02422
1796.21905	0.02428
1794.93328	0.02436
1793.64751	0.02444
1792.36174	0.02456
1791.07598	0.02474
1789.79021	0.02490
1788.50444	0.02493
1787.21867	0.02485
1785.93290	0.02472
1784.64713	0.02465
1783.36136	0.02470
1782.07559	0.02478
1780.78983	0.02483
1779.50406	0.02486
1778.21829	0.02483
1776.93252	0.02472
1775.64675	0.02450
1774.36098	0.02416
1773.07521	0.02386
1771.78944	0.02379
1770.50367	0.02384
1769.21791	0.02382
1767.93214	0.02371
1766.64637	0.02371
1765.36060	0.02379
1764.07483	0.02381
1762.78906	0.02375
1761.50329	0.02373
1760.21752	0.02380
1758.93176	0.02386
1757.64599	0.02393
1756.36022	0.02411
1755.07445	0.02443
1753.78868	0.02472
1752.50291	0.02489
1751.21714	0.02508
1749.93137	0.02538
1748.64560	0.02570
1747.35984	0.02596
1746.07407	0.02619
1744.78830	0.02646
1743.50253	0.02676
1742.21676	0.02705
1740.93099	0.02731
1739.64522	0.02767
1738.35945	0.02820
1737.07369	0.02867
1735.78792	0.02883
1734.50215	0.02892
1733.21638	0.02930
1731.93061	0.02991
1730.64484	0.03039
1729.35907	0.03066
1728.07330	0.03085
1726.78753	0.03103
1725.50177	0.03118
1724.21600	0.03138
1722.93023	0.03175
1721.64446	0.03230
1720.35869	0.03284
1719.07292	0.03323
1717.78715	0.03363
1716.50138	0.03417
1715.21561	0.03478
1713.92985	0.03534
1712.64408	0.03593
1711.35831	0.03669
1710.07254	0.03766
1708.78677	0.03880
1707.50100	0.04006
1706.21523	0.04149
1704.92946	0.04323
1703.64370	0.04520
1702.35793	0.04711
1701.07216	0.04901
1699.78639	0.05127
1698.50062	0.05376
1697.21485	0.05604
1695.92908	0.05820
1694.64331	0.06064
1693.35754	0.06318
1692.07178	0.06543
1690.78601	0.06755
1689.50024	0.06991
1688.21447	0.07253
1686.92870	0.07508
1685.64293	0.07747
1684.35716	0.08005
1683.07139	0.08297
1681.78563	0.08594
1680.49986	0.08877
1679.21409	0.09164
1677.92832	0.09466
1676.64255	0.09770
1675.35678	0.10079
1674.07101	0.10401
1672.78524	0.10725
1671.49947	0.11037
1670.21371	0.11350
1668.92794	0.11681
1667.64217	0.12027
1666.35640	0.12369
1665.07063	0.12692
1663.78486	0.12999
1662.49909	0.13302
1661.21332	0.13602
1659.92756	0.13889
1658.64179	0.14164
1657.35602	0.14433
1656.07025	0.14677
1654.78448	0.14878
1653.49871	0.15066
1652.21294	0.15285
1650.92717	0.15514
1649.64140	0.15692
1648.35564	0.15807
1647.06987	0.15909
1645.78410	0.16031
1644.49833	0.16164
1643.21256	0.16285
1641.92679	0.16387
1640.64102	0.16482
1639.35525	0.16574
1638.06949	0.16648
1636.78372	0.16698
1635.49795	0.16748
1634.21218	0.16808
1632.92641	0.16857
1631.64064	0.16868
1630.35487	0.16842
1629.06910	0.16785
1627.78333	0.16699
1626.49757	0.16576
1625.21180	0.16410
1623.92603	0.16208
1622.64026	0.15990
1621.35449	0.15761
1620.06872	0.15504
1618.78295	0.15205
1617.49718	0.14883
1616.21142	0.14575
1614.92565	0.14286
1613.63988	0.13986
1612.35411	0.13665
1611.06834	0.13337
1609.78257	0.13015
1608.49680	0.12697
1607.21103	0.12380
1605.92526	0.12067
1604.63950	0.11764
1603.35373	0.11478
1602.06796	0.11216
1600.78219	0.10979
1599.49642	0.10766
1598.21065	0.10572
1596.92488	0.10396
1595.63911	0.10234
1594.35335	0.10082
1593.06758	0.09937
1591.78181	0.09802
1590.49604	0.09685
1589.21027	0.09590
1587.92450	0.09517
1586.63873	0.09464
1585.35296	0.09426
1584.06719	0.09402
1582.78143	0.09393
1581.49566	0.09407
1580.20989	0.09444
1578.92412	0.09491
1577.63835	0.09531
1576.35258	0.09586
1575.06681	0.09680
1573.78104	0.09800
1572.49528	0.09913
1571.20951	0.10022
1569.92374	0.10152
1568.63797	0.10317
1567.35220	0.10498
1566.06643	0.10677
1564.78066	0.10861
1563.49489	0.11059
1562.20912	0.11254
1560.92336	0.11430
1559.63759	0.11606
1558.35182	0.11814
1557.06605	0.12037
1555.78028	0.12234
1554.49451	0.12403
1553.20874	0.12574
1551.92297	0.12749
1550.63721	0.12913
1549.35144	0.13063
1548.06567	0.13206
1546.77990	0.13337
1545.49413	0.13459
1544.20836	0.13577
1542.92259	0.13682
1541.63682	0.13764
1540.35105	0.13828
1539.06529	0.13902
1537.77952	0.13983
1536.49375	0.14039
1535.20798	0.14054
1533.92221	0.14056
1532.63644	0.14071
1531.35067	0.14093
1530.06490	0.14099
1528.77914	0.14086
1527.49337	0.14065
1526.20760	0.14045
1524.92183	0.14026
1523.63606	0.13997
1522.35029	0.13955
1521.06452	0.13921
1519.77875	0.13898
1518.49298	0.13863
1517.20722	0.13801
1515.92145	0.13723
1514.63568	0.13630
1513.34991	0.13513
1512.06414	0.13375
1510.77837	0.13226
1509.49260	0.13055
1508.20683	0.12853
1506.92107	0.12639
1505.63530	0.12440
1504.34953	0.12249
1503.06376	0.12037
1501.77799	0.11799
1500.49222	0.11557
1499.20645	0.11321
1497.92068	0.11083
1496.63491	0.10842
1495.34915	0.10606
1494.06338	0.10375
1492.77761	0.10137
1491.49184	0.09895
1490.20607	0.09664
1488.92030	0.09448
1487.63453	0.09245
1486.34876	0.09055
1485.06299	0.08884
1483.77723	0.08734
1482.49146	0.08605
1481.20569	0.08497
1479.91992	0.08416
1478.63415	0.08363
1477.34838	0.08342
1476.06261	0.08352
1474.77684	0.08384
1473.49108	0.08435
1472.20531	0.08511
1470.91954	0.08614
1469.63377	0.08724
1468.34800	0.08823
1467.06223	0.08908
1465.77646	0.08986
1464.49069	0.09071
1463.20492	0.09166
1461.91916	0.09268
1460.63339	0.09371
1459.34762	0.09469
1458.06185	0.09568
1456.77608	0.09682
1455.49031	0.09808
1454.20454	0.09910
1452.91877	0.09973
1451.63301	0.10009
1450.34724	0.10035
1449.06147	0.10048
1447.77570	0.10046
1446.48993	0.10029
1445.20416	0.10000
1443.91839	0.09956
1442.63262	0.09902
1441.34685	0.09841
1440.06109	0.09770
1438.77532	0.09682
1437.48955	0.09581
1436.20378	0.09486
1434.91801	0.09398
1433.63224	0.09302
1432.34647	0.09195
1431.06070	0.09089
1429.77494	0.09000
1428.48917	0.08930
1427.20340	0.08874
1425.91763	0.08828
1424.63186	0.08796
1423.34609	0.08782
1422.06032	0.08777
1420.77455	0.08768
1419.48878	0.08763
1418.20302	0.08770
1416.91725	0.08785
1415.63148	0.08794
1414.34571	0.08800
1413.05994	0.08809
1411.77417	0.08820
1410.48840	0.08831
1409.20263	0.08843
1407.91687	0.08855
1406.63110	0.08866
1405.34533	0.08879
1404.05956	0.08899
1402.77379	0.08921
1401.48802	0.08937
1400.20225	0.08941
1398.91648	0.08941
1397.63071	0.08939
1396.34495	0.08931
1395.05918	0.08922
1393.77341	0.08920
1392.48764	0.08923
1391.20187	0.08920
1389.91610	0.08905
1388.63033	0.08884
1387.34456	0.08870
1386.05880	0.08863
1384.77303	0.08852
1383.48726	0.08827
1382.20149	0.08792
1380.91572	0.08752
1379.62995	0.08711
1378.34418	0.08674
1377.05841	0.08636
1375.77264	0.08593
1374.48688	0.08540
1373.20111	0.08479
1371.91534	0.08412
1370.62957	0.08341
1369.34380	0.08271
1368.05803	0.08203
1366.77226	0.08132
1365.48649	0.08052
1364.20073	0.07963
1362.91496	0.07875
1361.62919	0.07799
1360.34342	0.07736
1359.05765	0.07682
1357.77188	0.07634
1356.48611	0.07593
1355.20034	0.07560
1353.91457	0.07538
1352.62881	0.07530
1351.34304	0.07536
1350.05727	0.07552
1348.77150	0.07574
1347.48573	0.07600
1346.19996	0.07630
1344.91419	0.07661
1343.62842	0.07692
1342.34266	0.07722
1341.05689	0.07754
1339.77112	0.07786
1338.48535	0.07817
1337.19958	0.07838
1335.91381	0.07843
1334.62804	0.07832
1333.34227	0.07807
1332.05650	0.07772
1330.77074	0.07733
1329.48497	0.07695
1328.19920	0.07660
1326.91343	0.07628
1325.62766	0.07597
1324.34189	0.07572
1323.05612	0.07554
1321.77035	0.07542
1320.48459	0.07534
1319.19882	0.07527
1317.91305	0.07519
1316.62728	0.07512
1315.34151	0.07505
1314.05574	0.07500
1312.76997	0.07495
1311.48420	0.07486
1310.19843	0.07470
1308.91267	0.07447
1307.62690	0.07423
1306.34113	0.07402
1305.05536	0.07384
1303.76959	0.07368
1302.48382	0.07349
1301.19805	0.07328
1299.91228	0.07307
1298.62652	0.07292
1297.34075	0.07287
1296.05498	0.07287
1294.76921	0.07291
1293.48344	0.07298
1292.19767	0.07312
1290.91190	0.07333
1289.62613	0.07365
1288.34036	0.07403
1287.05460	0.07442
1285.76883	0.07478
1284.48306	0.07508
1283.19729	0.07534
1281.91152	0.07558
1280.62575	0.07581
1279.33998	0.07604
1278.05421	0.07626
1276.76845	0.07643
1275.48268	0.07656
1274.19691	0.07663
1272.91114	0.07671
1271.62537	0.07682
1270.33960	0.07704
1269.05383	0.07737
1267.76806	0.07779
1266.48229	0.07824
1265.19653	0.07869
1263.91076	0.07914
1262.62499	0.07963
1261.33922	0.08014
1260.05345	0.08062
1258.76768	0.08105
1257.48191	0.08144
1256.19614	0.08187
1254.91037	0.08240
1253.62461	0.08306
1252.33884	0.08383
1251.05307	0.08468
1249.76730	0.08556
1248.48153	0.08641
1247.19576	0.08723
1245.90999	0.08802
1244.62422	0.08881
1243.33846	0.08960
1242.05269	0.09039
1240.76692	0.09113
1239.48115	0.09180
1238.19538	0.09237
1236.90961	0.09282
1235.62384	0.09314
1234.33807	0.09333
1233.05230	0.09342
1231.76654	0.09340
1230.48077	0.09327
1229.19500	0.09298
1227.90923	0.09255
1226.62346	0.09201
1225.33769	0.09141
1224.05192	0.09072
1222.76615	0.08996
1221.48039	0.08915
1220.19462	0.08833
1218.90885	0.08754
1217.62308	0.08681
1216.33731	0.08616
1215.05154	0.08562
1213.76577	0.08520
1212.48000	0.08489
1211.19423	0.08467
1209.90847	0.08451
1208.62270	0.08441
1207.33693	0.08432
1206.05116	0.08422
1204.76539	0.08411
1203.47962	0.08401
1202.19385	0.08389
1200.90808	0.08346
1199.62232	0.08260
1198.33655	0.08209
1197.05078	0.08150
1195.76501	0.08083
1194.47924	0.08011
1193.19347	0.07940
1191.90770	0.07874
1190.62193	0.07815
1189.33616	0.07764
1188.05040	0.07714
1186.76463	0.07661
1185.47886	0.07608
1184.19309	0.07559
1182.90732	0.07520
1181.62155	0.07491
1180.33578	0.07470
1179.05001	0.07454
1177.76425	0.07442
1176.47848	0.07434
1175.19271	0.07428
1173.90694	0.07423
1172.62117	0.07417
1171.33540	0.07412
1170.04963	0.07412
1168.76386	0.07420
1167.47809	0.07431
1166.19233	0.07441
1164.90656	0.07445
1163.62079	0.07444
1162.33502	0.07438
1161.04925	0.07430
1159.76348	0.07418
1158.47771	0.07399
1157.19194	0.07373
1155.90618	0.07340
1154.62041	0.07305
1153.33464	0.07267
1152.04887	0.07223
1150.76310	0.07173
1149.47733	0.07120
1148.19156	0.07067
1146.90579	0.07016
1145.62002	0.06968
1144.33426	0.06922
1143.04849	0.06882
1141.76272	0.06850
1140.47695	0.06825
1139.19118	0.06805
1137.90541	0.06789
1136.61964	0.06776
1135.33387	0.06767
1134.04811	0.06761
1132.76234	0.06758
1131.47657	0.06757
1130.19080	0.06760
1128.90503	0.06767
1127.61926	0.06777
1126.33349	0.06785
1125.04772	0.06791
1123.76195	0.06796
1122.47619	0.06801
1121.19042	0.06809
1119.90465	0.06822
1118.61888	0.06838
1117.33311	0.06856
1116.04734	0.06881
1114.76157	0.06915
1113.47580	0.06956
1112.19004	0.06999
1110.90427	0.07039
1109.61850	0.07079
1108.33273	0.07121
1107.04696	0.07161
1105.76119	0.07195
1104.47542	0.07223
1103.18965	0.07248
1101.90388	0.07276
1100.61812	0.07310
1099.33235	0.07351
1098.04658	0.07392
1096.76081	0.07430
1095.47504	0.07463
1094.18927	0.07496
1092.90350	0.07532
1091.61773	0.07574
1090.33197	0.07624
1089.04620	0.07682
1087.76043	0.07750
1086.47466	0.07824
1085.18889	0.07895
1083.90312	0.07953
1082.61735	0.07996
1081.33158	0.08031
1080.04581	0.08064
1078.76005	0.08092
1077.47428	0.08108
1076.18851	0.08110
1074.90274	0.08100
1073.61697	0.08086
1072.33120	0.08070
1071.04543	0.08049
1069.75966	0.08023
1068.47390	0.07991
1067.18813	0.07956
1065.90236	0.07922
1064.61659	0.07893
1063.33082	0.07868
1062.04505	0.07848
1060.75928	0.07828
1059.47351	0.07810
1058.18774	0.07793
1056.90198	0.07775
1055.61621	0.07756
1054.33044	0.07737
1053.04467	0.07725
1051.75890	0.07722
1050.47313	0.07726
1049.18736	0.07736
1047.90159	0.07752
1046.61583	0.07773
1045.33006	0.07800
1044.04429	0.07834
1042.75852	0.07871
1041.47275	0.07909
1040.18698	0.07944
1038.90121	0.07964
1037.61544	0.07943
1036.32967	0.07851
1035.04391	0.07706
1033.75814	0.07592
1032.47237	0.07591
1031.18660	0.07701
1029.90083	0.07840
1028.61506	0.07923
1027.32929	0.07926
1026.04352	0.07872
1024.75775	0.07784
1023.47199	0.07678
1022.18622	0.07570
1020.90045	0.07466
1019.61468	0.07370
1018.32891	0.07276
1017.04314	0.07184
1015.75737	0.07094
1014.47160	0.07009
1013.18584	0.06928
1011.90007	0.06855
1010.61430	0.06789
1009.32853	0.06731
1008.04276	0.06678
1006.75699	0.06625
1005.47122	0.06568
1004.18545	0.06506
1002.89968	0.06442
1001.61392	0.06385
1000.32815	0.06339
999.04238	0.06302
997.75661	0.06271
996.47084	0.06244
995.18507	0.06222
993.89930	0.06202
992.61353	0.06180
991.32777	0.06155
990.04200	0.06131
988.75623	0.06107
987.47046	0.06084
986.18469	0.06063
984.89892	0.06048
983.61315	0.06038
982.32738	0.06031
981.04161	0.06026
979.75585	0.06027
978.47008	0.06038
977.18431	0.06055
975.89854	0.06072
974.61277	0.06080
973.32700	0.06074
972.04123	0.06059
970.75546	0.06039
969.46970	0.06023
968.18393	0.06011
966.89816	0.05996
965.61239	0.05973
964.32662	0.05941
963.04085	0.05905
961.75508	0.05873
960.46931	0.05846
959.18354	0.05823
957.89778	0.05799
956.61201	0.05769
955.32624	0.05733
954.04047	0.05696
952.75470	0.05661
951.46893	0.05629
950.18316	0.05601
948.89739	0.05576
947.61163	0.05555
946.32586	0.05539
945.04009	0.05522
943.75432	0.05497
942.46855	0.05464
941.18278	0.05429
939.89701	0.05397
938.61124	0.05369
937.32547	0.05343
936.03971	0.05320
934.75394	0.05301
933.46817	0.05283
932.18240	0.05264
930.89663	0.05243
929.61086	0.05221
928.32509	0.05199
927.03932	0.05177
925.75356	0.05158
924.46779	0.05143
923.18202	0.05128
921.89625	0.05111
920.61048	0.05089
919.32471	0.05065
918.03894	0.05042
916.75317	0.05018
915.46740	0.04990
914.18164	0.04955
912.89587	0.04921
911.61010	0.04892
910.32433	0.04870
909.03856	0.04850
907.75279	0.04830
906.46702	0.04810
905.18125	0.04791
903.89549	0.04773
902.60972	0.04755
901.32395	0.04739
900.03818	0.04726
898.75241	0.04712
897.46664	0.04693
896.18087	0.04672
894.89510	0.04655
893.60933	0.04639
892.32357	0.04622
891.03780	0.04603
889.75203	0.04591
888.46626	0.04589
887.18049	0.04593
885.89472	0.04592
884.60895	0.04582
883.32318	0.04570
882.03742	0.04568
880.75165	0.04584
879.46588	0.04613
878.18011	0.04636
876.89434	0.04633
875.60857	0.04601
874.32280	0.04557
873.03703	0.04523
871.75126	0.04509
870.46550	0.04508
869.17973	0.04507
867.89396	0.04495
866.60819	0.04466
865.32242	0.04427
864.03665	0.04393
862.75088	0.04380
861.46511	0.04386
860.17935	0.04398
858.89358	0.04400
857.60781	0.04389
856.32204	0.04375
855.03627	0.04364
853.75050	0.04358
852.46473	0.04351
851.17896	0.04344
849.89319	0.04337
848.60743	0.04334
847.32166	0.04330
846.03589	0.04323
844.75012	0.04309
843.46435	0.04290
842.17858	0.04271
840.89281	0.04259
839.60704	0.04253
838.32128	0.04250
837.03551	0.04248
835.74974	0.04245
834.46397	0.04243
833.17820	0.04243
831.89243	0.04244
830.60666	0.04245
829.32089	0.04243
828.03512	0.04237
826.74936	0.04233
825.46359	0.04236
824.17782	0.04249
822.89205	0.04270
821.60628	0.04297
820.32051	0.04324
819.03474	0.04345
817.74897	0.04354
816.46321	0.04353
815.17744	0.04347
813.89167	0.04342
812.60590	0.04342
811.32013	0.04348
810.03436	0.04358
808.74859	0.04367
807.46282	0.04373
806.17705	0.04376
804.89129	0.04379
803.60552	0.04387
802.31975	0.04398
801.03398	0.04408
799.74821	0.04417
798.46244	0.04426
797.17667	0.04437
795.89090	0.04449
794.60513	0.04464
793.31937	0.04479
792.03360	0.04489
790.74783	0.04493
789.46206	0.04495
788.17629	0.04505
786.89052	0.04526
785.60475	0.04549
784.31898	0.04563
783.03322	0.04562
781.74745	0.04554
780.46168	0.04551
779.17591	0.04562
777.89014	0.04584
776.60437	0.04606
775.31860	0.04619
774.03283	0.04620
772.74706	0.04615
771.46130	0.04612
770.17553	0.04617
768.88976	0.04633
767.60399	0.04652
766.31822	0.04668
765.03245	0.04680
763.74668	0.04693
762.46091	0.04712
761.17515	0.04739
759.88938	0.04773
758.60361	0.04806
757.31784	0.04832
756.03207	0.04850
754.74630	0.04856
753.46053	0.04856
752.17476	0.04856
750.88899	0.04863
749.60323	0.04877
748.31746	0.04892
747.03169	0.04907
745.74592	0.04927
744.46015	0.04950
743.17438	0.04972
741.88861	0.04986
740.60284	0.04993
739.31708	0.04999
738.03131	0.05009
736.74554	0.05029
735.45977	0.05059
734.17400	0.05095
732.88823	0.05126
731.60246	0.05145
730.31669	0.05157
729.03092	0.05169
727.74516	0.05188
726.45939	0.05210
725.17362	0.05224
723.88785	0.05197
722.60208	0.05230
721.31631	0.05301
720.03054	0.05377
718.74477	0.05442
717.45901	0.05481
716.17324	0.05490
714.88747	0.05478
713.60170	0.05462
712.31593	0.05452
711.03016	0.05451
709.74439	0.05460
708.45862	0.05476
707.17285	0.05499
705.88709	0.05525
704.60132	0.05550
703.31555	0.05575
702.02978	0.05601
700.74401	0.05629
699.45824	0.05659
698.17247	0.05688
696.88670	0.05715
695.60094	0.05738
694.31517	0.05757
693.02940	0.05771
691.74363	0.05779
690.45786	0.05784
689.17209	0.05787
687.88632	0.05792
686.60055	0.05797
685.31478	0.05801
684.02902	0.05805
682.74325	0.05809
681.45748	0.05811
680.17171	0.05811
678.88594	0.05813
677.60017	0.05821
676.31440	0.05835
675.02863	0.05849
673.74287	0.05863
672.45710	0.05879
671.17133	0.05903
669.88556	0.05930
668.59979	0.05944
667.31402	0.05942
666.02825	0.05947
664.74248	0.05952
663.45671	0.05961
662.17095	0.05975
660.88518	0.05988
659.59941	0.05998
658.31364	0.06010
657.02787	0.06024
655.74210	0.06035
654.45633	0.06042
653.17056	0.06045
651.88480	0.06047
650.59903	0.06054
649.31326	0.06068
648.02749	0.06088
646.74172	0.06107
645.45595	0.06120
644.17018	0.06126
642.88441	0.06127
641.59864	0.06124
640.31288	0.06119
639.02711	0.06109
637.74134	0.06094
636.45557	0.06078
635.16980	0.06064
633.88403	0.06052
632.59826	0.06032
631.31249	0.06050
630.02673	0.06297
628.74096	0.06675
627.45519	0.06412
626.16942	0.06846
624.88365	0.07765
623.59788	0.08635
622.31211	0.09208
621.02634	0.09358
619.74057	0.09097
618.45481	0.08584
617.16904	0.08008
615.88327	0.07488
614.59750	0.07074
613.31173	0.06803
612.02596	0.06726
610.74019	0.06866
609.45442	0.07164
608.16866	0.07490
606.88289	0.07735
605.59712	0.07881
604.31135	0.07948
603.02558	0.07929
601.73981	0.07808
600.45404	0.07607
599.16827	0.07393
597.88250	0.07214
596.59674	0.07078
595.31097	0.06967
594.02520	0.06873
592.73943	0.06804
591.45366	0.06769
590.16789	0.06774
588.88212	0.06809
587.59635	0.06855
586.31059	0.06892
585.02482	0.06907
583.73905	0.06901
582.45328	0.06885
581.16751	0.06879
579.88174	0.06891
578.59597	0.06919
577.31020	0.06949
576.02443	0.06975
574.73867	0.07005
573.45290	0.07049
572.16713	0.07111
570.88136	0.07186
569.59559	0.07266
568.30982	0.07336
567.02405	0.07378
565.73828	0.07381
564.45251	0.07346
563.16675	0.07290
561.88098	0.07236
560.59521	0.07196
559.30944	0.07165
558.02367	0.07132
556.73790	0.07093
555.45213	0.07056
554.16636	0.07030
552.88060	0.07018
551.59483	0.07011
550.30906	0.07000
549.02329	0.06984
547.73752	0.06963
546.45175	0.06942
545.16598	0.06922
543.88021	0.06904
542.59444	0.06885
541.30868	0.06863
540.02291	0.06838
538.73714	0.06816
537.45137	0.06802
536.16560	0.06798
534.87983	0.06799
533.59406	0.06798
532.30829	0.06795
531.02253	0.06791
529.73676	0.06790
528.45099	0.06792
527.16522	0.06788
525.87945	0.06772
524.59368	0.06747
523.30791	0.06727
522.02214	0.06722
520.73637	0.06729
519.45061	0.06738
518.16484	0.06740
516.87907	0.06736
515.59330	0.06731
514.30753	0.06727
513.02176	0.06719
511.73599	0.06709
510.45022	0.06699
509.16446	0.06686
507.87869	0.06666
506.59292	0.06638
505.30715	0.06604
504.02138	0.06566
502.73561	0.06527
501.44984	0.06491
500.16407	0.06465
498.87830	0.06446
497.59254	0.06427
496.30677	0.06397
495.02100	0.06358
493.73523	0.06316
492.44946	0.06283
491.16369	0.06260
489.87792	0.06246
488.59215	0.06234
487.30639	0.06218
486.02062	0.06192
484.73485	0.06148
483.44908	0.06087
482.16331	0.06019
480.87754	0.05960
479.59177	0.05924
478.30600	0.05915
477.02023	0.05921
475.73447	0.05924
474.44870	0.05913
473.16293	0.05891
471.87716	0.05869
470.59139	0.05850
469.30562	0.05835
468.01985	0.05820
466.73408	0.05802
465.44832	0.05781
464.16255	0.05758
462.87678	0.05735
461.59101	0.05714
460.30524	0.05692
459.01947	0.05670
457.73370	0.05653
456.44793	0.05639
455.16216	0.05618
453.87640	0.05583
452.59063	0.05543
451.30486	0.05508
450.01909	0.05483
448.73332	0.05460
447.44755	0.05431
446.16178	0.05394
444.87601	0.05354
443.59025	0.05319
442.30448	0.05293
441.01871	0.05276
439.73294	0.05263
438.44717	0.05250
437.16140	0.05234
435.87563	0.05214
434.58986	0.05194
433.30409	0.05174
432.01833	0.05158
430.73256	0.05149
429.44679	0.05143
428.16102	0.05134
426.87525	0.05115
425.58948	0.05090
424.30371	0.05065
423.01794	0.05046
421.73218	0.05032
420.44641	0.05016
419.16064	0.04997
417.87487	0.04973
416.58910	0.04946
415.30333	0.04915
414.01756	0.04885
412.73179	0.04858
411.44602	0.04834
410.16026	0.04815
408.87449	0.04799
407.58872	0.04785
406.30295	0.04767
405.01718	0.04745
403.73141	0.04721
402.44564	0.04699
401.15987	0.04681
399.87411	0.04667
