3997.45528	0.04759
3996.16951	0.04705
3994.88374	0.04687
3993.59798	0.04712
3992.31221	0.04748
3991.02644	0.04760
3989.74067	0.04752
3988.45490	0.04753
3987.16913	0.04776
3985.88336	0.04798
3984.59759	0.04789
3983.31183	0.04747
3982.02606	0.04702
3980.74029	0.04682
3979.45452	0.04697
3978.16875	0.04727
3976.88298	0.04746
3975.59721	0.04751
3974.31144	0.04756
3973.02567	0.04776
3971.73991	0.04812
3970.45414	0.04853
3969.16837	0.04884
3967.88260	0.04892
3966.59683	0.04866
3965.31106	0.04820
3964.02529	0.04783
3962.73952	0.04766
3961.45376	0.04753
3960.16799	0.04727
3958.88222	0.04697
3957.59645	0.04685
3956.31068	0.04695
3955.02491	0.04702
3953.73914	0.04690
3952.45337	0.04672
3951.16760	0.04666
3949.88184	0.04681
3948.59607	0.04708
3947.31030	0.04739
3946.02453	0.04775
3944.73876	0.04813
3943.45299	0.04838
3942.16722	0.04833
3940.88145	0.04808
3939.59569	0.04790
3938.30992	0.04793
3937.02415	0.04798
3935.73838	0.04785
3934.45261	0.04761
3933.16684	0.04751
3931.88107	0.04763
3930.59530	0.04777
3929.30953	0.04767
3928.02377	0.04728
3926.73800	0.04686
3925.45223	0.04670
3924.16646	0.04690
3922.88069	0.04725
3921.59492	0.04744
3920.30915	0.04727
3919.02338	0.04672
3917.73762	0.04599
3916.45185	0.04540
3915.16608	0.04535
3913.88031	0.04596
3912.59454	0.04686
3911.30877	0.04751
3910.02300	0.04763
3908.73723	0.04739
3907.45146	0.04714
3906.16570	0.04708
3904.87993	0.04718
3903.59416	0.04727
3902.30839	0.04731
3901.02262	0.04731
3899.73685	0.04726
3898.45108	0.04707
3897.16531	0.04671
3895.87955	0.04623
3894.59378	0.04586
3893.30801	0.04578
3892.02224	0.04589
3890.73647	0.04589
3889.45070	0.04568
3888.16493	0.04554
3886.87916	0.04570
3885.59339	0.04594
3884.30763	0.04601
3883.02186	0.04596
3881.73609	0.04602
3880.45032	0.04619
3879.16455	0.04627
3877.87878	0.04612
3876.59301	0.04583
3875.30724	0.04554
3874.02148	0.04530
3872.73571	0.04513
3871.44994	0.04502
3870.16417	0.04487
3868.87840	0.04461
3867.59263	0.04435
3866.30686	0.04422
3865.02109	0.04419
3863.73532	0.04421
3862.44956	0.04433
3861.16379	0.04455
3859.87802	0.04476
3858.59225	0.04482
3857.30648	0.04482
3856.02071	0.04489
3854.73494	0.04491
3853.44917	0.04465
3852.16341	0.04421
3850.87764	0.04402
3849.59187	0.04418
3848.30610	0.04436
3847.02033	0.04433
3845.73456	0.04425
3844.44879	0.04441
3843.16302	0.04479
3841.87725	0.04513
3840.59149	0.04529
3839.30572	0.04536
3838.01995	0.04541
3836.73418	0.04536
3835.44841	0.04517
3834.16264	0.04496
3832.87687	0.04482
3831.59110	0.04473
3830.30534	0.04459
3829.01957	0.04437
3827.73380	0.04418
3826.44803	0.04419
3825.16226	0.04443
3823.87649	0.04479
3822.59072	0.04501
3821.30495	0.04476
3820.01918	0.04401
3818.73342	0.04325
3817.44765	0.04298
3816.16188	0.04323
3814.87611	0.04368
3813.59034	0.04411
3812.30457	0.04443
3811.01880	0.04447
3809.73303	0.04414
3808.44726	0.04348
3807.16150	0.04264
3805.87573	0.04199
3804.58996	0.04201
3803.30419	0.04287
3802.01842	0.04399
3800.73265	0.04446
3799.44688	0.04397
3798.16111	0.04301
3796.87535	0.04235
3795.58958	0.04240
3794.30381	0.04299
3793.01804	0.04361
3791.73227	0.04378
3790.44650	0.04337
3789.16073	0.04264
3787.87496	0.04208
3786.58919	0.04204
3785.30343	0.04250
3784.01766	0.04310
3782.73189	0.04349
3781.44612	0.04364
3780.16035	0.04358
3778.87458	0.04329
3777.58881	0.04279
3776.30304	0.04230
3775.01728	0.04213
3773.73151	0.04235
3772.44574	0.04278
3771.15997	0.04308
3769.87420	0.04299
3768.58843	0.04265
3767.30266	0.04247
3766.01689	0.04261
3764.73112	0.04285
3763.44536	0.04296
3762.15959	0.04293
3760.87382	0.04282
3759.58805	0.04257
3758.30228	0.04213
3757.01651	0.04158
3755.73074	0.04114
3754.44497	0.04100
3753.15921	0.04120
3751.87344	0.04150
3750.58767	0.04172
3749.30190	0.04175
3748.01613	0.04167
3746.73036	0.04173
3745.44459	0.04189
3744.15882	0.04178
3742.87305	0.04138
3741.58729	0.04112
3740.30152	0.04126
3739.01575	0.04164
3737.72998	0.04195
3736.44421	0.04189
3735.15844	0.04149
3733.87267	0.04117
3732.58690	0.04133
3731.30114	0.04186
3730.01537	0.04230
3728.72960	0.04230
3727.44383	0.04178
3726.15806	0.04101
3724.87229	0.04041
3723.58652	0.04029
3722.30075	0.04056
3721.01498	0.04090
3719.72922	0.04113
3718.44345	0.04119
3717.15768	0.04109
3715.87191	0.04090
3714.58614	0.04071
3713.30037	0.04051
3712.01460	0.04021
3710.72883	0.03983
3709.44307	0.03949
3708.15730	0.03933
3706.87153	0.03937
3705.58576	0.03957
3704.29999	0.03980
3703.01422	0.03982
3701.72845	0.03949
3700.44268	0.03895
3699.15691	0.03862
3697.87115	0.03873
3696.58538	0.03915
3695.29961	0.03956
3694.01384	0.03978
3692.72807	0.03982
3691.44230	0.03976
3690.15653	0.03969
3688.87076	0.03963
3687.58500	0.03949
3686.29923	0.03933
3685.01346	0.03924
3683.72769	0.03920
3682.44192	0.03915
3681.15615	0.03912
3679.87038	0.03922
3678.58461	0.03953
3677.29884	0.03998
3676.01308	0.04029
3674.72731	0.04024
3673.44154	0.04005
3672.15577	0.04009
3670.87000	0.04029
3669.58423	0.04033
3668.29846	0.04021
3667.01269	0.04021
3665.72693	0.04043
3664.44116	0.04075
3663.15539	0.04105
3661.86962	0.04125
3660.58385	0.04129
3659.29808	0.04116
3658.01231	0.04100
3656.72654	0.04097
3655.44077	0.04104
3654.15501	0.04111
3652.86924	0.04103
3651.58347	0.04077
3650.29770	0.04044
3649.01193	0.04029
3647.72616	0.04049
3646.44039	0.04101
3645.15462	0.04170
3643.86886	0.04245
3642.58309	0.04306
3641.29732	0.04333
3640.01155	0.04322
3638.72578	0.04305
3637.44001	0.04322
3636.15424	0.04383
3634.86847	0.04457
3633.58270	0.04501
3632.29694	0.04509
3631.01117	0.04509
3629.72540	0.04517
3628.43963	0.04527
3627.15386	0.04532
3625.86809	0.04540
3624.58232	0.04546
3623.29655	0.04538
3622.01079	0.04518
3620.72502	0.04504
3619.43925	0.04508
3618.15348	0.04529
3616.86771	0.04565
3615.58194	0.04607
3614.29617	0.04644
3613.01040	0.04668
3611.72463	0.04687
3610.43887	0.04718
3609.15310	0.04763
3607.86733	0.04810
3606.58156	0.04848
3605.29579	0.04878
3604.01002	0.04902
3602.72425	0.04927
3601.43848	0.04961
3600.15272	0.05002
3598.86695	0.05038
3597.58118	0.05055
3596.29541	0.05061
3595.00964	0.05078
3593.72387	0.05116
3592.43810	0.05158
3591.15233	0.05179
3589.86656	0.05169
3588.58080	0.05139
3587.29503	0.05116
3586.00926	0.05129
3584.72349	0.05185
3583.43772	0.05269
3582.15195	0.05351
3580.86618	0.05409
3579.58041	0.05438
3578.29464	0.05452
3577.00888	0.05469
3575.72311	0.05499
3574.43734	0.05539
3573.15157	0.05585
3571.86580	0.05638
3570.58003	0.05698
3569.29426	0.05760
3568.00849	0.05815
3566.72273	0.05859
3565.43696	0.05892
3564.15119	0.05919
3562.86542	0.05944
3561.57965	0.05969
3560.29388	0.05990
3559.00811	0.06003
3557.72234	0.06007
3556.43657	0.06012
3555.15081	0.06034
3553.86504	0.06072
3552.57927	0.06107
3551.29350	0.06124
3550.00773	0.06139
3548.72196	0.06178
3547.43619	0.06239
3546.15042	0.06292
3544.86466	0.06323
3543.57889	0.06352
3542.29312	0.06393
3541.00735	0.06433
3539.72158	0.06445
3538.43581	0.06433
3537.15004	0.06435
3535.86427	0.06477
3534.57850	0.06555
3533.29274	0.06645
3532.00697	0.06724
3530.72120	0.06774
3529.43543	0.06790
3528.14966	0.06791
3526.86389	0.06804
3525.57812	0.06843
3524.29235	0.06889
3523.00659	0.06917
3521.72082	0.06921
3520.43505	0.06922
3519.14928	0.06940
3517.86351	0.06977
3516.57774	0.07015
3515.29197	0.07042
3514.00620	0.07067
3512.72043	0.07117
3511.43467	0.07199
3510.14890	0.07293
3508.86313	0.07364
3507.57736	0.07387
3506.29159	0.07369
3505.00582	0.07344
3503.72005	0.07342
3502.43428	0.07364
3501.14852	0.07390
3499.86275	0.07401
3498.57698	0.07406
3497.29121	0.07422
3496.00544	0.07461
3494.71967	0.07516
3493.43390	0.07577
3492.14813	0.07633
3490.86236	0.07683
3489.57660	0.07724
3488.29083	0.07754
3487.00506	0.07784
3485.71929	0.07821
3484.43352	0.07862
3483.14775	0.07895
3481.86198	0.07916
3480.57621	0.07943
3479.29045	0.07993
3478.00468	0.08057
3476.71891	0.08109
3475.43314	0.08129
3474.14737	0.08123
3472.86160	0.08107
3471.57583	0.08093
3470.29006	0.08092
3469.00429	0.08112
3467.71853	0.08146
3466.43276	0.08178
3465.14699	0.08203
3463.86122	0.08230
3462.57545	0.08272
3461.28968	0.08322
3460.00391	0.08357
3458.71814	0.08361
3457.43238	0.08344
3456.14661	0.08334
3454.86084	0.08355
3453.57507	0.08412
3452.28930	0.08481
3451.00353	0.08535
3449.71776	0.08566
3448.43199	0.08591
3447.14622	0.08633
3445.86046	0.08683
3444.57469	0.08721
3443.28892	0.08732
3442.00315	0.08731
3440.71738	0.08738
3439.43161	0.08765
3438.14584	0.08805
3436.86007	0.08848
3435.57431	0.08892
3434.28854	0.08941
3433.00277	0.08990
3431.71700	0.09021
3430.43123	0.09022
3429.14546	0.09015
3427.85969	0.09037
3426.57392	0.09099
3425.28815	0.09174
3424.00239	0.09227
3422.71662	0.09248
3421.43085	0.09257
3420.14508	0.09277
3418.85931	0.09314
3417.57354	0.09356
3416.28777	0.09390
3415.00200	0.09415
3413.71624	0.09436
3412.43047	0.09462
3411.14470	0.09498
3409.85893	0.09546
3408.57316	0.09596
3407.28739	0.09633
3406.00162	0.09653
3404.71585	0.09673
3403.43008	0.09720
3402.14432	0.09800
3400.85855	0.09892
3399.57278	0.09964
3398.28701	0.10004
3397.00124	0.10025
3395.71547	0.10045
3394.42970	0.10072
3393.14393	0.10095
3391.85817	0.10105
3390.57240	0.10114
3389.28663	0.10144
3388.00086	0.10209
3386.71509	0.10292
3385.42932	0.10353
3384.14355	0.10369
3382.85778	0.10351
3381.57201	0.10337
3380.28625	0.10361
3379.00048	0.10419
3377.71471	0.10477
3376.42894	0.10506
3375.14317	0.10509
3373.85740	0.10509
3372.57163	0.10529
3371.28586	0.10572
3370.00010	0.10639
3368.71433	0.10722
3367.42856	0.10808
3366.14279	0.10884
3364.85702	0.10950
3363.57125	0.11017
3362.28548	0.11090
3360.99971	0.11161
3359.71394	0.11217
3358.42818	0.11258
3357.14241	0.11294
3355.85664	0.11340
3354.57087	0.11403
3353.28510	0.11481
3351.99933	0.11562
3350.71356	0.11638
3349.42779	0.11705
3348.14202	0.11770
3346.85626	0.11832
3345.57049	0.11885
3344.28472	0.11922
3342.99895	0.11946
3341.71318	0.11971
3340.42741	0.12017
3339.14164	0.12092
3337.85587	0.12185
3336.57011	0.12277
3335.28434	0.12356
3333.99857	0.12419
3332.71280	0.12471
3331.42703	0.12520
3330.14126	0.12565
3328.85549	0.12599
3327.56972	0.12616
3326.28395	0.12620
3324.99819	0.12625
3323.71242	0.12647
3322.42665	0.12690
3321.14088	0.12743
3319.85511	0.12791
3318.56934	0.12829
3317.28357	0.12864
3315.99780	0.12907
3314.71204	0.12958
3313.42627	0.13011
3312.14050	0.13061
3310.85473	0.13110
3309.56896	0.13158
3308.28319	0.13201
3306.99742	0.13233
3305.71165	0.13258
3304.42588	0.13294
3303.14012	0.13350
3301.85435	0.13420
3300.56858	0.13479
3299.28281	0.13504
3297.99704	0.13492
3296.71127	0.13461
3295.42550	0.13435
3294.13973	0.13430
3292.85397	0.13449
3291.56820	0.13482
3290.28243	0.13518
3288.99666	0.13548
3287.71089	0.13573
3286.42512	0.13604
3285.13935	0.13644
3283.85358	0.13679
3282.56781	0.13689
3281.28205	0.13671
3279.99628	0.13641
3278.71051	0.13614
3277.42474	0.13594
3276.13897	0.13576
3274.85320	0.13558
3273.56743	0.13538
3272.28166	0.13511
3270.99590	0.13473
3269.71013	0.13424
3268.42436	0.13370
3267.13859	0.13318
3265.85282	0.13273
3264.56705	0.13235
3263.28128	0.13202
3261.99551	0.13170
3260.70974	0.13135
3259.42398	0.13102
3258.13821	0.13072
3256.85244	0.13044
3255.56667	0.13008
3254.28090	0.12962
3252.99513	0.12915
3251.70936	0.12879
3250.42359	0.12861
3249.13783	0.12848
3247.85206	0.12817
3246.56629	0.12750
3245.28052	0.12660
3243.99475	0.12577
3242.70898	0.12522
3241.42321	0.12492
3240.13744	0.12472
3238.85167	0.12452
3237.56591	0.12436
3236.28014	0.12423
3234.99437	0.12400
3233.70860	0.12352
3232.42283	0.12282
3231.13706	0.12214
3229.85129	0.12177
3228.56552	0.12177
3227.27976	0.12189
3225.99399	0.12180
3224.70822	0.12138
3223.42245	0.12086
3222.13668	0.12063
3220.85091	0.12081
3219.56514	0.12113
3218.27937	0.12122
3216.99360	0.12093
3215.70784	0.12040
3214.42207	0.11990
3213.13630	0.11959
3211.85053	0.11945
3210.56476	0.11940
3209.27899	0.11933
3207.99322	0.11909
3206.70745	0.11861
3205.42169	0.11796
3204.13592	0.11738
3202.85015	0.11702
3201.56438	0.11686
3200.27861	0.11676
3198.99284	0.11666
3197.70707	0.11657
3196.42130	0.11641
3195.13553	0.11610
3193.84977	0.11567
3192.56400	0.11532
3191.27823	0.11519
3189.99246	0.11517
3188.70669	0.11502
3187.42092	0.11463
3186.13515	0.11410
3184.84938	0.11355
3183.56362	0.11297
3182.27785	0.11230
3180.99208	0.11157
3179.70631	0.11092
3178.42054	0.11050
3177.13477	0.11033
3175.84900	0.11033
3174.56323	0.11033
3173.27746	0.11023
3171.99170	0.11002
3170.70593	0.10972
3169.42016	0.10932
3168.13439	0.10876
3166.84862	0.10808
3165.56285	0.10743
3164.27708	0.10686
3162.99131	0.10633
3161.70555	0.10580
3160.41978	0.10531
3159.13401	0.10494
3157.84824	0.10469
3156.56247	0.10448
3155.27670	0.10416
3153.99093	0.10368
3152.70516	0.10308
3151.41939	0.10247
3150.13363	0.10202
3148.84786	0.10178
3147.56209	0.10166
3146.27632	0.10148
3144.99055	0.10109
3143.70478	0.10051
3142.41901	0.09997
3141.13324	0.09967
3139.84748	0.09960
3138.56171	0.09960
3137.27594	0.09948
3135.99017	0.09918
3134.70440	0.09873
3133.41863	0.09820
3132.13286	0.09773
3130.84709	0.09744
3129.56132	0.09737
3128.27556	0.09740
3126.98979	0.09735
3125.70402	0.09709
3124.41825	0.09662
3123.13248	0.09604
3121.84671	0.09553
3120.56094	0.09518
3119.27517	0.09499
3117.98940	0.09495
3116.70364	0.09509
3115.41787	0.09536
3114.13210	0.09556
3112.84633	0.09548
3111.56056	0.09514
3110.27479	0.09482
3108.98902	0.09478
3107.70325	0.09505
3106.41749	0.09539
3105.13172	0.09559
3103.84595	0.09559
3102.56018	0.09549
3101.27441	0.09545
3099.98864	0.09559
3098.70287	0.09586
3097.41710	0.09616
3096.13133	0.09640
3094.84557	0.09654
3093.55980	0.09657
3092.27403	0.09652
3090.98826	0.09650
3089.70249	0.09665
3088.41672	0.09695
3087.13095	0.09727
3085.84518	0.09746
3084.55942	0.09752
3083.27365	0.09753
3081.98788	0.09758
3080.70211	0.09772
3079.41634	0.09796
3078.13057	0.09827
3076.84480	0.09852
3075.55903	0.09856
3074.27326	0.09833
3072.98750	0.09793
3071.70173	0.09757
3070.41596	0.09742
3069.13019	0.09751
3067.84442	0.09772
3066.55865	0.09787
3065.27288	0.09781
3063.98711	0.09756
3062.70135	0.09725
3061.41558	0.09711
3060.12981	0.09721
3058.84404	0.09742
3057.55827	0.09753
3056.27250	0.09740
3054.98673	0.09710
3053.70096	0.09679
3052.41519	0.09650
3051.12943	0.09615
3049.84366	0.09564
3048.55789	0.09499
3047.27212	0.09431
3045.98635	0.09373
3044.70058	0.09335
3043.41481	0.09316
3042.12904	0.09309
3040.84328	0.09303
3039.55751	0.09290
3038.27174	0.09267
3036.98597	0.09238
3035.70020	0.09202
3034.41443	0.09158
3033.12866	0.09104
3031.84289	0.09045
3030.55712	0.08991
3029.27136	0.08955
3027.98559	0.08937
3026.69982	0.08931
3025.41405	0.08923
3024.12828	0.08907
3022.84251	0.08885
3021.55674	0.08863
3020.27097	0.08843
3018.98521	0.08818
3017.69944	0.08781
3016.41367	0.08736
3015.12790	0.08695
3013.84213	0.08661
3012.55636	0.08635
3011.27059	0.08617
3009.98482	0.08613
3008.69905	0.08621
3007.41329	0.08628
3006.12752	0.08619
3004.84175	0.08593
3003.55598	0.08563
3002.27021	0.08543
3000.98444	0.08533
2999.69867	0.08520
2998.41290	0.08511
2997.12714	0.08507
2995.84137	0.08520
2994.55560	0.08558
2993.26983	0.08613
2991.98406	0.08668
2990.69829	0.08702
2989.41252	0.08702
2988.12675	0.08682
2986.84098	0.08670
2985.55522	0.08692
2984.26945	0.08747
2982.98368	0.08817
2981.69791	0.08888
2980.41214	0.08948
2979.12637	0.08995
2977.84060	0.09032
2976.55483	0.09068
2975.26907	0.09114
2973.98330	0.09170
2972.69753	0.09229
2971.41176	0.09290
2970.12599	0.09354
2968.84022	0.09425
2967.55445	0.09501
2966.26868	0.09581
2964.98291	0.09660
2963.69715	0.09729
2962.41138	0.09774
2961.12561	0.09783
2959.83984	0.09763
2958.55407	0.09744
2957.26830	0.09749
2955.98253	0.09773
2954.69676	0.09792
2953.41100	0.09793
2952.12523	0.09785
2950.83946	0.09783
2949.55369	0.09795
2948.26792	0.09815
2946.98215	0.09836
2945.69638	0.09854
2944.41061	0.09868
2943.12484	0.09883
2941.83908	0.09905
2940.55331	0.09940
2939.26754	0.09992
2937.98177	0.10057
2936.69600	0.10127
2935.41023	0.10186
2934.12446	0.10226
2932.83869	0.10252
2931.55293	0.10282
2930.26716	0.10323
2928.98139	0.10366
2927.69562	0.10393
2926.40985	0.10398
2925.12408	0.10389
2923.83831	0.10377
2922.55254	0.10366
2921.26677	0.10352
2919.98101	0.10324
2918.69524	0.10270
2917.40947	0.10190
2916.12370	0.10099
2914.83793	0.10017
2913.55216	0.09946
2912.26639	0.09872
2910.98062	0.09778
2909.69486	0.09665
2908.40909	0.09555
2907.12332	0.09470
2905.83755	0.09413
2904.55178	0.09375
2903.26601	0.09345
2901.98024	0.09322
2900.69447	0.09303
2899.40870	0.09276
2898.12294	0.09235
2896.83717	0.09180
2895.55140	0.09120
2894.26563	0.09061
2892.97986	0.09002
2891.69409	0.08948
2890.40832	0.08909
2889.12255	0.08897
2887.83678	0.08915
2886.55102	0.08948
2885.26525	0.08974
2883.97948	0.08978
2882.69371	0.08963
2881.40794	0.08938
2880.12217	0.08914
2878.83640	0.08900
2877.55063	0.08896
2876.26487	0.08897
2874.97910	0.08898
2873.69333	0.08901
2872.40756	0.08912
2871.12179	0.08930
2869.83602	0.08942
2868.55025	0.08932
2867.26448	0.08894
2865.97871	0.08843
2864.69295	0.08796
2863.40718	0.08763
2862.12141	0.08739
2860.83564	0.08713
2859.54987	0.08685
2858.26410	0.08661
2856.97833	0.08652
2855.69256	0.08662
2854.40680	0.08687
2853.12103	0.08706
2851.83526	0.08699
2850.54949	0.08658
2849.26372	0.08591
2847.97795	0.08516
2846.69218	0.08439
2845.40641	0.08357
2844.12064	0.08272
2842.83488	0.08191
2841.54911	0.08117
2840.26334	0.08051
2838.97757	0.07993
2837.69180	0.07945
2836.40603	0.07906
2835.12026	0.07873
2833.83449	0.07843
2832.54873	0.07807
2831.26296	0.07761
2829.97719	0.07718
2828.69142	0.07692
2827.40565	0.07683
2826.11988	0.07674
2824.83411	0.07653
2823.54834	0.07621
2822.26257	0.07590
2820.97681	0.07564
2819.69104	0.07543
2818.40527	0.07528
2817.11950	0.07518
2815.83373	0.07502
2814.54796	0.07471
2813.26219	0.07434
2811.97642	0.07408
2810.69066	0.07405
2809.40489	0.07412
2808.11912	0.07408
2806.83335	0.07383
2805.54758	0.07350
2804.26181	0.07332
2802.97604	0.07338
2801.69027	0.07355
2800.40450	0.07352
2799.11874	0.07311
2797.83297	0.07241
2796.54720	0.07174
2795.26143	0.07134
2793.97566	0.07126
2792.68989	0.07141
2791.40412	0.07162
2790.11835	0.07172
2788.83259	0.07165
2787.54682	0.07145
2786.26105	0.07128
2784.97528	0.07122
2783.68951	0.07127
2782.40374	0.07134
2781.11797	0.07134
2779.83220	0.07123
2778.54643	0.07105
2777.26067	0.07084
2775.97490	0.07059
2774.68913	0.07031
2773.40336	0.07002
2772.11759	0.06975
2770.83182	0.06949
2769.54605	0.06925
2768.26028	0.06906
2766.97452	0.06891
2765.68875	0.06879
2764.40298	0.06870
2763.11721	0.06863
2761.83144	0.06851
2760.54567	0.06828
2759.25990	0.06795
2757.97413	0.06763
2756.68836	0.06740
2755.40260	0.06726
2754.11683	0.06720
2752.83106	0.06721
2751.54529	0.06727
2750.25952	0.06731
2748.97375	0.06726
2747.68798	0.06712
2746.40221	0.06692
2745.11645	0.06669
2743.83068	0.06645
2742.54491	0.06623
2741.25914	0.06606
2739.97337	0.06592
2738.68760	0.06579
2737.40183	0.06568
2736.11606	0.06562
2734.83029	0.06564
2733.54453	0.06569
2732.25876	0.06576
2730.97299	0.06580
2729.68722	0.06571
2728.40145	0.06546
2727.11568	0.06509
2725.82991	0.06474
2724.54414	0.06450
2723.25838	0.06441
2721.97261	0.06444
2720.68684	0.06450
2719.40107	0.06445
2718.11530	0.06423
2716.82953	0.06392
2715.54376	0.06369
2714.25799	0.06361
2712.97222	0.06356
2711.68646	0.06339
2710.40069	0.06308
2709.11492	0.06278
2707.82915	0.06261
2706.54338	0.06260
2705.25761	0.06269
2703.97184	0.06280
2702.68607	0.06285
2701.40031	0.06283
2700.11454	0.06276
2698.82877	0.06265
2697.54300	0.06247
2696.25723	0.06225
2694.97146	0.06208
2693.68569	0.06201
2692.39992	0.06196
2691.11415	0.06183
2689.82839	0.06164
2688.54262	0.06149
2687.25685	0.06145
2685.97108	0.06142
2684.68531	0.06130
2683.39954	0.06108
2682.11377	0.06088
2680.82800	0.06079
2679.54224	0.06082
2678.25647	0.06089
2676.97070	0.06095
2675.68493	0.06090
2674.39916	0.06073
2673.11339	0.06049
2671.82762	0.06031
2670.54185	0.06035
2669.25608	0.06060
2667.97032	0.06089
2666.68455	0.06095
2665.39878	0.06072
2664.11301	0.06033
2662.82724	0.06004
2661.54147	0.05999
2660.25570	0.06014
2658.96993	0.06033
2657.68417	0.06042
2656.39840	0.06037
2655.11263	0.06016
2653.82686	0.05984
2652.54109	0.05953
2651.25532	0.05931
2649.96955	0.05917
2648.68378	0.05895
2647.39801	0.05862
2646.11225	0.05831
2644.82648	0.05818
2643.54071	0.05820
2642.25494	0.05825
2640.96917	0.05823
2639.68340	0.05811
2638.39763	0.05793
2637.11186	0.05772
2635.82609	0.05748
2634.54033	0.05724
2633.25456	0.05697
2631.96879	0.05669
2630.68302	0.05640
2629.39725	0.05609
2628.11148	0.05579
2626.82571	0.05557
2625.53994	0.05550
2624.25418	0.05557
2622.96841	0.05570
2621.68264	0.05578
2620.39687	0.05577
2619.11110	0.05568
2617.82533	0.05557
2616.53956	0.05544
2615.25379	0.05523
2613.96802	0.05481
2612.68226	0.05414
2611.39649	0.05339
2610.11072	0.05284
2608.82495	0.05263
2607.53918	0.05270
2606.25341	0.05292
2604.96764	0.05319
2603.68187	0.05343
2602.39611	0.05350
2601.11034	0.05332
2599.82457	0.05294
2598.53880	0.05251
2597.25303	0.05218
2595.96726	0.05199
2594.68149	0.05194
2593.39572	0.05192
2592.10995	0.05182
2590.82419	0.05161
2589.53842	0.05135
2588.25265	0.05113
2586.96688	0.05095
2585.68111	0.05078
2584.39534	0.05060
2583.10957	0.05046
2581.82380	0.05038
2580.53804	0.05037
2579.25227	0.05045
2577.96650	0.05055
2576.68073	0.05065
2575.39496	0.05077
2574.10919	0.05088
2572.82342	0.05086
2571.53765	0.05057
2570.25188	0.05011
2568.96612	0.04973
2567.68035	0.04956
2566.39458	0.04948
2565.10881	0.04932
2563.82304	0.04908
2562.53727	0.04885
2561.25150	0.04878
2559.96573	0.04890
2558.67997	0.04910
2557.39420	0.04920
2556.10843	0.04908
2554.82266	0.04876
2553.53689	0.04838
2552.25112	0.04804
2550.96535	0.04790
2549.67958	0.04804
2548.39381	0.04840
2547.10805	0.04866
2545.82228	0.04851
2544.53651	0.04798
2543.25074	0.04742
2541.96497	0.04712
2540.67920	0.04704
2539.39343	0.04707
2538.10766	0.04721
2536.82190	0.04741
2535.53613	0.04741
2534.25036	0.04701
2532.96459	0.04641
2531.67882	0.04604
2530.39305	0.04607
2529.10728	0.04631
2527.82151	0.04641
2526.53574	0.04628
2525.24998	0.04602
2523.96421	0.04579
2522.67844	0.04563
2521.39267	0.04548
2520.10690	0.04534
2518.82113	0.04530
2517.53536	0.04549
2516.24959	0.04589
2514.96383	0.04629
2513.67806	0.04644
2512.39229	0.04623
2511.10652	0.04581
2509.82075	0.04542
2508.53498	0.04518
2507.24921	0.04508
2505.96344	0.04508
2504.67767	0.04514
2503.39191	0.04520
2502.10614	0.04526
2500.82037	0.04537
2499.53460	0.04553
2498.24883	0.04562
2496.96306	0.04558
2495.67729	0.04549
2494.39152	0.04542
2493.10576	0.04537
2491.81999	0.04529
2490.53422	0.04520
2489.24845	0.04508
2487.96268	0.04475
2486.67691	0.04418
2485.39114	0.04357
2484.10537	0.04332
2482.81960	0.04353
2481.53384	0.04395
2480.24807	0.04422
2478.96230	0.04428
2477.67653	0.04429
2476.39076	0.04436
2475.10499	0.04449
2473.81922	0.04464
2472.53345	0.04469
2471.24769	0.04449
2469.96192	0.04403
2468.67615	0.04356
2467.39038	0.04334
2466.10461	0.04341
2464.81884	0.04357
2463.53307	0.04368
2462.24730	0.04371
2460.96153	0.04369
2459.67577	0.04359
2458.39000	0.04338
2457.10423	0.04308
2455.81846	0.04279
2454.53269	0.04266
2453.24692	0.04277
2451.96115	0.04306
2450.67538	0.04335
2449.38962	0.04353
2448.10385	0.04354
2446.81808	0.04337
2445.53231	0.04301
2444.24654	0.04251
2442.96077	0.04208
2441.67500	0.04200
2440.38923	0.04240
2439.10346	0.04306
2437.81770	0.04358
2436.53193	0.04374
2435.24616	0.04362
2433.96039	0.04339
2432.67462	0.04315
2431.38885	0.04294
2430.10308	0.04277
2428.81731	0.04263
2427.53155	0.04249
2426.24578	0.04239
2424.96001	0.04234
2423.67424	0.04243
2422.38847	0.04262
2421.10270	0.04277
2419.81693	0.04272
2418.53116	0.04252
2417.24539	0.04238
2415.95963	0.04239
2414.67386	0.04242
2413.38809	0.04228
2412.10232	0.04193
2410.81655	0.04157
2409.53078	0.04136
2408.24501	0.04131
2406.95924	0.04124
2405.67347	0.04106
2404.38771	0.04089
2403.10194	0.04086
2401.81617	0.04100
2400.53040	0.04116
2399.24463	0.04122
2397.95886	0.04120
2396.67309	0.04111
2395.38732	0.04096
2394.10156	0.04082
2392.81579	0.04076
2391.53002	0.04085
2390.24425	0.04111
2388.95848	0.04147
2387.67271	0.04180
2386.38694	0.04198
2385.10117	0.04200
2383.81540	0.04190
2382.52964	0.04179
2381.24387	0.04174
2379.95810	0.04178
2378.67233	0.04184
2377.38656	0.04186
2376.10079	0.04185
2374.81502	0.04190
2373.52925	0.04204
2372.24349	0.04225
2370.95772	0.04248
2369.67195	0.04270
2368.38618	0.04292
2367.10041	0.04312
2365.81464	0.04332
2364.52887	0.04349
2363.24310	0.04366
2361.95733	0.04378
2360.67157	0.04384
2359.38580	0.04379
2358.10003	0.04364
2356.81426	0.04340
2355.52849	0.04311
2354.24272	0.04286
2352.95695	0.04270
2351.67118	0.04260
2350.38542	0.04252
2349.09965	0.04246
2347.81388	0.04248
2346.52811	0.04265
2345.24234	0.04293
2343.95657	0.04316
2342.67080	0.04324
2341.38503	0.04320
2340.09926	0.04313
2338.81350	0.04305
2337.52773	0.04297
2336.24196	0.04287
2334.95619	0.04276
2333.67042	0.04263
2332.38465	0.04244
2331.09888	0.04222
2329.81311	0.04203
2328.52735	0.04199
2327.24158	0.04215
2325.95581	0.04244
2324.67004	0.04268
2323.38427	0.04271
2322.09850	0.04247
2320.81273	0.04207
2319.52696	0.04165
2318.24119	0.04128
2316.95543	0.04090
2315.66966	0.04046
2314.38389	0.04002
2313.09812	0.03972
2311.81235	0.03960
2310.52658	0.03955
2309.24081	0.03942
2307.95504	0.03926
2306.66928	0.03913
2305.38351	0.03908
2304.09774	0.03910
2302.81197	0.03920
2301.52620	0.03931
2300.24043	0.03920
2298.95466	0.03871
2297.66889	0.03791
2296.38312	0.03713
2295.09736	0.03657
2293.81159	0.03625
2292.52582	0.03603
2291.24005	0.03589
2289.95428	0.03587
2288.66851	0.03602
2287.38274	0.03629
2286.09697	0.03652
2284.81121	0.03656
2283.52544	0.03634
2282.23967	0.03596
2280.95390	0.03560
2279.66813	0.03535
2278.38236	0.03508
2277.09659	0.03467
2275.81082	0.03422
2274.52505	0.03394
2273.23929	0.03386
2271.95352	0.03378
2270.66775	0.03355
2269.38198	0.03318
2268.09621	0.03279
2266.81044	0.03251
2265.52467	0.03248
2264.23890	0.03279
2262.95314	0.03331
2261.66737	0.03376
2260.38160	0.03380
2259.09583	0.03332
2257.81006	0.03250
2256.52429	0.03168
2255.23852	0.03118
2253.95275	0.03108
2252.66698	0.03120
2251.38122	0.03128
2250.09545	0.03119
2248.80968	0.03094
2247.52391	0.03041
2246.23814	0.02985
2244.95237	0.02954
2243.66660	0.02970
2242.38083	0.03026
2241.09507	0.03075
2239.80930	0.03077
2238.52353	0.03031
2237.23776	0.02974
2235.95199	0.02953
2234.66622	0.02985
2233.38045	0.03037
2232.09468	0.03047
2230.80891	0.02994
2229.52315	0.02915
2228.23738	0.02866
2226.95161	0.02857
2225.66584	0.02852
2224.38007	0.02824
2223.09430	0.02780
2221.80853	0.02740
2220.52276	0.02703
2219.23700	0.02648
2217.95123	0.02571
2216.66546	0.02506
2215.37969	0.02483
2214.09392	0.02495
2212.80815	0.02514
2211.52238	0.02530
2210.23661	0.02558
2208.95084	0.02604
2207.66508	0.02648
2206.37931	0.02649
2205.09354	0.02586
2203.80777	0.02487
2202.52200	0.02422
2201.23623	0.02435
2199.95046	0.02496
2198.66469	0.02532
2197.37893	0.02509
2196.09316	0.02452
2194.80739	0.02388
2193.52162	0.02315
2192.23585	0.02224
2190.95008	0.02141
2189.66431	0.02113
2188.37854	0.02157
2187.09277	0.02239
2185.80701	0.02313
2184.52124	0.02360
2183.23547	0.02390
2181.94970	0.02414
2180.66393	0.02434
2179.37816	0.02445
2178.09239	0.02442
2176.80662	0.02424
2175.52085	0.02398
2174.23509	0.02372
2172.94932	0.02339
2171.66355	0.02280
2170.37778	0.02180
2169.09201	0.02045
2167.80624	0.01897
2166.52047	0.01770
2165.23470	0.01705
2163.94894	0.01718
2162.66317	0.01778
2161.37740	0.01818
2160.09163	0.01802
2158.80586	0.01769
2157.52009	0.01779
2156.23432	0.01837
2154.94855	0.01904
2153.66278	0.01959
2152.37702	0.02013
2151.09125	0.02071
2149.80548	0.02121
2148.51971	0.02158
2147.23394	0.02193
2145.94817	0.02229
2144.66240	0.02249
2143.37663	0.02239
2142.09087	0.02216
2140.80510	0.02226
2139.51933	0.02291
2138.23356	0.02371
2136.94779	0.02398
2135.66202	0.02350
2134.37625	0.02285
2133.09048	0.02279
2131.80471	0.02354
2130.51895	0.02468
2129.23318	0.02561
2127.94741	0.02605
2126.66164	0.02613
2125.37587	0.02613
2124.09010	0.02619
2122.80433	0.02627
2121.51856	0.02628
2120.23280	0.02627
2118.94703	0.02635
2117.66126	0.02659
2116.37549	0.02679
2115.08972	0.02671
2113.80395	0.02630
2112.51818	0.02576
2111.23241	0.02537
2109.94664	0.02518
2108.66088	0.02508
2107.37511	0.02505
2106.08934	0.02520
2104.80357	0.02557
2103.51780	0.02607
2102.23203	0.02656
2100.94626	0.02717
2099.66049	0.03160
2098.37473	0.03383
2097.08896	0.03368
2095.80319	0.03251
2094.51742	0.03087
2093.23165	0.02919
2091.94588	0.02783
2090.66011	0.02692
2089.37434	0.02641
2088.08857	0.02619
2086.80281	0.02621
2085.51704	0.02640
2084.23127	0.02674
2082.94550	0.02720
2081.65973	0.02777
2080.37396	0.02841
2079.08819	0.02908
2077.80242	0.02980
2076.51666	0.03045
2075.23089	0.03081
2073.94512	0.03069
2072.65935	0.03019
2071.37358	0.02961
2070.08781	0.02910
2068.80204	0.02865
2067.51627	0.02822
2066.23050	0.02777
2064.94474	0.02724
2063.65897	0.02654
2062.37320	0.02572
2061.08743	0.02492
2059.80166	0.02424
2058.51589	0.02360
2057.23012	0.02281
2055.94435	0.02177
2054.65859	0.02075
2053.37282	0.02033
2052.08705	0.02114
2050.80128	0.02305
2049.51551	0.02507
2048.22974	0.02615
2046.94397	0.02617
2045.65820	0.02583
2044.37243	0.02569
2043.08667	0.02565
2041.80090	0.02541
2040.51513	0.02512
2039.22936	0.02528
2037.94359	0.02612
2036.65782	0.02722
2035.37205	0.02788
2034.08628	0.02765
2032.80052	0.02663
2031.51475	0.02525
2030.22898	0.02393
2028.94321	0.02291
2027.65744	0.02219
2026.37167	0.02161
2025.08590	0.02104
2023.80013	0.02061
2022.51436	0.02057
2021.22860	0.02098
2019.94283	0.02155
2018.65706	0.02192
2017.37129	0.02189
2016.08552	0.02160
2014.79975	0.02151
2013.51398	0.02217
2012.22821	0.02364
2010.94245	0.02542
2009.65668	0.02684
2008.37091	0.02747
2007.08514	0.02722
2005.79937	0.02617
2004.51360	0.02457
2003.22783	0.02278
2001.94206	0.02116
2000.65629	0.01986
1999.37053	0.01891
1998.08476	0.01830
1996.79899	0.01798
1995.51322	0.01788
1994.22745	0.01800
1992.94168	0.01827
1991.65591	0.01854
1990.37014	0.01859
1989.08438	0.01843
1987.79861	0.01838
1986.51284	0.01879
1985.22707	0.01981
1983.94130	0.02137
1982.65553	0.02336
1981.36976	0.02564
1980.08399	0.02791
1978.79822	0.02982
1977.51246	0.03100
1976.22669	0.03121
1974.94092	0.03045
1973.65515	0.02919
1972.36938	0.02801
1971.08361	0.02708
1969.79784	0.02607
1968.51207	0.02471
1967.22631	0.02329
1965.94054	0.02246
1964.65477	0.02267
1963.36900	0.02373
1962.08323	0.02495
1960.79746	0.02561
1959.51169	0.02533
1958.22592	0.02424
1956.94015	0.02291
1955.65439	0.02204
1954.36862	0.02200
1953.08285	0.02268
1951.79708	0.02364
1950.51131	0.02449
1949.22554	0.02506
1947.93977	0.02542
1946.65400	0.02565
1945.36823	0.02576
1944.08247	0.02580
1942.79670	0.02590
1941.51093	0.02623
1940.22516	0.02671
1938.93939	0.02706
1937.65362	0.02708
1936.36785	0.02684
1935.08208	0.02653
1933.79632	0.02622
1932.51055	0.02592
1931.22478	0.02568
1929.93901	0.02558
1928.65324	0.02556
1927.36747	0.02541
1926.08170	0.02509
1924.79593	0.02477
1923.51016	0.02473
1922.22440	0.02506
1920.93863	0.02560
1919.65286	0.02611
1918.36709	0.02643
1917.08132	0.02656
1915.79555	0.02660
1914.50978	0.02660
1913.22401	0.02658
1911.93825	0.02656
1910.65248	0.02657
1909.36671	0.02661
1908.08094	0.02666
1906.79517	0.02672
1905.50940	0.02679
1904.22363	0.02684
1902.93786	0.02680
1901.65209	0.02669
1900.36633	0.02660
1899.08056	0.02660
1897.79479	0.02665
1896.50902	0.02669
1895.22325	0.02669
1893.93748	0.02663
1892.65171	0.02652
1891.36594	0.02638
1890.08018	0.02624
1888.79441	0.02619
1887.50864	0.02625
1886.22287	0.02638
1884.93710	0.02649
1883.65133	0.02652
1882.36556	0.02646
1881.07979	0.02635
1879.79402	0.02623
1878.50826	0.02613
1877.22249	0.02604
1875.93672	0.02594
1874.65095	0.02585
1873.36518	0.02585
1872.07941	0.02598
1870.79364	0.02616
1869.50787	0.02621
1868.22211	0.02607
1866.93634	0.02585
1865.65057	0.02570
1864.36480	0.02566
1863.07903	0.02568
1861.79326	0.02565
1860.50749	0.02549
1859.22172	0.02518
1857.93595	0.02483
1856.65019	0.02458
1855.36442	0.02451
1854.07865	0.02457
1852.79288	0.02467
1851.50711	0.02472
1850.22134	0.02473
1848.93557	0.02467
1847.64980	0.02455
1846.36404	0.02442
1845.07827	0.02438
1843.79250	0.02442
1842.50673	0.02444
1841.22096	0.02437
1839.93519	0.02419
1838.64942	0.02396
1837.36365	0.02378
1836.07788	0.02371
1834.79212	0.02371
1833.50635	0.02368
1832.22058	0.02361
1830.93481	0.02356
1829.64904	0.02360
1828.36327	0.02376
1827.07750	0.02408
1825.79173	0.02456
1824.50597	0.02517
1823.22020	0.02585
1821.93443	0.02652
1820.64866	0.02698
1819.36289	0.02696
1818.07712	0.02630
1816.79135	0.02508
1815.50558	0.02368
1814.21981	0.02253
1812.93405	0.02186
1811.64828	0.02166
1810.36251	0.02171
1809.07674	0.02180
1807.79097	0.02186
1806.50520	0.02189
1805.21943	0.02197
1803.93366	0.02213
1802.64790	0.02236
1801.36213	0.02260
1800.07636	0.02279
1798.79059	0.02290
1797.50482	0.02292
1796.21905	0.02289
1794.93328	0.02286
1793.64751	0.02288
1792.36174	0.02294
1791.07598	0.02301
1789.79021	0.02308
1788.50444	0.02315
1787.21867	0.02322
1785.93290	0.02326
1784.64713	0.02324
1783.36136	0.02318
1782.07559	0.02314
1780.78983	0.02314
1779.50406	0.02314
1778.21829	0.02306
1776.93252	0.02288
1775.64675	0.02262
1774.36098	0.02235
1773.07521	0.02210
1771.78944	0.02189
1770.50367	0.02176
1769.21791	0.02176
1767.93214	0.02180
1766.64637	0.02181
1765.36060	0.02179
1764.07483	0.02180
1762.78906	0.02182
1761.50329	0.02179
1760.21752	0.02176
1758.93176	0.02185
1757.64599	0.02210
1756.36022	0.02239
1755.07445	0.02262
1753.78868	0.02279
1752.50291	0.02299
1751.21714	0.02322
1749.93137	0.02347
1748.64560	0.02375
1747.35984	0.02408
1746.07407	0.02453
1744.78830	0.02507
1743.50253	0.02566
1742.21676	0.02622
1740.93099	0.02671
1739.64522	0.02710
1738.35945	0.02738
1737.07369	0.02769
1735.78792	0.02813
1734.50215	0.02862
1733.21638	0.02901
1731.93061	0.02930
1730.64484	0.02958
1729.35907	0.02990
1728.07330	0.03022
1726.78753	0.03054
1725.50177	0.03089
1724.21600	0.03127
1722.93023	0.03165
1721.64446	0.03203
1720.35869	0.03245
1719.07292	0.03293
1717.78715	0.03342
1716.50138	0.03385
1715.21561	0.03426
1713.92985	0.03471
1712.64408	0.03526
1711.35831	0.03595
1710.07254	0.03680
1708.78677	0.03782
1707.50100	0.03901
1706.21523	0.04030
1704.92946	0.04165
1703.64370	0.04308
1702.35793	0.04472
1701.07216	0.04659
1699.78639	0.04857
1698.50062	0.05065
1697.21485	0.05289
1695.92908	0.05521
1694.64331	0.05742
1693.35754	0.05953
1692.07178	0.06168
1690.78601	0.06389
1689.50024	0.06611
1688.21447	0.06837
1686.92870	0.07078
1685.64293	0.07336
1684.35716	0.07597
1683.07139	0.07853
1681.78563	0.08112
1680.49986	0.08385
1679.21409	0.08672
1677.92832	0.08971
1676.64255	0.09277
1675.35678	0.09580
1674.07101	0.09876
1672.78524	0.10170
1671.49947	0.10471
1670.21371	0.10778
1668.92794	0.11083
1667.64217	0.11383
1666.35640	0.11683
1665.07063	0.11990
1663.78486	0.12303
1662.49909	0.12614
1661.21332	0.12911
1659.92756	0.13189
1658.64179	0.13442
1657.35602	0.13670
1656.07025	0.13884
1654.78448	0.14097
1653.49871	0.14302
1652.21294	0.14479
1650.92717	0.14627
1649.64140	0.14767
1648.35564	0.14911
1647.06987	0.15054
1645.78410	0.15184
1644.49833	0.15299
1643.21256	0.15401
1641.92679	0.15493
1640.64102	0.15572
1639.35525	0.15640
1638.06949	0.15703
1636.78372	0.15764
1635.49795	0.15813
1634.21218	0.15842
1632.92641	0.15852
1631.64064	0.15843
1630.35487	0.15806
1629.06910	0.15733
1627.78333	0.15621
1626.49757	0.15477
1625.21180	0.15310
1623.92603	0.15120
1622.64026	0.14901
1621.35449	0.14650
1620.06872	0.14378
1618.78295	0.14097
1617.49718	0.13810
1616.21142	0.13511
1614.92565	0.13197
1613.63988	0.12877
1612.35411	0.12555
1611.06834	0.12233
1609.78257	0.11913
1608.49680	0.11601
1607.21103	0.11297
1605.92526	0.11002
1604.63950	0.10715
1603.35373	0.10437
1602.06796	0.10172
1600.78219	0.09927
1599.49642	0.09704
1598.21065	0.09496
1596.92488	0.09295
1595.63911	0.09100
1594.35335	0.08915
1593.06758	0.08748
1591.78181	0.08604
1590.49604	0.08482
1589.21027	0.08379
1587.92450	0.08293
1586.63873	0.08222
1585.35296	0.08163
1584.06719	0.08118
1582.78143	0.08087
1581.49566	0.08069
1580.20989	0.08066
1578.92412	0.08083
1577.63835	0.08124
1576.35258	0.08187
1575.06681	0.08261
1573.78104	0.08348
1572.49528	0.08455
1571.20951	0.08582
1569.92374	0.08722
1568.63797	0.08869
1567.35220	0.09022
1566.06643	0.09184
1564.78066	0.09352
1563.49489	0.09523
1562.20912	0.09701
1560.92336	0.09893
1559.63759	0.10093
1558.35182	0.10287
1557.06605	0.10477
1555.78028	0.10670
1554.49451	0.10866
1553.20874	0.11055
1551.92297	0.11235
1550.63721	0.11406
1549.35144	0.11567
1548.06567	0.11719
1546.77990	0.11865
1545.49413	0.12003
1544.20836	0.12131
1542.92259	0.12247
1541.63682	0.12351
1540.35105	0.12441
1539.06529	0.12510
1537.77952	0.12559
1536.49375	0.12605
1535.20798	0.12659
1533.92221	0.12714
1532.63644	0.12756
1531.35067	0.12781
1530.06490	0.12792
1528.77914	0.12792
1527.49337	0.12784
1526.20760	0.12771
1524.92183	0.12756
1523.63606	0.12743
1522.35029	0.12732
1521.06452	0.12712
1519.77875	0.12681
1518.49298	0.12645
1517.20722	0.12605
1515.92145	0.12551
1514.63568	0.12474
1513.34991	0.12368
1512.06414	0.12237
1510.77837	0.12083
1509.49260	0.11915
1508.20683	0.11741
1506.92107	0.11560
1505.63530	0.11366
1504.34953	0.11163
1503.06376	0.10959
1501.77799	0.10753
1500.49222	0.10540
1499.20645	0.10321
1497.92068	0.10099
1496.63491	0.09876
1495.34915	0.09651
1494.06338	0.09426
1492.77761	0.09205
1491.49184	0.08989
1490.20607	0.08775
1488.92030	0.08570
1487.63453	0.08378
1486.34876	0.08202
1485.06299	0.08043
1483.77723	0.07901
1482.49146	0.07780
1481.20569	0.07683
1479.91992	0.07614
1478.63415	0.07574
1477.34838	0.07563
1476.06261	0.07575
1474.77684	0.07609
1473.49108	0.07661
1472.20531	0.07724
1470.91954	0.07792
1469.63377	0.07867
1468.34800	0.07950
1467.06223	0.08038
1465.77646	0.08125
1464.49069	0.08205
1463.20492	0.08281
1461.91916	0.08361
1460.63339	0.08451
1459.34762	0.08554
1458.06185	0.08667
1456.77608	0.08776
1455.49031	0.08871
1454.20454	0.08951
1452.91877	0.09018
1451.63301	0.09071
1450.34724	0.09107
1449.06147	0.09129
1447.77570	0.09136
1446.48993	0.09124
1445.20416	0.09093
1443.91839	0.09046
1442.63262	0.08991
1441.34685	0.08930
1440.06109	0.08865
1438.77532	0.08793
1437.48955	0.08712
1436.20378	0.08618
1434.91801	0.08517
1433.63224	0.08416
1432.34647	0.08319
1431.06070	0.08225
1429.77494	0.08139
1428.48917	0.08064
1427.20340	0.08003
1425.91763	0.07957
1424.63186	0.07921
1423.34609	0.07895
1422.06032	0.07879
1420.77455	0.07875
1419.48878	0.07876
1418.20302	0.07878
1416.91725	0.07880
1415.63148	0.07886
1414.34571	0.07894
1413.05994	0.07900
1411.77417	0.07901
1410.48840	0.07898
1409.20263	0.07894
1407.91687	0.07894
1406.63110	0.07897
1405.34533	0.07901
1404.05956	0.07902
1402.77379	0.07899
1401.48802	0.07895
1400.20225	0.07885
1398.91648	0.07870
1397.63071	0.07851
1396.34495	0.07837
1395.05918	0.07828
1393.77341	0.07819
1392.48764	0.07809
1391.20187	0.07801
1389.91610	0.07800
1388.63033	0.07804
1387.34456	0.07806
1386.05880	0.07801
1384.77303	0.07791
1383.48726	0.07777
1382.20149	0.07761
1380.91572	0.07741
1379.62995	0.07717
1378.34418	0.07688
1377.05841	0.07657
1375.77264	0.07624
1374.48688	0.07589
1373.20111	0.07548
1371.91534	0.07502
1370.62957	0.07450
1369.34380	0.07391
1368.05803	0.07327
1366.77226	0.07258
1365.48649	0.07191
1364.20073	0.07129
1362.91496	0.07073
1361.62919	0.07019
1360.34342	0.06969
1359.05765	0.06926
1357.77188	0.06890
1356.48611	0.06862
1355.20034	0.06841
1353.91457	0.06828
1352.62881	0.06823
1351.34304	0.06828
1350.05727	0.06839
1348.77150	0.06856
1347.48573	0.06875
1346.19996	0.06899
1344.91419	0.06932
1343.62842	0.06971
1342.34266	0.07010
1341.05689	0.07045
1339.77112	0.07072
1338.48535	0.07092
1337.19958	0.07103
1335.91381	0.07107
1334.62804	0.07105
1333.34227	0.07096
1332.05650	0.07076
1330.77074	0.07044
1329.48497	0.07003
1328.19920	0.06961
1326.91343	0.06923
1325.62766	0.06888
1324.34189	0.06854
1323.05612	0.06822
1321.77035	0.06795
1320.48459	0.06778
1319.19882	0.06770
1317.91305	0.06765
1316.62728	0.06759
1315.34151	0.06748
1314.05574	0.06732
1312.76997	0.06711
1311.48420	0.06691
1310.19843	0.06676
1308.91267	0.06666
1307.62690	0.06660
1306.34113	0.06655
1305.05536	0.06646
1303.76959	0.06632
1302.48382	0.06617
1301.19805	0.06604
1299.91228	0.06595
1298.62652	0.06588
1297.34075	0.06583
1296.05498	0.06579
1294.76921	0.06582
1293.48344	0.06593
1292.19767	0.06610
1290.91190	0.06631
1289.62613	0.06653
1288.34036	0.06678
1287.05460	0.06706
1285.76883	0.06735
1284.48306	0.06765
1283.19729	0.06793
1281.91152	0.06817
1280.62575	0.06837
1279.33998	0.06853
1278.05421	0.06863
1276.76845	0.06870
1275.48268	0.06875
1274.19691	0.06885
1272.91114	0.06902
1271.62537	0.06925
1270.33960	0.06950
1269.05383	0.06978
1267.76806	0.07012
1266.48229	0.07053
1265.19653	0.07099
1263.91076	0.07146
1262.62499	0.07189
1261.33922	0.07230
1260.05345	0.07268
1258.76768	0.07305
1257.48191	0.07345
1256.19614	0.07390
1254.91037	0.07442
1253.62461	0.07499
1252.33884	0.07558
1251.05307	0.07617
1249.76730	0.07677
1248.48153	0.07740
1247.19576	0.07809
1245.90999	0.07886
1244.62422	0.07965
1243.33846	0.08043
1242.05269	0.08115
1240.76692	0.08181
1239.48115	0.08240
1238.19538	0.08295
1236.90961	0.08344
1235.62384	0.08386
1234.33807	0.08415
1233.05230	0.08429
1231.76654	0.08432
1230.48077	0.08426
1229.19500	0.08411
1227.90923	0.08385
1226.62346	0.08344
1225.33769	0.08290
1224.05192	0.08226
1222.76615	0.08157
1221.48039	0.08085
1220.19462	0.08014
1218.90885	0.07944
1217.62308	0.07879
1216.33731	0.07821
1215.05154	0.07771
1213.76577	0.07730
1212.48000	0.07700
1211.19423	0.07682
1209.90847	0.07673
1208.62270	0.07669
1207.33693	0.07667
1206.05116	0.07664
1204.76539	0.07661
1203.47962	0.07655
1202.19385	0.07639
1200.90808	0.07587
1199.62232	0.07488
1198.33655	0.07436
1197.05078	0.07384
1195.76501	0.07331
1194.47924	0.07278
1193.19347	0.07224
1191.90770	0.07168
1190.62193	0.07109
1189.33616	0.07050
1188.05040	0.06993
1186.76463	0.06944
1185.47886	0.06905
1184.19309	0.06872
1182.90732	0.06840
1181.62155	0.06812
1180.33578	0.06793
1179.05001	0.06786
1177.76425	0.06786
1176.47848	0.06789
1175.19271	0.06786
1173.90694	0.06776
1172.62117	0.06761
1171.33540	0.06746
1170.04963	0.06733
1168.76386	0.06724
1167.47809	0.06719
1166.19233	0.06718
1164.90656	0.06719
1163.62079	0.06716
1162.33502	0.06707
1161.04925	0.06695
1159.76348	0.06682
1158.47771	0.06665
1157.19194	0.06644
1155.90618	0.06617
1154.62041	0.06583
1153.33464	0.06541
1152.04887	0.06491
1150.76310	0.06434
1149.47733	0.06375
1148.19156	0.06322
1146.90579	0.06274
1145.62002	0.06226
1144.33426	0.06176
1143.04849	0.06122
1141.76272	0.06071
1140.47695	0.06023
1139.19118	0.05980
1137.90541	0.05938
1136.61964	0.05902
1135.33387	0.05874
1134.04811	0.05853
1132.76234	0.05830
1131.47657	0.05804
1130.19080	0.05781
1128.90503	0.05764
1127.61926	0.05757
1126.33349	0.05755
1125.04772	0.05754
1123.76195	0.05747
1122.47619	0.05734
1121.19042	0.05717
1119.90465	0.05702
1118.61888	0.05695
1117.33311	0.05696
1116.04734	0.05706
1114.76157	0.05722
1113.47580	0.05735
1112.19004	0.05740
1110.90427	0.05736
1109.61850	0.05731
1108.33273	0.05736
1107.04696	0.05755
1105.76119	0.05784
1104.47542	0.05816
1103.18965	0.05844
1101.90388	0.05869
1100.61812	0.05892
1099.33235	0.05917
1098.04658	0.05948
1096.76081	0.05981
1095.47504	0.06014
1094.18927	0.06043
1092.90350	0.06071
1091.61773	0.06104
1090.33197	0.06149
1089.04620	0.06209
1087.76043	0.06282
1086.47466	0.06357
1085.18889	0.06425
1083.90312	0.06486
1082.61735	0.06542
1081.33158	0.06594
1080.04581	0.06637
1078.76005	0.06667
1077.47428	0.06685
1076.18851	0.06698
1074.90274	0.06713
1073.61697	0.06725
1072.33120	0.06731
1071.04543	0.06730
1069.75966	0.06723
1068.47390	0.06717
1067.18813	0.06717
1065.90236	0.06724
1064.61659	0.06738
1063.33082	0.06752
1062.04505	0.06763
1060.75928	0.06767
1059.47351	0.06763
1058.18774	0.06755
1056.90198	0.06747
1055.61621	0.06741
1054.33044	0.06736
1053.04467	0.06727
1051.75890	0.06711
1050.47313	0.06687
1049.18736	0.06659
1047.90159	0.06630
1046.61583	0.06605
1045.33006	0.06587
1044.04429	0.06577
1042.75852	0.06573
1041.47275	0.06573
1040.18698	0.06569
1038.90121	0.06560
1037.61544	0.06550
1036.32967	0.06546
1035.04391	0.06553
1033.75814	0.06566
1032.47237	0.06576
1031.18660	0.06573
1029.90083	0.06553
1028.61506	0.06519
1027.32929	0.06473
1026.04352	0.06418
1024.75775	0.06358
1023.47199	0.06298
1022.18622	0.06241
1020.90045	0.06186
1019.61468	0.06134
1018.32891	0.06083
1017.04314	0.06034
1015.75737	0.05988
1014.47160	0.05939
1013.18584	0.05885
1011.90007	0.05825
1010.61430	0.05765
1009.32853	0.05709
1008.04276	0.05657
1006.75699	0.05605
1005.47122	0.05550
1004.18545	0.05494
1002.89968	0.05439
1001.61392	0.05388
1000.32815	0.05340
999.04238	0.05293
997.75661	0.05247
996.47084	0.05200
995.18507	0.05154
993.89930	0.05107
992.61353	0.05062
991.32777	0.05025
990.04200	0.04996
988.75623	0.04972
987.47046	0.04944
986.18469	0.04911
984.89892	0.04877
983.61315	0.04850
982.32738	0.04833
981.04161	0.04824
979.75585	0.04818
978.47008	0.04813
977.18431	0.04805
975.89854	0.04792
974.61277	0.04774
973.32700	0.04756
972.04123	0.04740
970.75546	0.04726
969.46970	0.04713
968.18393	0.04699
966.89816	0.04682
965.61239	0.04663
964.32662	0.04639
963.04085	0.04613
961.75508	0.04590
960.46931	0.04574
959.18354	0.04564
957.89778	0.04557
956.61201	0.04549
955.32624	0.04533
954.04047	0.04510
952.75470	0.04484
951.46893	0.04461
950.18316	0.04439
948.89739	0.04419
947.61163	0.04402
946.32586	0.04393
945.04009	0.04391
943.75432	0.04391
942.46855	0.04390
941.18278	0.04390
939.89701	0.04394
938.61124	0.04398
937.32547	0.04399
936.03971	0.04393
934.75394	0.04381
933.46817	0.04367
932.18240	0.04356
930.89663	0.04353
929.61086	0.04355
928.32509	0.04355
927.03932	0.04350
925.75356	0.04341
924.46779	0.04331
923.18202	0.04323
921.89625	0.04315
920.61048	0.04302
919.32471	0.04282
918.03894	0.04253
916.75317	0.04220
915.46740	0.04187
914.18164	0.04159
912.89587	0.04141
911.61010	0.04130
910.32433	0.04123
909.03856	0.04111
907.75279	0.04092
906.46702	0.04068
905.18125	0.04044
903.89549	0.04024
902.60972	0.04006
901.32395	0.03988
900.03818	0.03971
898.75241	0.03956
897.46664	0.03941
896.18087	0.03924
894.89510	0.03902
893.60933	0.03877
892.32357	0.03853
891.03780	0.03831
889.75203	0.03807
888.46626	0.03778
887.18049	0.03746
885.89472	0.03719
884.60895	0.03707
883.32318	0.03712
882.03742	0.03731
880.75165	0.03759
879.46588	0.03786
878.18011	0.03806
876.89434	0.03811
875.60857	0.03799
874.32280	0.03778
873.03703	0.03756
871.75126	0.03740
870.46550	0.03725
869.17973	0.03704
867.89396	0.03677
866.60819	0.03656
865.32242	0.03649
864.03665	0.03655
862.75088	0.03664
861.46511	0.03663
860.17935	0.03647
858.89358	0.03623
857.60781	0.03602
856.32204	0.03594
855.03627	0.03601
853.75050	0.03616
852.46473	0.03624
851.17896	0.03618
849.89319	0.03600
848.60743	0.03579
847.32166	0.03562
846.03589	0.03551
844.75012	0.03541
843.46435	0.03532
842.17858	0.03521
840.89281	0.03510
839.60704	0.03501
838.32128	0.03499
837.03551	0.03500
835.74974	0.03503
834.46397	0.03505
833.17820	0.03506
831.89243	0.03510
830.60666	0.03517
829.32089	0.03522
828.03512	0.03521
826.74936	0.03518
825.46359	0.03525
824.17782	0.03546
822.89205	0.03572
821.60628	0.03589
820.32051	0.03591
819.03474	0.03583
817.74897	0.03574
816.46321	0.03570
815.17744	0.03572
813.89167	0.03578
812.60590	0.03591
811.32013	0.03610
810.03436	0.03625
808.74859	0.03629
807.46282	0.03627
806.17705	0.03630
804.89129	0.03644
803.60552	0.03663
802.31975	0.03677
801.03398	0.03686
799.74821	0.03691
798.46244	0.03695
797.17667	0.03696
795.89090	0.03696
794.60513	0.03697
793.31937	0.03700
792.03360	0.03704
790.74783	0.03708
789.46206	0.03717
788.17629	0.03734
786.89052	0.03757
785.60475	0.03778
784.31898	0.03790
783.03322	0.03792
781.74745	0.03790
780.46168	0.03792
779.17591	0.03803
777.89014	0.03819
776.60437	0.03834
775.31860	0.03842
774.03283	0.03843
772.74706	0.03841
771.46130	0.03839
770.17553	0.03842
768.88976	0.03855
767.60399	0.03877
766.31822	0.03902
765.03245	0.03921
763.74668	0.03934
762.46091	0.03946
761.17515	0.03963
759.88938	0.03983
758.60361	0.04003
757.31784	0.04019
756.03207	0.04029
754.74630	0.04034
753.46053	0.04040
752.17476	0.04055
750.88899	0.04082
749.60323	0.04114
748.31746	0.04137
747.03169	0.04147
745.74592	0.04149
744.46015	0.04154
743.17438	0.04168
741.88861	0.04188
740.60284	0.04206
739.31708	0.04217
738.03131	0.04223
736.74554	0.04230
735.45977	0.04234
734.17400	0.04234
732.88823	0.04232
731.60246	0.04236
730.31669	0.04255
729.03092	0.04283
727.74516	0.04314
726.45939	0.04340
725.17362	0.04362
723.88785	0.04380
722.60208	0.04402
721.31631	0.04425
720.03054	0.04444
718.74477	0.04456
717.45901	0.04462
716.17324	0.04463
714.88747	0.04465
713.60170	0.04472
712.31593	0.04489
711.03016	0.04512
709.74439	0.04540
708.45862	0.04568
707.17285	0.04597
705.88709	0.04626
704.60132	0.04654
703.31555	0.04680
702.02978	0.04706
700.74401	0.04729
699.45824	0.04749
698.17247	0.04764
696.88670	0.04774
695.60094	0.04780
694.31517	0.04784
693.02940	0.04785
691.74363	0.04782
690.45786	0.04778
689.17209	0.04777
687.88632	0.04780
686.60055	0.04785
685.31478	0.04790
684.02902	0.04797
682.74325	0.04809
681.45748	0.04827
680.17171	0.04846
678.88594	0.04862
677.60017	0.04873
676.31440	0.04880
675.02863	0.04886
673.74287	0.04891
672.45710	0.04895
671.17133	0.04900
669.88556	0.04909
668.59979	0.04924
667.31402	0.04942
666.02825	0.04961
664.74248	0.04979
663.45671	0.04996
662.17095	0.05011
660.88518	0.05021
659.59941	0.05024
658.31364	0.05025
657.02787	0.05028
655.74210	0.05039
654.45633	0.05060
653.17056	0.05083
651.88480	0.05103
650.59903	0.05117
649.31326	0.05127
648.02749	0.05137
646.74172	0.05146
645.45595	0.05148
644.17018	0.05140
642.88441	0.05123
641.59864	0.05106
640.31288	0.05098
639.02711	0.05103
637.74134	0.05117
636.45557	0.05130
635.16980	0.05140
633.88403	0.05141
632.59826	0.05126
631.31249	0.05145
630.02673	0.05425
628.74096	0.05867
627.45519	0.05571
626.16942	0.06075
624.88365	0.07095
623.59788	0.07998
622.31211	0.08541
621.02634	0.08651
619.74057	0.08336
618.45481	0.07696
617.16904	0.06910
615.88327	0.06169
614.59750	0.05609
613.31173	0.05307
612.02596	0.05301
610.74019	0.05585
609.45442	0.06071
608.16866	0.06586
606.88289	0.06967
605.59712	0.07144
604.31135	0.07141
603.02558	0.07023
601.73981	0.06842
600.45404	0.06627
599.16827	0.06398
597.88250	0.06180
596.59674	0.06000
595.31097	0.05869
594.02520	0.05785
592.73943	0.05735
591.45366	0.05710
590.16789	0.05701
588.88212	0.05705
587.59635	0.05717
586.31059	0.05730
585.02482	0.05740
583.73905	0.05749
582.45328	0.05760
581.16751	0.05771
579.88174	0.05777
578.59597	0.05775
577.31020	0.05769
576.02443	0.05768
574.73867	0.05785
573.45290	0.05827
572.16713	0.05898
570.88136	0.05991
569.59559	0.06094
568.30982	0.06184
567.02405	0.06231
565.73828	0.06220
564.45251	0.06160
563.16675	0.06077
561.88098	0.05995
560.59521	0.05925
559.30944	0.05866
558.02367	0.05823
556.73790	0.05799
555.45213	0.05786
554.16636	0.05773
552.88060	0.05750
551.59483	0.05722
550.30906	0.05700
549.02329	0.05691
547.73752	0.05691
546.45175	0.05696
545.16598	0.05700
543.88021	0.05694
542.59444	0.05670
541.30868	0.05631
540.02291	0.05592
538.73714	0.05567
537.45137	0.05559
536.16560	0.05562
534.87983	0.05571
533.59406	0.05582
532.30829	0.05593
531.02253	0.05601
529.73676	0.05601
528.45099	0.05596
527.16522	0.05590
525.87945	0.05585
524.59368	0.05576
523.30791	0.05555
522.02214	0.05527
520.73637	0.05504
519.45061	0.05495
518.16484	0.05494
516.87907	0.05490
515.59330	0.05475
514.30753	0.05452
513.02176	0.05427
511.73599	0.05406
510.45022	0.05388
509.16446	0.05367
507.87869	0.05341
506.59292	0.05315
505.30715	0.05293
504.02138	0.05272
502.73561	0.05245
501.44984	0.05209
500.16407	0.05171
498.87830	0.05138
497.59254	0.05110
496.30677	0.05083
495.02100	0.05054
493.73523	0.05024
492.44946	0.05001
491.16369	0.04988
489.87792	0.04983
488.59215	0.04976
487.30639	0.04959
486.02062	0.04935
484.73485	0.04909
483.44908	0.04882
482.16331	0.04848
480.87754	0.04805
479.59177	0.04760
478.30600	0.04724
477.02023	0.04699
475.73447	0.04683
474.44870	0.04673
473.16293	0.04666
471.87716	0.04657
470.59139	0.04642
469.30562	0.04623
468.01985	0.04605
466.73408	0.04592
465.44832	0.04584
464.16255	0.04577
462.87678	0.04569
461.59101	0.04558
460.30524	0.04543
459.01947	0.04523
457.73370	0.04496
456.44793	0.04462
455.16216	0.04424
453.87640	0.04389
452.59063	0.04358
451.30486	0.04329
450.01909	0.04296
448.73332	0.04258
447.44755	0.04220
446.16178	0.04188
444.87601	0.04164
443.59025	0.04143
442.30448	0.04122
441.01871	0.04102
439.73294	0.04086
438.44717	0.04076
437.16140	0.04065
435.87563	0.04053
434.58986	0.04042
433.30409	0.04034
432.01833	0.04028
430.73256	0.04017
429.44679	0.04003
428.16102	0.03988
426.87525	0.03974
425.58948	0.03958
424.30371	0.03939
423.01794	0.03919
421.73218	0.03902
420.44641	0.03888
419.16064	0.03872
417.87487	0.03851
416.58910	0.03823
415.30333	0.03796
414.01756	0.03776
412.73179	0.03767
411.44602	0.03765
410.16026	0.03760
408.87449	0.03749
407.58872	0.03732
406.30295	0.03716
405.01718	0.03701
403.73141	0.03689
402.44564	0.03676
401.15987	0.03662
399.87411	0.03645
