3997.45528	0.05943
3996.16951	0.06057
3994.88374	0.06147
3993.59798	0.06175
3992.31221	0.06129
3991.02644	0.06047
3989.74067	0.05976
3988.45490	0.05938
3987.16913	0.05935
3985.88336	0.05966
3984.59759	0.06023
3983.31183	0.06079
3982.02606	0.06096
3980.74029	0.06063
3979.45452	0.06012
3978.16875	0.05982
3976.88298	0.05985
3975.59721	0.05994
3974.31144	0.05976
3973.02567	0.05920
3971.73991	0.05847
3970.45414	0.05783
3969.16837	0.05739
3967.88260	0.05712
3966.59683	0.05700
3965.31106	0.05704
3964.02529	0.05723
3962.73952	0.05752
3961.45376	0.05790
3960.16799	0.05837
3958.88222	0.05881
3957.59645	0.05909
3956.31068	0.05917
3955.02491	0.05914
3953.73914	0.05904
3952.45337	0.05879
3951.16760	0.05845
3949.88184	0.05823
3948.59607	0.05838
3947.31030	0.05893
3946.02453	0.05962
3944.73876	0.06005
3943.45299	0.05998
3942.16722	0.05956
3940.88145	0.05906
3939.59569	0.05863
3938.30992	0.05826
3937.02415	0.05796
3935.73838	0.05773
3934.45261	0.05760
3933.16684	0.05754
3931.88107	0.05757
3930.59530	0.05770
3929.30953	0.05793
3928.02377	0.05818
3926.73800	0.05828
3925.45223	0.05816
3924.16646	0.05786
3922.88069	0.05749
3921.59492	0.05711
3920.30915	0.05677
3919.02338	0.05658
3917.73762	0.05663
3916.45185	0.05688
3915.16608	0.05716
3913.88031	0.05731
3912.59454	0.05735
3911.30877	0.05740
3910.02300	0.05750
3908.73723	0.05750
3907.45146	0.05723
3906.16570	0.05674
3904.87993	0.05631
3903.59416	0.05619
3902.30839	0.05635
3901.02262	0.05657
3899.73685	0.05661
3898.45108	0.05640
3897.16531	0.05614
3895.87955	0.05609
3894.59378	0.05631
3893.30801	0.05662
3892.02224	0.05678
3890.73647	0.05684
3889.45070	0.05704
3888.16493	0.05748
3886.87916	0.05790
3885.59339	0.05796
3884.30763	0.05761
3883.02186	0.05713
3881.73609	0.05675
3880.45032	0.05642
3879.16455	0.05604
3877.87878	0.05571
3876.59301	0.05569
3875.30724	0.05605
3874.02148	0.05659
3872.73571	0.05702
3871.44994	0.05721
3870.16417	0.05714
3868.87840	0.05693
3867.59263	0.05675
3866.30686	0.05677
3865.02109	0.05699
3863.73532	0.05725
3862.44956	0.05722
3861.16379	0.05670
3859.87802	0.05583
3858.59225	0.05504
3857.30648	0.05465
3856.02071	0.05461
3854.73494	0.05463
3853.44917	0.05453
3852.16341	0.05440
3850.87764	0.05438
3849.59187	0.05446
3848.30610	0.05453
3847.02033	0.05449
3845.73456	0.05433
3844.44879	0.05411
3843.16302	0.05388
3841.87725	0.05382
3840.59149	0.05409
3839.30572	0.05464
3838.01995	0.05517
3836.73418	0.05538
3835.44841	0.05525
3834.16264	0.05499
3832.87687	0.05472
3831.59110	0.05440
3830.30534	0.05402
3829.01957	0.05372
3827.73380	0.05368
3826.44803	0.05384
3825.16226	0.05395
3823.87649	0.05373
3822.59072	0.05319
3821.30495	0.05253
3820.01918	0.05208
3818.73342	0.05198
3817.44765	0.05217
3816.16188	0.05244
3814.87611	0.05261
3813.59034	0.05259
3812.30457	0.05249
3811.01880	0.05249
3809.73303	0.05268
3808.44726	0.05294
3807.16150	0.05306
3805.87573	0.05290
3804.58996	0.05251
3803.30419	0.05203
3802.01842	0.05158
3800.73265	0.05129
3799.44688	0.05125
3798.16111	0.05146
3796.87535	0.05165
3795.58958	0.05153
3794.30381	0.05104
3793.01804	0.05048
3791.73227	0.05022
3790.44650	0.05048
3789.16073	0.05117
3787.87496	0.05200
3786.58919	0.05270
3785.30343	0.05307
3784.01766	0.05306
3782.73189	0.05278
3781.44612	0.05248
3780.16035	0.05239
3778.87458	0.05263
3777.58881	0.05298
3776.30304	0.05308
3775.01728	0.05272
3773.73151	0.05205
3772.44574	0.05151
3771.15997	0.05142
3769.87420	0.05174
3768.58843	0.05220
3767.30266	0.05246
3766.01689	0.05236
3764.73112	0.05194
3763.44536	0.05138
3762.15959	0.05094
3760.87382	0.05079
3759.58805	0.05091
3758.30228	0.05118
3757.01651	0.05154
3755.73074	0.05198
3754.44497	0.05240
3753.15921	0.05246
3751.87344	0.05189
3750.58767	0.05072
3749.30190	0.04938
3748.01613	0.04842
3746.73036	0.04815
3745.44459	0.04848
3744.15882	0.04897
3742.87305	0.04919
3741.58729	0.04903
3740.30152	0.04878
3739.01575	0.04883
3737.72998	0.04932
3736.44421	0.05005
3735.15844	0.05066
3733.87267	0.05089
3732.58690	0.05081
3731.30114	0.05071
3730.01537	0.05082
3728.72960	0.05113
3727.44383	0.05148
3726.15806	0.05176
3724.87229	0.05192
3723.58652	0.05184
3722.30075	0.05130
3721.01498	0.05036
3719.72922	0.04932
3718.44345	0.04853
3717.15768	0.04809
3715.87191	0.04788
3714.58614	0.04782
3713.30037	0.04784
3712.01460	0.04785
3710.72883	0.04772
3709.44307	0.04744
3708.15730	0.04719
3706.87153	0.04717
3705.58576	0.04735
3704.29999	0.04746
3703.01422	0.04738
3701.72845	0.04728
3700.44268	0.04731
3699.15691	0.04735
3697.87115	0.04726
3696.58538	0.04719
3695.29961	0.04738
3694.01384	0.04792
3692.72807	0.04864
3691.44230	0.04903
3690.15653	0.04871
3688.87076	0.04786
3687.58500	0.04700
3686.29923	0.04646
3685.01346	0.04628
3683.72769	0.04623
3682.44192	0.04609
3681.15615	0.04594
3679.87038	0.04595
3678.58461	0.04620
3677.29884	0.04661
3676.01308	0.04705
3674.72731	0.04749
3673.44154	0.04801
3672.15577	0.04864
3670.87000	0.04922
3669.58423	0.04954
3668.29846	0.04946
3667.01269	0.04910
3665.72693	0.04867
3664.44116	0.04843
3663.15539	0.04851
3661.86962	0.04888
3660.58385	0.04941
3659.29808	0.04990
3658.01231	0.05021
3656.72654	0.05031
3655.44077	0.05031
3654.15501	0.05035
3652.86924	0.05050
3651.58347	0.05072
3650.29770	0.05091
3649.01193	0.05101
3647.72616	0.05106
3646.44039	0.05128
3645.15462	0.05184
3643.86886	0.05272
3642.58309	0.05363
3641.29732	0.05429
3640.01155	0.05452
3638.72578	0.05432
3637.44001	0.05383
3636.15424	0.05335
3634.86847	0.05316
3633.58270	0.05334
3632.29694	0.05375
3631.01117	0.05422
3629.72540	0.05476
3628.43963	0.05548
3627.15386	0.05636
3625.86809	0.05714
3624.58232	0.05758
3623.29655	0.05756
3622.01079	0.05729
3620.72502	0.05709
3619.43925	0.05726
3618.15348	0.05775
3616.86771	0.05821
3615.58194	0.05824
3614.29617	0.05785
3613.01040	0.05740
3611.72463	0.05727
3610.43887	0.05752
3609.15310	0.05804
3607.86733	0.05890
3606.58156	0.06017
3605.29579	0.06166
3604.01002	0.06290
3602.72425	0.06357
3601.43848	0.06377
3600.15272	0.06372
3598.86695	0.06344
3597.58118	0.06290
3596.29541	0.06233
3595.00964	0.06209
3593.72387	0.06231
3592.43810	0.06283
3591.15233	0.06342
3589.86656	0.06395
3588.58080	0.06448
3587.29503	0.06516
3586.00926	0.06595
3584.72349	0.06658
3583.43772	0.06688
3582.15195	0.06694
3580.86618	0.06698
3579.58041	0.06720
3578.29464	0.06767
3577.00888	0.06829
3575.72311	0.06897
3574.43734	0.06958
3573.15157	0.07002
3571.86580	0.07027
3570.58003	0.07053
3569.29426	0.07108
3568.00849	0.07204
3566.72273	0.07314
3565.43696	0.07394
3564.15119	0.07417
3562.86542	0.07398
3561.57965	0.07373
3560.29388	0.07371
3559.00811	0.07394
3557.72234	0.07426
3556.43657	0.07457
3555.15081	0.07491
3553.86504	0.07542
3552.57927	0.07615
3551.29350	0.07695
3550.00773	0.07764
3548.72196	0.07816
3547.43619	0.07863
3546.15042	0.07921
3544.86466	0.07990
3543.57889	0.08056
3542.29312	0.08110
3541.00735	0.08167
3539.72158	0.08242
3538.43581	0.08331
3537.15004	0.08406
3535.86427	0.08451
3534.57850	0.08482
3533.29274	0.08530
3532.00697	0.08605
3530.72120	0.08689
3529.43543	0.08759
3528.14966	0.08801
3526.86389	0.08818
3525.57812	0.08812
3524.29235	0.08790
3523.00659	0.08774
3521.72082	0.08796
3520.43505	0.08877
3519.14928	0.09003
3517.86351	0.09114
3516.57774	0.09156
3515.29197	0.09123
3514.00620	0.09067
3512.72043	0.09050
3511.43467	0.09099
3510.14890	0.09197
3508.86313	0.09301
3507.57736	0.09370
3506.29159	0.09394
3505.00582	0.09400
3503.72005	0.09419
3502.43428	0.09458
3501.14852	0.09495
3499.86275	0.09512
3498.57698	0.09512
3497.29121	0.09520
3496.00544	0.09552
3494.71967	0.09600
3493.43390	0.09641
3492.14813	0.09667
3490.86236	0.09695
3489.57660	0.09738
3488.29083	0.09796
3487.00506	0.09854
3485.71929	0.09905
3484.43352	0.09956
3483.14775	0.10018
3481.86198	0.10082
3480.57621	0.10135
3479.29045	0.10171
3478.00468	0.10201
3476.71891	0.10240
3475.43314	0.10289
3474.14737	0.10329
3472.86160	0.10343
3471.57583	0.10329
3470.29006	0.10307
3469.00429	0.10312
3467.71853	0.10372
3466.43276	0.10487
3465.14699	0.10624
3463.86122	0.10735
3462.57545	0.10787
3461.28968	0.10787
3460.00391	0.10770
3458.71814	0.10763
3457.43238	0.10768
3456.14661	0.10766
3454.86084	0.10754
3453.57507	0.10759
3452.28930	0.10812
3451.00353	0.10917
3449.71776	0.11030
3448.43199	0.11095
3447.14622	0.11091
3445.86046	0.11051
3444.57469	0.11023
3443.28892	0.11040
3442.00315	0.11104
3440.71738	0.11190
3439.43161	0.11263
3438.14584	0.11301
3436.86007	0.11316
3435.57431	0.11341
3434.28854	0.11399
3433.00277	0.11475
3431.71700	0.11535
3430.43123	0.11561
3429.14546	0.11563
3427.85969	0.11568
3426.57392	0.11588
3425.28815	0.11620
3424.00239	0.11651
3422.71662	0.11677
3421.43085	0.11704
3420.14508	0.11740
3418.85931	0.11782
3417.57354	0.11826
3416.28777	0.11873
3415.00200	0.11926
3413.71624	0.11984
3412.43047	0.12040
3411.14470	0.12092
3409.85893	0.12147
3408.57316	0.12206
3407.28739	0.12257
3406.00162	0.12287
3404.71585	0.12302
3403.43008	0.12321
3402.14432	0.12350
3400.85855	0.12373
3399.57278	0.12371
3398.28701	0.12348
3397.00124	0.12331
3395.71547	0.12353
3394.42970	0.12431
3393.14393	0.12552
3391.85817	0.12673
3390.57240	0.12748
3389.28663	0.12765
3388.00086	0.12753
3386.71509	0.12755
3385.42932	0.12790
3384.14355	0.12844
3382.85778	0.12889
3381.57201	0.12909
3380.28625	0.12912
3379.00048	0.12920
3377.71471	0.12951
3376.42894	0.13000
3375.14317	0.13046
3373.85740	0.13081
3372.57163	0.13123
3371.28586	0.13199
3370.00010	0.13313
3368.71433	0.13446
3367.42856	0.13570
3366.14279	0.13666
3364.85702	0.13728
3363.57125	0.13759
3362.28548	0.13773
3360.99971	0.13785
3359.71394	0.13809
3358.42818	0.13856
3357.14241	0.13934
3355.85664	0.14036
3354.57087	0.14141
3353.28510	0.14225
3351.99933	0.14291
3350.71356	0.14361
3349.42779	0.14446
3348.14202	0.14536
3346.85626	0.14616
3345.57049	0.14684
3344.28472	0.14749
3342.99895	0.14810
3341.71318	0.14864
3340.42741	0.14918
3339.14164	0.14976
3337.85587	0.15031
3336.57011	0.15073
3335.28434	0.15102
3333.99857	0.15131
3332.71280	0.15179
3331.42703	0.15251
3330.14126	0.15332
3328.85549	0.15396
3327.56972	0.15433
3326.28395	0.15456
3324.99819	0.15480
3323.71242	0.15511
3322.42665	0.15540
3321.14088	0.15568
3319.85511	0.15602
3318.56934	0.15650
3317.28357	0.15706
3315.99780	0.15758
3314.71204	0.15802
3313.42627	0.15843
3312.14050	0.15885
3310.85473	0.15926
3309.56896	0.15959
3308.28319	0.15989
3306.99742	0.16027
3305.71165	0.16073
3304.42588	0.16118
3303.14012	0.16155
3301.85435	0.16188
3300.56858	0.16223
3299.28281	0.16257
3297.99704	0.16287
3296.71127	0.16317
3295.42550	0.16349
3294.13973	0.16375
3292.85397	0.16378
3291.56820	0.16346
3290.28243	0.16293
3288.99666	0.16249
3287.71089	0.16246
3286.42512	0.16285
3285.13935	0.16342
3283.85358	0.16389
3282.56781	0.16416
3281.28205	0.16426
3279.99628	0.16427
3278.71051	0.16417
3277.42474	0.16389
3276.13897	0.16346
3274.85320	0.16300
3273.56743	0.16269
3272.28166	0.16261
3270.99590	0.16266
3269.71013	0.16265
3268.42436	0.16240
3267.13859	0.16190
3265.85282	0.16124
3264.56705	0.16053
3263.28128	0.15977
3261.99551	0.15894
3260.70974	0.15809
3259.42398	0.15735
3258.13821	0.15686
3256.85244	0.15658
3255.56667	0.15639
3254.28090	0.15618
3252.99513	0.15592
3251.70936	0.15551
3250.42359	0.15480
3249.13783	0.15380
3247.85206	0.15281
3246.56629	0.15213
3245.28052	0.15177
3243.99475	0.15146
3242.70898	0.15103
3241.42321	0.15049
3240.13744	0.14995
3238.85167	0.14946
3237.56591	0.14901
3236.28014	0.14862
3234.99437	0.14834
3233.70860	0.14819
3232.42283	0.14819
3231.13706	0.14828
3229.85129	0.14827
3228.56552	0.14793
3227.27976	0.14724
3225.99399	0.14643
3224.70822	0.14580
3223.42245	0.14546
3222.13668	0.14534
3220.85091	0.14527
3219.56514	0.14512
3218.27937	0.14481
3216.99360	0.14424
3215.70784	0.14343
3214.42207	0.14252
3213.13630	0.14175
3211.85053	0.14135
3210.56476	0.14138
3209.27899	0.14167
3207.99322	0.14196
3206.70745	0.14201
3205.42169	0.14176
3204.13592	0.14128
3202.85015	0.14063
3201.56438	0.13985
3200.27861	0.13900
3198.99284	0.13823
3197.70707	0.13773
3196.42130	0.13760
3195.13553	0.13773
3193.84977	0.13785
3192.56400	0.13773
3191.27823	0.13727
3189.99246	0.13652
3188.70669	0.13564
3187.42092	0.13478
3186.13515	0.13401
3184.84938	0.13335
3183.56362	0.13278
3182.27785	0.13235
3180.99208	0.13203
3179.70631	0.13173
3178.42054	0.13133
3177.13477	0.13078
3175.84900	0.13011
3174.56323	0.12945
3173.27746	0.12885
3171.99170	0.12824
3170.70593	0.12751
3169.42016	0.12668
3168.13439	0.12591
3166.84862	0.12534
3165.56285	0.12492
3164.27708	0.12448
3162.99131	0.12397
3161.70555	0.12341
3160.41978	0.12280
3159.13401	0.12208
3157.84824	0.12124
3156.56247	0.12047
3155.27670	0.11992
3153.99093	0.11962
3152.70516	0.11942
3151.41939	0.11916
3150.13363	0.11876
3148.84786	0.11831
3147.56209	0.11788
3146.27632	0.11747
3144.99055	0.11700
3143.70478	0.11644
3142.41901	0.11585
3141.13324	0.11530
3139.84748	0.11477
3138.56171	0.11427
3137.27594	0.11380
3135.99017	0.11337
3134.70440	0.11288
3133.41863	0.11226
3132.13286	0.11159
3130.84709	0.11109
3129.56132	0.11091
3128.27556	0.11094
3126.98979	0.11093
3125.70402	0.11077
3124.41825	0.11052
3123.13248	0.11031
3121.84671	0.11013
3120.56094	0.10994
3119.27517	0.10970
3117.98940	0.10945
3116.70364	0.10920
3115.41787	0.10895
3114.13210	0.10871
3112.84633	0.10848
3111.56056	0.10828
3110.27479	0.10812
3108.98902	0.10802
3107.70325	0.10799
3106.41749	0.10803
3105.13172	0.10811
3103.84595	0.10821
3102.56018	0.10840
3101.27441	0.10877
3099.98864	0.10925
3098.70287	0.10958
3097.41710	0.10962
3096.13133	0.10947
3094.84557	0.10947
3093.55980	0.10981
3092.27403	0.11035
3090.98826	0.11081
3089.70249	0.11105
3088.41672	0.11115
3087.13095	0.11125
3085.84518	0.11139
3084.55942	0.11155
3083.27365	0.11164
3081.98788	0.11156
3080.70211	0.11124
3079.41634	0.11074
3078.13057	0.11029
3076.84480	0.11014
3075.55903	0.11036
3074.27326	0.11081
3072.98750	0.11123
3071.70173	0.11144
3070.41596	0.11148
3069.13019	0.11152
3067.84442	0.11168
3066.55865	0.11179
3065.27288	0.11167
3063.98711	0.11128
3062.70135	0.11078
3061.41558	0.11026
3060.12981	0.10973
3058.84404	0.10922
3057.55827	0.10884
3056.27250	0.10861
3054.98673	0.10840
3053.70096	0.10808
3052.41519	0.10766
3051.12943	0.10730
3049.84366	0.10705
3048.55789	0.10684
3047.27212	0.10656
3045.98635	0.10618
3044.70058	0.10578
3043.41481	0.10535
3042.12904	0.10479
3040.84328	0.10407
3039.55751	0.10332
3038.27174	0.10276
3036.98597	0.10248
3035.70020	0.10226
3034.41443	0.10186
3033.12866	0.10122
3031.84289	0.10052
3030.55712	0.09996
3029.27136	0.09953
3027.98559	0.09907
3026.69982	0.09847
3025.41405	0.09781
3024.12828	0.09729
3022.84251	0.09706
3021.55674	0.09704
3020.27097	0.09701
3018.98521	0.09682
3017.69944	0.09647
3016.41367	0.09603
3015.12790	0.09558
3013.84213	0.09519
3012.55636	0.09498
3011.27059	0.09490
3009.98482	0.09475
3008.69905	0.09437
3007.41329	0.09384
3006.12752	0.09342
3004.84175	0.09324
3003.55598	0.09320
3002.27021	0.09316
3000.98444	0.09310
2999.69867	0.09308
2998.41290	0.09309
2997.12714	0.09311
2995.84137	0.09317
2994.55560	0.09333
2993.26983	0.09353
2991.98406	0.09375
2990.69829	0.09408
2989.41252	0.09459
2988.12675	0.09518
2986.84098	0.09567
2985.55522	0.09605
2984.26945	0.09645
2982.98368	0.09698
2981.69791	0.09761
2980.41214	0.09823
2979.12637	0.09882
2977.84060	0.09941
2976.55483	0.10009
2975.26907	0.10090
2973.98330	0.10178
2972.69753	0.10257
2971.41176	0.10315
2970.12599	0.10358
2968.84022	0.10405
2967.55445	0.10466
2966.26868	0.10531
2964.98291	0.10589
2963.69715	0.10636
2962.41138	0.10675
2961.12561	0.10712
2959.83984	0.10747
2958.55407	0.10777
2957.26830	0.10794
2955.98253	0.10793
2954.69676	0.10775
2953.41100	0.10748
2952.12523	0.10715
2950.83946	0.10678
2949.55369	0.10645
2948.26792	0.10625
2946.98215	0.10622
2945.69638	0.10638
2944.41061	0.10676
2943.12484	0.10739
2941.83908	0.10825
2940.55331	0.10924
2939.26754	0.11018
2937.98177	0.11091
2936.69600	0.11135
2935.41023	0.11160
2934.12446	0.11178
2932.83869	0.11195
2931.55293	0.11211
2930.26716	0.11224
2928.98139	0.11238
2927.69562	0.11246
2926.40985	0.11244
2925.12408	0.11230
2923.83831	0.11209
2922.55254	0.11184
2921.26677	0.11151
2919.98101	0.11109
2918.69524	0.11051
2917.40947	0.10970
2916.12370	0.10861
2914.83793	0.10724
2913.55216	0.10573
2912.26639	0.10430
2910.98062	0.10307
2909.69486	0.10206
2908.40909	0.10119
2907.12332	0.10039
2905.83755	0.09967
2904.55178	0.09902
2903.26601	0.09846
2901.98024	0.09795
2900.69447	0.09743
2899.40870	0.09682
2898.12294	0.09610
2896.83717	0.09544
2895.55140	0.09502
2894.26563	0.09495
2892.97986	0.09508
2891.69409	0.09523
2890.40832	0.09526
2889.12255	0.09518
2887.83678	0.09497
2886.55102	0.09462
2885.26525	0.09417
2883.97948	0.09378
2882.69371	0.09363
2881.40794	0.09372
2880.12217	0.09389
2878.83640	0.09398
2877.55063	0.09400
2876.26487	0.09411
2874.97910	0.09435
2873.69333	0.09455
2872.40756	0.09452
2871.12179	0.09419
2869.83602	0.09364
2868.55025	0.09299
2867.26448	0.09233
2865.97871	0.09174
2864.69295	0.09128
2863.40718	0.09094
2862.12141	0.09070
2860.83564	0.09056
2859.54987	0.09054
2858.26410	0.09058
2856.97833	0.09046
2855.69256	0.09006
2854.40680	0.08950
2853.12103	0.08905
2851.83526	0.08883
2850.54949	0.08874
2849.26372	0.08852
2847.97795	0.08797
2846.69218	0.08708
2845.40641	0.08603
2844.12064	0.08508
2842.83488	0.08429
2841.54911	0.08352
2840.26334	0.08262
2838.97757	0.08165
2837.69180	0.08079
2836.40603	0.08013
2835.12026	0.07960
2833.83449	0.07916
2832.54873	0.07883
2831.26296	0.07865
2829.97719	0.07856
2828.69142	0.07847
2827.40565	0.07833
2826.11988	0.07816
2824.83411	0.07799
2823.54834	0.07780
2822.26257	0.07751
2820.97681	0.07711
2819.69104	0.07673
2818.40527	0.07649
2817.11950	0.07641
2815.83373	0.07636
2814.54796	0.07620
2813.26219	0.07584
2811.97642	0.07532
2810.69066	0.07474
2809.40489	0.07428
2808.11912	0.07408
2806.83335	0.07415
2805.54758	0.07432
2804.26181	0.07440
2802.97604	0.07427
2801.69027	0.07397
2800.40450	0.07360
2799.11874	0.07332
2797.83297	0.07320
2796.54720	0.07314
2795.26143	0.07302
2793.97566	0.07281
2792.68989	0.07259
2791.40412	0.07242
2790.11835	0.07226
2788.83259	0.07208
2787.54682	0.07191
2786.26105	0.07184
2784.97528	0.07182
2783.68951	0.07172
2782.40374	0.07151
2781.11797	0.07124
2779.83220	0.07098
2778.54643	0.07070
2777.26067	0.07038
2775.97490	0.07013
2774.68913	0.07006
2773.40336	0.07011
2772.11759	0.07009
2770.83182	0.06984
2769.54605	0.06937
2768.26028	0.06887
2766.97452	0.06857
2765.68875	0.06858
2764.40298	0.06879
2763.11721	0.06897
2761.83144	0.06894
2760.54567	0.06867
2759.25990	0.06827
2757.97413	0.06784
2756.68836	0.06747
2755.40260	0.06722
2754.11683	0.06713
2752.83106	0.06715
2751.54529	0.06719
2750.25952	0.06719
2748.97375	0.06716
2747.68798	0.06713
2746.40221	0.06706
2745.11645	0.06686
2743.83068	0.06653
2742.54491	0.06615
2741.25914	0.06584
2739.97337	0.06560
2738.68760	0.06537
2737.40183	0.06511
2736.11606	0.06485
2734.83029	0.06464
2733.54453	0.06453
2732.25876	0.06447
2730.97299	0.06439
2729.68722	0.06426
2728.40145	0.06411
2727.11568	0.06404
2725.82991	0.06411
2724.54414	0.06428
2723.25838	0.06441
2721.97261	0.06434
2720.68684	0.06403
2719.40107	0.06359
2718.11530	0.06316
2716.82953	0.06284
2715.54376	0.06264
2714.25799	0.06251
2712.97222	0.06239
2711.68646	0.06227
2710.40069	0.06218
2709.11492	0.06216
2707.82915	0.06217
2706.54338	0.06214
2705.25761	0.06202
2703.97184	0.06184
2702.68607	0.06168
2701.40031	0.06157
2700.11454	0.06145
2698.82877	0.06128
2697.54300	0.06110
2696.25723	0.06094
2694.97146	0.06080
2693.68569	0.06061
2692.39992	0.06031
2691.11415	0.05997
2689.82839	0.05969
2688.54262	0.05954
2687.25685	0.05949
2685.97108	0.05944
2684.68531	0.05938
2683.39954	0.05933
2682.11377	0.05932
2680.82800	0.05932
2679.54224	0.05932
2678.25647	0.05932
2676.97070	0.05933
2675.68493	0.05936
2674.39916	0.05937
2673.11339	0.05938
2671.82762	0.05938
2670.54185	0.05936
2669.25608	0.05937
2667.97032	0.05941
2666.68455	0.05944
2665.39878	0.05939
2664.11301	0.05927
2662.82724	0.05909
2661.54147	0.05890
2660.25570	0.05871
2658.96993	0.05854
2657.68417	0.05835
2656.39840	0.05814
2655.11263	0.05795
2653.82686	0.05788
2652.54109	0.05791
2651.25532	0.05788
2649.96955	0.05768
2648.68378	0.05731
2647.39801	0.05691
2646.11225	0.05660
2644.82648	0.05644
2643.54071	0.05641
2642.25494	0.05645
2640.96917	0.05650
2639.68340	0.05647
2638.39763	0.05627
2637.11186	0.05587
2635.82609	0.05536
2634.54033	0.05490
2633.25456	0.05457
2631.96879	0.05439
2630.68302	0.05431
2629.39725	0.05426
2628.11148	0.05414
2626.82571	0.05390
2625.53994	0.05359
2624.25418	0.05327
2622.96841	0.05295
2621.68264	0.05267
2620.39687	0.05252
2619.11110	0.05257
2617.82533	0.05281
2616.53956	0.05307
2615.25379	0.05321
2613.96802	0.05311
2612.68226	0.05271
2611.39649	0.05208
2610.11072	0.05143
2608.82495	0.05097
2607.53918	0.05076
2606.25341	0.05066
2604.96764	0.05050
2603.68187	0.05029
2602.39611	0.05014
2601.11034	0.05011
2599.82457	0.05014
2598.53880	0.05013
2597.25303	0.05005
2595.96726	0.04991
2594.68149	0.04960
2593.39572	0.04900
2592.10995	0.04820
2590.82419	0.04752
2589.53842	0.04730
2588.25265	0.04757
2586.96688	0.04807
2585.68111	0.04846
2584.39534	0.04855
2583.10957	0.04829
2581.82380	0.04781
2580.53804	0.04735
2579.25227	0.04707
2577.96650	0.04698
2576.68073	0.04699
2575.39496	0.04697
2574.10919	0.04685
2572.82342	0.04660
2571.53765	0.04631
2570.25188	0.04605
2568.96612	0.04585
2567.68035	0.04575
2566.39458	0.04585
2565.10881	0.04612
2563.82304	0.04634
2562.53727	0.04623
2561.25150	0.04580
2559.96573	0.04533
2558.67997	0.04506
2557.39420	0.04504
2556.10843	0.04517
2554.82266	0.04529
2553.53689	0.04521
2552.25112	0.04494
2550.96535	0.04465
2549.67958	0.04458
2548.39381	0.04474
2547.10805	0.04491
2545.82228	0.04484
2544.53651	0.04451
2543.25074	0.04417
2541.96497	0.04411
2540.67920	0.04434
2539.39343	0.04458
2538.10766	0.04455
2536.82190	0.04421
2535.53613	0.04374
2534.25036	0.04333
2532.96459	0.04307
2531.67882	0.04299
2530.39305	0.04303
2529.10728	0.04310
2527.82151	0.04316
2526.53574	0.04329
2525.24998	0.04360
2523.96421	0.04404
2522.67844	0.04441
2521.39267	0.04451
2520.10690	0.04434
2518.82113	0.04400
2517.53536	0.04363
2516.24959	0.04331
2514.96383	0.04307
2513.67806	0.04287
2512.39229	0.04266
2511.10652	0.04239
2509.82075	0.04218
2508.53498	0.04216
2507.24921	0.04241
2505.96344	0.04278
2504.67767	0.04303
2503.39191	0.04302
2502.10614	0.04285
2500.82037	0.04269
2499.53460	0.04262
2498.24883	0.04258
2496.96306	0.04252
2495.67729	0.04244
2494.39152	0.04232
2493.10576	0.04217
2491.81999	0.04202
2490.53422	0.04196
2489.24845	0.04198
2487.96268	0.04203
2486.67691	0.04202
2485.39114	0.04185
2484.10537	0.04143
2482.81960	0.04086
2481.53384	0.04044
2480.24807	0.04042
2478.96230	0.04072
2477.67653	0.04095
2476.39076	0.04085
2475.10499	0.04054
2473.81922	0.04040
2472.53345	0.04057
2471.24769	0.04087
2469.96192	0.04103
2468.67615	0.04095
2467.39038	0.04082
2466.10461	0.04079
2464.81884	0.04087
2463.53307	0.04096
2462.24730	0.04102
2460.96153	0.04106
2459.67577	0.04108
2458.39000	0.04105
2457.10423	0.04092
2455.81846	0.04064
2454.53269	0.04022
2453.24692	0.03976
2451.96115	0.03954
2450.67538	0.03977
2449.38962	0.04027
2448.10385	0.04062
2446.81808	0.04053
2445.53231	0.04005
2444.24654	0.03942
2442.96077	0.03888
2441.67500	0.03859
2440.38923	0.03865
2439.10346	0.03905
2437.81770	0.03960
2436.53193	0.04005
2435.24616	0.04015
2433.96039	0.03984
2432.67462	0.03931
2431.38885	0.03886
2430.10308	0.03867
2428.81731	0.03874
2427.53155	0.03899
2426.24578	0.03930
2424.96001	0.03954
2423.67424	0.03959
2422.38847	0.03947
2421.10270	0.03930
2419.81693	0.03916
2418.53116	0.03904
2417.24539	0.03894
2415.95963	0.03894
2414.67386	0.03912
2413.38809	0.03942
2412.10232	0.03966
2410.81655	0.03967
2409.53078	0.03943
2408.24501	0.03900
2406.95924	0.03857
2405.67347	0.03828
2404.38771	0.03817
2403.10194	0.03815
2401.81617	0.03816
2400.53040	0.03816
2399.24463	0.03809
2397.95886	0.03805
2396.67309	0.03805
2395.38732	0.03814
2394.10156	0.03831
2392.81579	0.03854
2391.53002	0.03881
2390.24425	0.03913
2388.95848	0.03940
2387.67271	0.03947
2386.38694	0.03926
2385.10117	0.03884
2383.81540	0.03844
2382.52964	0.03822
2381.24387	0.03822
2379.95810	0.03836
2378.67233	0.03848
2377.38656	0.03853
2376.10079	0.03858
2374.81502	0.03861
2373.52925	0.03866
2372.24349	0.03870
2370.95772	0.03867
2369.67195	0.03847
2368.38618	0.03822
2367.10041	0.03817
2365.81464	0.03840
2364.52887	0.03878
2363.24310	0.03923
2361.95733	0.03971
2360.67157	0.04024
2359.38580	0.04039
2358.10003	0.04003
2356.81426	0.03945
2355.52849	0.03898
2354.24272	0.03875
2352.95695	0.03880
2351.67118	0.03917
2350.38542	0.03946
2349.09965	0.03926
2347.81388	0.03886
2346.52811	0.03904
2345.24234	0.03954
2343.95657	0.03933
2342.67080	0.03858
2341.38503	0.03879
2340.09926	0.03988
2338.81350	0.03968
2337.52773	0.03825
2336.24196	0.03832
2334.95619	0.03947
2333.67042	0.03894
2332.38465	0.03755
2331.09888	0.03810
2329.81311	0.03890
2328.52735	0.03822
2327.24158	0.03878
2325.95581	0.04006
2324.67004	0.03976
2323.38427	0.03946
2322.09850	0.03968
2320.81273	0.03887
2319.52696	0.03849
2318.24119	0.03865
2316.95543	0.03823
2315.66966	0.03806
2314.38389	0.03799
2313.09812	0.03753
2311.81235	0.03733
2310.52658	0.03700
2309.24081	0.03653
2307.95504	0.03624
2306.66928	0.03593
2305.38351	0.03585
2304.09774	0.03584
2302.81197	0.03576
2301.52620	0.03576
2300.24043	0.03580
2298.95466	0.03597
2297.66889	0.03610
2296.38312	0.03603
2295.09736	0.03573
2293.81159	0.03528
2292.52582	0.03482
2291.24005	0.03435
2289.95428	0.03391
2288.66851	0.03358
2287.38274	0.03347
2286.09697	0.03358
2284.81121	0.03369
2283.52544	0.03362
2282.23967	0.03343
2280.95390	0.03330
2279.66813	0.03322
2278.38236	0.03298
2277.09659	0.03244
2275.81082	0.03166
2274.52505	0.03090
2273.23929	0.03045
2271.95352	0.03053
2270.66775	0.03117
2269.38198	0.03202
2268.09621	0.03261
2266.81044	0.03268
2265.52467	0.03224
2264.23890	0.03138
2262.95314	0.03032
2261.66737	0.02939
2260.38160	0.02887
2259.09583	0.02870
2257.81006	0.02860
2256.52429	0.02828
2255.23852	0.02771
2253.95275	0.02704
2252.66698	0.02651
2251.38122	0.02633
2250.09545	0.02668
2248.80968	0.02750
2247.52391	0.02822
2246.23814	0.02854
2244.95237	0.02827
2243.66660	0.02770
2242.38083	0.02741
2241.09507	0.02775
2239.80930	0.02839
2238.52353	0.02877
2237.23776	0.02865
2235.95199	0.02828
2234.66622	0.02800
2233.38045	0.02781
2232.09468	0.02749
2230.80891	0.02694
2229.52315	0.02620
2228.23738	0.02541
2226.95161	0.02482
2225.66584	0.02472
2224.38007	0.02524
2223.09430	0.02614
2221.80853	0.02691
2220.52276	0.02726
2219.23700	0.02723
2217.95123	0.02690
2216.66546	0.02619
2215.37969	0.02513
2214.09392	0.02416
2212.80815	0.02381
2211.52238	0.02402
2210.23661	0.02407
2208.95084	0.02343
2207.66508	0.02236
2206.37931	0.02159
2205.09354	0.02142
2203.80777	0.02160
2202.52200	0.02182
2201.23623	0.02203
2199.95046	0.02213
2198.66469	0.02196
2197.37893	0.02157
2196.09316	0.02136
2194.80739	0.02162
2193.52162	0.02239
2192.23585	0.02353
2190.95008	0.02475
2189.66431	0.02547
2188.37854	0.02512
2187.09277	0.02389
2185.80701	0.02265
2184.52124	0.02194
2183.23547	0.02143
2181.94970	0.02060
2180.66393	0.01944
2179.37816	0.01828
2178.09239	0.01718
2176.80662	0.01605
2175.52085	0.01513
2174.23509	0.01502
2172.94932	0.01604
2171.66355	0.01782
2170.37778	0.01956
2169.09201	0.02049
2167.80624	0.02040
2166.52047	0.01970
2165.23470	0.01910
2163.94894	0.01883
2162.66317	0.01838
2161.37740	0.01707
2160.09163	0.01490
2158.80586	0.01264
2157.52009	0.01120
2156.23432	0.01097
2154.94855	0.01176
2153.66278	0.01304
2152.37702	0.01443
2151.09125	0.01593
2149.80548	0.01772
2148.51971	0.01952
2147.23394	0.02055
2145.94817	0.02039
2144.66240	0.01955
2143.37663	0.01894
2142.09087	0.01894
2140.80510	0.01925
2139.51933	0.01953
2138.23356	0.01977
2136.94779	0.02009
2135.66202	0.02058
2134.37625	0.02134
2133.09048	0.02242
2131.80471	0.02358
2130.51895	0.02438
2129.23318	0.02465
2127.94741	0.02458
2126.66164	0.02449
2125.37587	0.02453
2124.09010	0.02467
2122.80433	0.02491
2121.51856	0.02519
2120.23280	0.02532
2118.94703	0.02507
2117.66126	0.02449
2116.37549	0.02400
2115.08972	0.02395
2113.80395	0.02427
2112.51818	0.02457
2111.23241	0.02458
2109.94664	0.02443
2108.66088	0.02445
2107.37511	0.02470
2106.08934	0.02489
2104.80357	0.02465
2103.51780	0.02403
2102.23203	0.02347
2100.94626	0.02335
2099.66049	0.02384
2098.37473	0.02396
2097.08896	0.02359
2095.80319	0.02317
2094.51742	0.02304
2093.23165	0.02310
2091.94588	0.02300
2090.66011	0.02262
2089.37434	0.02220
2088.08857	0.02208
2086.80281	0.02232
2085.51704	0.02260
2084.23127	0.02264
2082.94550	0.02243
2081.65973	0.02221
2080.37396	0.02219
2079.08819	0.02241
2077.80242	0.02273
2076.51666	0.02291
2075.23089	0.02284
2073.94512	0.02265
2072.65935	0.02261
2071.37358	0.02278
2070.08781	0.02291
2068.80204	0.02275
2067.51627	0.02228
2066.23050	0.02169
2064.94474	0.02119
2063.65897	0.02092
2062.37320	0.02099
2061.08743	0.02132
2059.80166	0.02161
2058.51589	0.02147
2057.23012	0.02087
2055.94435	0.02014
2054.65859	0.01967
2053.37282	0.01961
2052.08705	0.01977
2050.80128	0.01977
2049.51551	0.01927
2048.22974	0.01819
2046.94397	0.01686
2045.65820	0.01589
2044.37243	0.01567
2043.08667	0.01590
2041.80090	0.01581
2040.51513	0.01489
2039.22936	0.01342
2037.94359	0.01225
2036.65782	0.01200
2035.37205	0.01269
2034.08628	0.01403
2032.80052	0.01575
2031.51475	0.01744
2030.22898	0.01845
2028.94321	0.01822
2027.65744	0.01684
2026.37167	0.01502
2025.08590	0.01353
2023.80013	0.01276
2022.51436	0.01278
2021.22860	0.01346
2019.94283	0.01441
2018.65706	0.01504
2017.37129	0.01498
2016.08552	0.01446
2014.79975	0.01412
2013.51398	0.01454
2012.22821	0.01582
2010.94245	0.01748
2009.65668	0.01867
2008.37091	0.01880
2007.08514	0.01809
2005.79937	0.01733
2004.51360	0.01708
2003.22783	0.01720
2001.94206	0.01729
2000.65629	0.01714
1999.37053	0.01687
1998.08476	0.01666
1996.79899	0.01661
1995.51322	0.01674
1994.22745	0.01699
1992.94168	0.01720
1991.65591	0.01724
1990.37014	0.01716
1989.08438	0.01712
1987.79861	0.01720
1986.51284	0.01729
1985.22707	0.01725
1983.94130	0.01714
1982.65553	0.01704
1981.36976	0.01699
1980.08399	0.01698
1978.79822	0.01704
1977.51246	0.01706
1976.22669	0.01686
1974.94092	0.01641
1973.65515	0.01588
1972.36938	0.01550
1971.08361	0.01539
1969.79784	0.01563
1968.51207	0.01624
1967.22631	0.01707
1965.94054	0.01778
1964.65477	0.01811
1963.36900	0.01807
1962.08323	0.01783
1960.79746	0.01757
1959.51169	0.01744
1958.22592	0.01752
1956.94015	0.01777
1955.65439	0.01800
1954.36862	0.01801
1953.08285	0.01773
1951.79708	0.01735
1950.51131	0.01711
1949.22554	0.01710
1947.93977	0.01723
1946.65400	0.01734
1945.36823	0.01735
1944.08247	0.01733
1942.79670	0.01740
1941.51093	0.01764
1940.22516	0.01795
1938.93939	0.01815
1937.65362	0.01819
1936.36785	0.01821
1935.08208	0.01840
1933.79632	0.01877
1932.51055	0.01911
1931.22478	0.01919
1929.93901	0.01901
1928.65324	0.01871
1927.36747	0.01849
1926.08170	0.01844
1924.79593	0.01849
1923.51016	0.01856
1922.22440	0.01866
1920.93863	0.01884
1919.65286	0.01911
1918.36709	0.01937
1917.08132	0.01959
1915.79555	0.01981
1914.50978	0.02009
1913.22401	0.02037
1911.93825	0.02055
1910.65248	0.02056
1909.36671	0.02044
1908.08094	0.02024
1906.79517	0.02005
1905.50940	0.01985
1904.22363	0.01966
1902.93786	0.01950
1901.65209	0.01935
1900.36633	0.01917
1899.08056	0.01896
1897.79479	0.01886
1896.50902	0.01897
1895.22325	0.01922
1893.93748	0.01940
1892.65171	0.01942
1891.36594	0.01934
1890.08018	0.01929
1888.79441	0.01930
1887.50864	0.01934
1886.22287	0.01936
1884.93710	0.01939
1883.65133	0.01947
1882.36556	0.01967
1881.07979	0.01993
1879.79402	0.02011
1878.50826	0.02015
1877.22249	0.02009
1875.93672	0.02006
1874.65095	0.02011
1873.36518	0.02019
1872.07941	0.02019
1870.79364	0.02005
1869.50787	0.01976
1868.22211	0.01946
1866.93634	0.01928
1865.65057	0.01932
1864.36480	0.01953
1863.07903	0.01976
1861.79326	0.01988
1860.50749	0.01991
1859.22172	0.01990
1857.93595	0.01990
1856.65019	0.01988
1855.36442	0.01983
1854.07865	0.01975
1852.79288	0.01967
1851.50711	0.01959
1850.22134	0.01958
1848.93557	0.01969
1847.64980	0.01993
1846.36404	0.02018
1845.07827	0.02031
1843.79250	0.02025
1842.50673	0.02006
1841.22096	0.01984
1839.93519	0.01970
1838.64942	0.01965
1837.36365	0.01960
1836.07788	0.01948
1834.79212	0.01933
1833.50635	0.01927
1832.22058	0.01939
1830.93481	0.01962
1829.64904	0.01979
1828.36327	0.01980
1827.07750	0.01970
1825.79173	0.01962
1824.50597	0.01961
1823.22020	0.01963
1821.93443	0.01964
1820.64866	0.01956
1819.36289	0.01939
1818.07712	0.01913
1816.79135	0.01891
1815.50558	0.01884
1814.21981	0.01897
1812.93405	0.01921
1811.64828	0.01941
1810.36251	0.01950
1809.07674	0.01952
1807.79097	0.01955
1806.50520	0.01964
1805.21943	0.01974
1803.93366	0.01975
1802.64790	0.01966
1801.36213	0.01950
1800.07636	0.01936
1798.79059	0.01930
1797.50482	0.01932
1796.21905	0.01943
1794.93328	0.01959
1793.64751	0.01976
1792.36174	0.01987
1791.07598	0.01984
1789.79021	0.01972
1788.50444	0.01958
1787.21867	0.01952
1785.93290	0.01954
1784.64713	0.01958
1783.36136	0.01960
1782.07559	0.01960
1780.78983	0.01959
1779.50406	0.01957
1778.21829	0.01954
1776.93252	0.01951
1775.64675	0.01947
1774.36098	0.01947
1773.07521	0.01951
1771.78944	0.01956
1770.50367	0.01958
1769.21791	0.01954
1767.93214	0.01946
1766.64637	0.01944
1765.36060	0.01953
1764.07483	0.01970
1762.78906	0.01991
1761.50329	0.02011
1760.21752	0.02031
1758.93176	0.02051
1757.64599	0.02070
1756.36022	0.02083
1755.07445	0.02090
1753.78868	0.02095
1752.50291	0.02105
1751.21714	0.02123
1749.93137	0.02152
1748.64560	0.02190
1747.35984	0.02233
1746.07407	0.02280
1744.78830	0.02324
1743.50253	0.02365
1742.21676	0.02401
1740.93099	0.02433
1739.64522	0.02461
1738.35945	0.02488
1737.07369	0.02519
1735.78792	0.02553
1734.50215	0.02589
1733.21638	0.02619
1731.93061	0.02645
1730.64484	0.02672
1729.35907	0.02706
1728.07330	0.02750
1726.78753	0.02800
1725.50177	0.02849
1724.21600	0.02892
1722.93023	0.02933
1721.64446	0.02977
1720.35869	0.03030
1719.07292	0.03090
1717.78715	0.03153
1716.50138	0.03214
1715.21561	0.03277
1713.92985	0.03349
1712.64408	0.03435
1711.35831	0.03540
1710.07254	0.03665
1708.78677	0.03812
1707.50100	0.03976
1706.21523	0.04154
1704.92946	0.04345
1703.64370	0.04550
1702.35793	0.04777
1701.07216	0.05031
1699.78639	0.05306
1698.50062	0.05596
1697.21485	0.05895
1695.92908	0.06196
1694.64331	0.06495
1693.35754	0.06787
1692.07178	0.07074
1690.78601	0.07360
1689.50024	0.07652
1688.21447	0.07954
1686.92870	0.08273
1685.64293	0.08607
1684.35716	0.08950
1683.07139	0.09289
1681.78563	0.09622
1680.49986	0.09958
1679.21409	0.10307
1677.92832	0.10671
1676.64255	0.11049
1675.35678	0.11437
1674.07101	0.11830
1672.78524	0.12228
1671.49947	0.12628
1670.21371	0.13030
1668.92794	0.13430
1667.64217	0.13825
1666.35640	0.14218
1665.07063	0.14609
1663.78486	0.14998
1662.49909	0.15380
1661.21332	0.15744
1659.92756	0.16086
1658.64179	0.16402
1657.35602	0.16699
1656.07025	0.16983
1654.78448	0.17256
1653.49871	0.17511
1652.21294	0.17734
1650.92717	0.17914
1649.64140	0.18061
1648.35564	0.18190
1647.06987	0.18315
1645.78410	0.18433
1644.49833	0.18539
1643.21256	0.18631
1641.92679	0.18711
1640.64102	0.18781
1639.35525	0.18839
1638.06949	0.18881
1636.78372	0.18902
1635.49795	0.18898
1634.21218	0.18870
1632.92641	0.18820
1631.64064	0.18746
1630.35487	0.18641
1629.06910	0.18492
1627.78333	0.18292
1626.49757	0.18040
1625.21180	0.17743
1623.92603	0.17412
1622.64026	0.17058
1621.35449	0.16687
1620.06872	0.16303
1618.78295	0.15906
1617.49718	0.15495
1616.21142	0.15076
1614.92565	0.14657
1613.63988	0.14248
1612.35411	0.13851
1611.06834	0.13462
1609.78257	0.13081
1608.49680	0.12707
1607.21103	0.12348
1605.92526	0.12007
1604.63950	0.11688
1603.35373	0.11390
1602.06796	0.11116
1600.78219	0.10865
1599.49642	0.10638
1598.21065	0.10435
1596.92488	0.10251
1595.63911	0.10086
1594.35335	0.09937
1593.06758	0.09805
1591.78181	0.09689
1590.49604	0.09595
1589.21027	0.09526
1587.92450	0.09484
1586.63873	0.09465
1585.35296	0.09463
1584.06719	0.09473
1582.78143	0.09494
1581.49566	0.09527
1580.20989	0.09579
1578.92412	0.09654
1577.63835	0.09753
1576.35258	0.09873
1575.06681	0.10008
1573.78104	0.10154
1572.49528	0.10315
1571.20951	0.10493
1569.92374	0.10683
1568.63797	0.10879
1567.35220	0.11078
1566.06643	0.11283
1564.78066	0.11500
1563.49489	0.11729
1562.20912	0.11968
1560.92336	0.12215
1559.63759	0.12464
1558.35182	0.12708
1557.06605	0.12939
1555.78028	0.13157
1554.49451	0.13366
1553.20874	0.13567
1551.92297	0.13760
1550.63721	0.13940
1549.35144	0.14103
1548.06567	0.14249
1546.77990	0.14384
1545.49413	0.14509
1544.20836	0.14624
1542.92259	0.14723
1541.63682	0.14802
1540.35105	0.14860
1539.06529	0.14899
1537.77952	0.14923
1536.49375	0.14938
1535.20798	0.14945
1533.92221	0.14944
1532.63644	0.14930
1531.35067	0.14901
1530.06490	0.14859
1528.77914	0.14808
1527.49337	0.14750
1526.20760	0.14688
1524.92183	0.14625
1523.63606	0.14563
1522.35029	0.14500
1521.06452	0.14431
1519.77875	0.14350
1518.49298	0.14253
1517.20722	0.14136
1515.92145	0.13997
1514.63568	0.13837
1513.34991	0.13655
1512.06414	0.13454
1510.77837	0.13236
1509.49260	0.13005
1508.20683	0.12761
1506.92107	0.12502
1505.63530	0.12229
1504.34953	0.11949
1503.06376	0.11665
1501.77799	0.11384
1500.49222	0.11108
1499.20645	0.10837
1497.92068	0.10571
1496.63491	0.10303
1495.34915	0.10031
1494.06338	0.09759
1492.77761	0.09491
1491.49184	0.09234
1490.20607	0.08992
1488.92030	0.08767
1487.63453	0.08562
1486.34876	0.08380
1485.06299	0.08223
1483.77723	0.08093
1482.49146	0.07991
1481.20569	0.07918
1479.91992	0.07875
1478.63415	0.07862
1477.34838	0.07878
1476.06261	0.07920
1474.77684	0.07985
1473.49108	0.08072
1472.20531	0.08174
1470.91954	0.08284
1469.63377	0.08395
1468.34800	0.08503
1467.06223	0.08604
1465.77646	0.08700
1464.49069	0.08794
1463.20492	0.08893
1461.91916	0.08999
1460.63339	0.09113
1459.34762	0.09230
1458.06185	0.09349
1456.77608	0.09463
1455.49031	0.09564
1454.20454	0.09645
1452.91877	0.09701
1451.63301	0.09733
1450.34724	0.09743
1449.06147	0.09737
1447.77570	0.09718
1446.48993	0.09687
1445.20416	0.09643
1443.91839	0.09588
1442.63262	0.09523
1441.34685	0.09453
1440.06109	0.09382
1438.77532	0.09309
1437.48955	0.09232
1436.20378	0.09146
1434.91801	0.09053
1433.63224	0.08954
1432.34647	0.08854
1431.06070	0.08757
1429.77494	0.08668
1428.48917	0.08594
1427.20340	0.08539
1425.91763	0.08506
1424.63186	0.08490
1423.34609	0.08487
1422.06032	0.08490
1420.77455	0.08493
1419.48878	0.08495
1418.20302	0.08495
1416.91725	0.08496
1415.63148	0.08501
1414.34571	0.08512
1413.05994	0.08527
1411.77417	0.08545
1410.48840	0.08567
1409.20263	0.08589
1407.91687	0.08610
1406.63110	0.08627
1405.34533	0.08640
1404.05956	0.08651
1402.77379	0.08658
1401.48802	0.08661
1400.20225	0.08660
1398.91648	0.08656
1397.63071	0.08646
1396.34495	0.08631
1395.05918	0.08611
1393.77341	0.08587
1392.48764	0.08562
1391.20187	0.08537
1389.91610	0.08513
1388.63033	0.08489
1387.34456	0.08462
1386.05880	0.08432
1384.77303	0.08399
1383.48726	0.08363
1382.20149	0.08324
1380.91572	0.08282
1379.62995	0.08238
1378.34418	0.08187
1377.05841	0.08129
1375.77264	0.08062
1374.48688	0.07992
1373.20111	0.07919
1371.91534	0.07845
1370.62957	0.07770
1369.34380	0.07694
1368.05803	0.07614
1366.77226	0.07530
1365.48649	0.07441
1364.20073	0.07349
1362.91496	0.07260
1361.62919	0.07179
1360.34342	0.07112
1359.05765	0.07063
1357.77188	0.07030
1356.48611	0.07010
1355.20034	0.06998
1353.91457	0.06996
1352.62881	0.07005
1351.34304	0.07025
1350.05727	0.07054
1348.77150	0.07089
1347.48573	0.07129
1346.19996	0.07175
1344.91419	0.07224
1343.62842	0.07270
1342.34266	0.07311
1341.05689	0.07344
1339.77112	0.07368
1338.48535	0.07385
1337.19958	0.07395
1335.91381	0.07397
1334.62804	0.07387
1333.34227	0.07363
1332.05650	0.07327
1330.77074	0.07282
1329.48497	0.07234
1328.19920	0.07189
1326.91343	0.07150
1325.62766	0.07117
1324.34189	0.07091
1323.05612	0.07070
1321.77035	0.07055
1320.48459	0.07046
1319.19882	0.07042
1317.91305	0.07042
1316.62728	0.07043
1315.34151	0.07036
1314.05574	0.07019
1312.76997	0.06994
1311.48420	0.06964
1310.19843	0.06931
1308.91267	0.06901
1307.62690	0.06876
1306.34113	0.06857
1305.05536	0.06840
1303.76959	0.06821
1302.48382	0.06803
1301.19805	0.06790
1299.91228	0.06782
1298.62652	0.06775
1297.34075	0.06769
1296.05498	0.06766
1294.76921	0.06770
1293.48344	0.06782
1292.19767	0.06806
1290.91190	0.06839
1289.62613	0.06880
1288.34036	0.06924
1287.05460	0.06968
1285.76883	0.07008
1284.48306	0.07045
1283.19729	0.07078
1281.91152	0.07108
1280.62575	0.07134
1279.33998	0.07158
1278.05421	0.07180
1276.76845	0.07200
1275.48268	0.07217
1274.19691	0.07231
1272.91114	0.07244
1271.62537	0.07262
1270.33960	0.07286
1269.05383	0.07317
1267.76806	0.07351
1266.48229	0.07386
1265.19653	0.07423
1263.91076	0.07464
1262.62499	0.07511
1261.33922	0.07563
1260.05345	0.07620
1258.76768	0.07682
1257.48191	0.07748
1256.19614	0.07814
1254.91037	0.07880
1253.62461	0.07947
1252.33884	0.08019
1251.05307	0.08099
1249.76730	0.08185
1248.48153	0.08274
1247.19576	0.08361
1245.90999	0.08447
1244.62422	0.08531
1243.33846	0.08610
1242.05269	0.08678
1240.76692	0.08734
1239.48115	0.08785
1238.19538	0.08834
1236.90961	0.08878
1235.62384	0.08909
1234.33807	0.08919
1233.05230	0.08904
1231.76654	0.08869
1230.48077	0.08820
1229.19500	0.08763
1227.90923	0.08697
1226.62346	0.08621
1225.33769	0.08533
1224.05192	0.08435
1222.76615	0.08328
1221.48039	0.08218
1220.19462	0.08111
1218.90885	0.08012
1217.62308	0.07924
1216.33731	0.07848
1215.05154	0.07781
1213.76577	0.07720
1212.48000	0.07667
1211.19423	0.07626
1209.90847	0.07601
1208.62270	0.07592
1207.33693	0.07589
1206.05116	0.07582
1204.76539	0.07564
1203.47962	0.07539
1202.19385	0.07510
1200.90808	0.07473
1199.62232	0.07419
1198.33655	0.07355
1197.05078	0.07279
1195.76501	0.07200
1194.47924	0.07124
1193.19347	0.07052
1191.90770	0.06984
1190.62193	0.06923
1189.33616	0.06874
1188.05040	0.06833
1186.76463	0.06796
1185.47886	0.06755
1184.19309	0.06711
1182.90732	0.06667
1181.62155	0.06631
1180.33578	0.06606
1179.05001	0.06596
1177.76425	0.06596
1176.47848	0.06599
1175.19271	0.06601
1173.90694	0.06602
1172.62117	0.06606
1171.33540	0.06617
1170.04963	0.06634
1168.76386	0.06656
1167.47809	0.06678
1166.19233	0.06698
1164.90656	0.06714
1163.62079	0.06724
1162.33502	0.06729
1161.04925	0.06731
1159.76348	0.06732
1158.47771	0.06731
1157.19194	0.06724
1155.90618	0.06707
1154.62041	0.06679
1153.33464	0.06644
1152.04887	0.06601
1150.76310	0.06552
1149.47733	0.06502
1148.19156	0.06460
1146.90579	0.06428
1145.62002	0.06402
1144.33426	0.06375
1143.04849	0.06344
1141.76272	0.06311
1140.47695	0.06282
1139.19118	0.06262
1137.90541	0.06253
1136.61964	0.06253
1135.33387	0.06259
1134.04811	0.06268
1132.76234	0.06285
1131.47657	0.06310
1130.19080	0.06344
1128.90503	0.06383
1127.61926	0.06425
1126.33349	0.06472
1125.04772	0.06528
1123.76195	0.06596
1122.47619	0.06667
1121.19042	0.06736
1119.90465	0.06807
1118.61888	0.06887
1117.33311	0.06977
1116.04734	0.07073
1114.76157	0.07166
1113.47580	0.07255
1112.19004	0.07340
1110.90427	0.07425
1109.61850	0.07514
1108.33273	0.07609
1107.04696	0.07710
1105.76119	0.07808
1104.47542	0.07893
1103.18965	0.07963
1101.90388	0.08025
1100.61812	0.08084
1099.33235	0.08139
1098.04658	0.08188
1096.76081	0.08230
1095.47504	0.08268
1094.18927	0.08303
1092.90350	0.08338
1091.61773	0.08372
1090.33197	0.08404
1089.04620	0.08435
1087.76043	0.08471
1086.47466	0.08521
1085.18889	0.08591
1083.90312	0.08679
1082.61735	0.08775
1081.33158	0.08866
1080.04581	0.08947
1078.76005	0.09018
1077.47428	0.09078
1076.18851	0.09126
1074.90274	0.09160
1073.61697	0.09183
1072.33120	0.09201
1071.04543	0.09220
1069.75966	0.09244
1068.47390	0.09273
1067.18813	0.09306
1065.90236	0.09340
1064.61659	0.09373
1063.33082	0.09405
1062.04505	0.09438
1060.75928	0.09469
1059.47351	0.09496
1058.18774	0.09517
1056.90198	0.09536
1055.61621	0.09558
1054.33044	0.09583
1053.04467	0.09605
1051.75890	0.09620
1050.47313	0.09631
1049.18736	0.09641
1047.90159	0.09658
1046.61583	0.09682
1045.33006	0.09712
1044.04429	0.09747
1042.75852	0.09787
1041.47275	0.09834
1040.18698	0.09888
1038.90121	0.09952
1037.61544	0.10028
1036.32967	0.10111
1035.04391	0.10194
1033.75814	0.10263
1032.47237	0.10306
1031.18660	0.10317
1029.90083	0.10285
1028.61506	0.10206
1027.32929	0.10080
1026.04352	0.09922
1024.75775	0.09746
1023.47199	0.09559
1022.18622	0.09363
1020.90045	0.09158
1019.61468	0.08947
1018.32891	0.08733
1017.04314	0.08520
1015.75737	0.08314
1014.47160	0.08123
1013.18584	0.07948
1011.90007	0.07787
1010.61430	0.07634
1009.32853	0.07492
1008.04276	0.07362
1006.75699	0.07241
1005.47122	0.07125
1004.18545	0.07009
1002.89968	0.06894
1001.61392	0.06781
1000.32815	0.06676
999.04238	0.06578
997.75661	0.06486
996.47084	0.06398
995.18507	0.06315
993.89930	0.06240
992.61353	0.06171
991.32777	0.06106
990.04200	0.06043
988.75623	0.05982
987.47046	0.05921
986.18469	0.05860
984.89892	0.05797
983.61315	0.05739
982.32738	0.05691
981.04161	0.05649
979.75585	0.05607
978.47008	0.05565
977.18431	0.05529
975.89854	0.05499
974.61277	0.05472
973.32700	0.05447
972.04123	0.05425
970.75546	0.05416
969.46970	0.05419
968.18393	0.05424
966.89816	0.05419
965.61239	0.05400
964.32662	0.05368
963.04085	0.05325
961.75508	0.05274
960.46931	0.05219
959.18354	0.05166
957.89778	0.05118
956.61201	0.05074
955.32624	0.05032
954.04047	0.04988
952.75470	0.04943
951.46893	0.04897
950.18316	0.04856
948.89739	0.04826
947.61163	0.04810
946.32586	0.04807
945.04009	0.04807
943.75432	0.04801
942.46855	0.04784
941.18278	0.04763
939.89701	0.04740
938.61124	0.04716
937.32547	0.04691
936.03971	0.04668
934.75394	0.04644
933.46817	0.04617
932.18240	0.04586
930.89663	0.04555
929.61086	0.04528
928.32509	0.04502
927.03932	0.04474
925.75356	0.04445
924.46779	0.04417
923.18202	0.04399
921.89625	0.04390
920.61048	0.04383
919.32471	0.04366
918.03894	0.04336
916.75317	0.04301
915.46740	0.04271
914.18164	0.04250
912.89587	0.04229
911.61010	0.04200
910.32433	0.04164
909.03856	0.04129
907.75279	0.04101
906.46702	0.04077
905.18125	0.04056
903.89549	0.04040
902.60972	0.04029
901.32395	0.04023
900.03818	0.04018
898.75241	0.04010
897.46664	0.03998
896.18087	0.03980
894.89510	0.03958
893.60933	0.03941
892.32357	0.03931
891.03780	0.03926
889.75203	0.03920
888.46626	0.03910
887.18049	0.03902
885.89472	0.03907
884.60895	0.03924
883.32318	0.03945
882.03742	0.03959
880.75165	0.03960
879.46588	0.03952
878.18011	0.03944
876.89434	0.03942
875.60857	0.03947
874.32280	0.03952
873.03703	0.03952
871.75126	0.03943
870.46550	0.03929
869.17973	0.03913
867.89396	0.03900
866.60819	0.03891
865.32242	0.03887
864.03665	0.03888
862.75088	0.03895
861.46511	0.03900
860.17935	0.03896
858.89358	0.03878
857.60781	0.03854
856.32204	0.03833
855.03627	0.03821
853.75050	0.03818
852.46473	0.03820
851.17896	0.03824
849.89319	0.03826
848.60743	0.03822
847.32166	0.03813
846.03589	0.03803
844.75012	0.03792
843.46435	0.03782
842.17858	0.03770
840.89281	0.03758
839.60704	0.03751
838.32128	0.03750
837.03551	0.03752
835.74974	0.03754
834.46397	0.03754
833.17820	0.03755
831.89243	0.03762
830.60666	0.03772
829.32089	0.03778
828.03512	0.03779
826.74936	0.03780
825.46359	0.03789
824.17782	0.03801
822.89205	0.03807
821.60628	0.03809
820.32051	0.03816
819.03474	0.03832
817.74897	0.03851
816.46321	0.03865
815.17744	0.03874
813.89167	0.03882
812.60590	0.03893
811.32013	0.03905
810.03436	0.03913
808.74859	0.03918
807.46282	0.03925
806.17705	0.03938
804.89129	0.03958
803.60552	0.03980
802.31975	0.04001
801.03398	0.04015
799.74821	0.04022
798.46244	0.04024
797.17667	0.04028
795.89090	0.04041
794.60513	0.04060
793.31937	0.04077
792.03360	0.04090
790.74783	0.04100
789.46206	0.04112
788.17629	0.04125
786.89052	0.04140
785.60475	0.04156
784.31898	0.04172
783.03322	0.04188
781.74745	0.04202
780.46168	0.04219
779.17591	0.04239
777.89014	0.04257
776.60437	0.04268
775.31860	0.04271
774.03283	0.04274
772.74706	0.04283
771.46130	0.04302
770.17553	0.04330
768.88976	0.04363
767.60399	0.04397
766.31822	0.04427
765.03245	0.04450
763.74668	0.04465
762.46091	0.04478
761.17515	0.04495
759.88938	0.04518
758.60361	0.04542
757.31784	0.04566
756.03207	0.04590
754.74630	0.04613
753.46053	0.04636
752.17476	0.04658
750.88899	0.04676
749.60323	0.04688
748.31746	0.04694
747.03169	0.04701
745.74592	0.04713
744.46015	0.04732
743.17438	0.04752
741.88861	0.04773
740.60284	0.04796
739.31708	0.04817
738.03131	0.04836
736.74554	0.04852
735.45977	0.04865
734.17400	0.04871
732.88823	0.04870
731.60246	0.04874
730.31669	0.04893
729.03092	0.04928
727.74516	0.04968
726.45939	0.05005
725.17362	0.05038
723.88785	0.05068
722.60208	0.05108
721.31631	0.05150
720.03054	0.05179
718.74477	0.05192
717.45901	0.05191
716.17324	0.05187
714.88747	0.05190
713.60170	0.05207
712.31593	0.05236
711.03016	0.05271
709.74439	0.05306
708.45862	0.05337
707.17285	0.05364
705.88709	0.05389
704.60132	0.05412
703.31555	0.05433
702.02978	0.05452
700.74401	0.05469
699.45824	0.05485
698.17247	0.05499
696.88670	0.05514
695.60094	0.05526
694.31517	0.05534
693.02940	0.05534
691.74363	0.05530
690.45786	0.05529
689.17209	0.05537
687.88632	0.05553
686.60055	0.05573
685.31478	0.05589
684.02902	0.05600
682.74325	0.05607
681.45748	0.05612
680.17171	0.05615
678.88594	0.05623
677.60017	0.05639
676.31440	0.05662
675.02863	0.05685
673.74287	0.05700
672.45710	0.05711
671.17133	0.05725
669.88556	0.05749
668.59979	0.05775
667.31402	0.05791
666.02825	0.05809
664.74248	0.05815
663.45671	0.05818
662.17095	0.05826
660.88518	0.05837
659.59941	0.05850
658.31364	0.05859
657.02787	0.05863
655.74210	0.05863
654.45633	0.05863
653.17056	0.05866
651.88480	0.05874
650.59903	0.05887
649.31326	0.05902
648.02749	0.05915
646.74172	0.05924
645.45595	0.05931
644.17018	0.05936
642.88441	0.05939
641.59864	0.05940
640.31288	0.05934
639.02711	0.05923
637.74134	0.05910
636.45557	0.05903
635.16980	0.05906
633.88403	0.05918
632.59826	0.05932
631.31249	0.05947
630.02673	0.05979
628.74096	0.06008
627.45519	0.05938
626.16942	0.05926
624.88365	0.05965
623.59788	0.06020
622.31211	0.06066
621.02634	0.06079
619.74057	0.06058
618.45481	0.06022
617.16904	0.05976
615.88327	0.05932
614.59750	0.05943
613.31173	0.06066
612.02596	0.06300
610.74019	0.06583
609.45442	0.06842
608.16866	0.07031
606.88289	0.07130
605.59712	0.07140
604.31135	0.07097
603.02558	0.07048
601.73981	0.07014
600.45404	0.06986
599.16827	0.06947
597.88250	0.06892
596.59674	0.06831
595.31097	0.06774
594.02520	0.06730
592.73943	0.06705
591.45366	0.06695
590.16789	0.06686
588.88212	0.06672
587.59635	0.06662
586.31059	0.06671
585.02482	0.06704
583.73905	0.06755
582.45328	0.06813
581.16751	0.06878
579.88174	0.06942
578.59597	0.06994
577.31020	0.07026
576.02443	0.07046
574.73867	0.07070
573.45290	0.07109
572.16713	0.07162
570.88136	0.07217
569.59559	0.07269
568.30982	0.07324
567.02405	0.07391
565.73828	0.07464
564.45251	0.07518
563.16675	0.07532
561.88098	0.07504
560.59521	0.07448
559.30944	0.07380
558.02367	0.07311
556.73790	0.07241
555.45213	0.07169
554.16636	0.07100
552.88060	0.07041
551.59483	0.06996
550.30906	0.06955
549.02329	0.06906
547.73752	0.06846
546.45175	0.06791
545.16598	0.06757
543.88021	0.06751
542.59444	0.06764
541.30868	0.06778
540.02291	0.06778
538.73714	0.06760
537.45137	0.06730
536.16560	0.06695
534.87983	0.06665
533.59406	0.06649
532.30829	0.06649
531.02253	0.06659
529.73676	0.06671
528.45099	0.06677
527.16522	0.06672
525.87945	0.06654
524.59368	0.06627
523.30791	0.06594
522.02214	0.06555
520.73637	0.06507
519.45061	0.06453
518.16484	0.06398
516.87907	0.06349
515.59330	0.06309
514.30753	0.06278
513.02176	0.06256
511.73599	0.06239
510.45022	0.06227
509.16446	0.06218
507.87869	0.06201
506.59292	0.06164
505.30715	0.06104
504.02138	0.06034
502.73561	0.05974
501.44984	0.05933
500.16407	0.05906
498.87830	0.05886
497.59254	0.05869
496.30677	0.05857
495.02100	0.05844
493.73523	0.05821
492.44946	0.05781
491.16369	0.05728
489.87792	0.05679
488.59215	0.05647
487.30639	0.05632
486.02062	0.05622
484.73485	0.05602
483.44908	0.05571
482.16331	0.05537
480.87754	0.05505
479.59177	0.05474
478.30600	0.05444
477.02023	0.05417
475.73447	0.05401
474.44870	0.05399
473.16293	0.05402
471.87716	0.05399
470.59139	0.05384
469.30562	0.05361
468.01985	0.05337
466.73408	0.05313
465.44832	0.05285
464.16255	0.05247
462.87678	0.05201
461.59101	0.05155
460.30524	0.05118
459.01947	0.05091
457.73370	0.05069
456.44793	0.05047
455.16216	0.05024
453.87640	0.04998
452.59063	0.04964
451.30486	0.04920
450.01909	0.04872
448.73332	0.04829
447.44755	0.04796
446.16178	0.04774
444.87601	0.04756
443.59025	0.04741
442.30448	0.04725
441.01871	0.04709
439.73294	0.04690
438.44717	0.04670
437.16140	0.04650
435.87563	0.04633
434.58986	0.04616
433.30409	0.04598
432.01833	0.04577
430.73256	0.04555
429.44679	0.04536
428.16102	0.04520
426.87525	0.04503
425.58948	0.04483
424.30371	0.04458
423.01794	0.04431
421.73218	0.04408
420.44641	0.04390
419.16064	0.04373
417.87487	0.04350
416.58910	0.04320
415.30333	0.04287
414.01756	0.04259
412.73179	0.04237
411.44602	0.04219
410.16026	0.04206
408.87449	0.04199
407.58872	0.04195
406.30295	0.04188
405.01718	0.04175
403.73141	0.04157
402.44564	0.04136
401.15987	0.04112
399.87411	0.04086
