3997.45528	0.03794
3996.16951	0.03795
3994.88374	0.03775
3993.59798	0.03745
3992.31221	0.03724
3991.02644	0.03717
3989.74067	0.03712
3988.45490	0.03700
3987.16913	0.03693
3985.88336	0.03730
3984.59759	0.03826
3983.31183	0.03938
3982.02606	0.03997
3980.74029	0.03978
3979.45452	0.03925
3978.16875	0.03894
3976.88298	0.03894
3975.59721	0.03885
3974.31144	0.03822
3973.02567	0.03693
3971.73991	0.03528
3970.45414	0.03375
3969.16837	0.03283
3967.88260	0.03273
3966.59683	0.03326
3965.31106	0.03400
3964.02529	0.03465
3962.73952	0.03514
3961.45376	0.03548
3960.16799	0.03567
3958.88222	0.03563
3957.59645	0.03538
3956.31068	0.03498
3955.02491	0.03452
3953.73914	0.03411
3952.45337	0.03383
3951.16760	0.03370
3949.88184	0.03373
3948.59607	0.03393
3947.31030	0.03436
3946.02453	0.03495
3944.73876	0.03555
3943.45299	0.03599
3942.16722	0.03622
3940.88145	0.03628
3939.59569	0.03622
3938.30992	0.03602
3937.02415	0.03567
3935.73838	0.03522
3934.45261	0.03479
3933.16684	0.03452
3931.88107	0.03441
3930.59530	0.03439
3929.30953	0.03447
3928.02377	0.03465
3926.73800	0.03483
3925.45223	0.03483
3924.16646	0.03468
3922.88069	0.03458
3921.59492	0.03468
3920.30915	0.03494
3919.02338	0.03524
3917.73762	0.03548
3916.45185	0.03551
3915.16608	0.03519
3913.88031	0.03469
3912.59454	0.03445
3911.30877	0.03485
3910.02300	0.03578
3908.73723	0.03665
3907.45146	0.03685
3906.16570	0.03626
3904.87993	0.03529
3903.59416	0.03452
3902.30839	0.03428
3901.02262	0.03453
3899.73685	0.03499
3898.45108	0.03537
3897.16531	0.03558
3895.87955	0.03566
3894.59378	0.03568
3893.30801	0.03558
3892.02224	0.03531
3890.73647	0.03495
3889.45070	0.03481
3888.16493	0.03503
3886.87916	0.03545
3885.59339	0.03575
3884.30763	0.03581
3883.02186	0.03584
3881.73609	0.03601
3880.45032	0.03618
3879.16455	0.03616
3877.87878	0.03600
3876.59301	0.03599
3875.30724	0.03628
3874.02148	0.03670
3872.73571	0.03696
3871.44994	0.03692
3870.16417	0.03660
3868.87840	0.03616
3867.59263	0.03576
3866.30686	0.03550
3865.02109	0.03549
3863.73532	0.03567
3862.44956	0.03579
3861.16379	0.03551
3859.87802	0.03486
3858.59225	0.03425
3857.30648	0.03408
3856.02071	0.03430
3854.73494	0.03458
3853.44917	0.03471
3852.16341	0.03470
3850.87764	0.03463
3849.59187	0.03450
3848.30610	0.03433
3847.02033	0.03416
3845.73456	0.03401
3844.44879	0.03391
3843.16302	0.03391
3841.87725	0.03413
3840.59149	0.03454
3839.30572	0.03491
3838.01995	0.03493
3836.73418	0.03448
3835.44841	0.03379
3834.16264	0.03321
3832.87687	0.03290
3831.59110	0.03276
3830.30534	0.03271
3829.01957	0.03291
3827.73380	0.03353
3826.44803	0.03433
3825.16226	0.03465
3823.87649	0.03410
3822.59072	0.03300
3821.30495	0.03206
3820.01918	0.03177
3818.73342	0.03209
3817.44765	0.03265
3816.16188	0.03301
3814.87611	0.03290
3813.59034	0.03236
3812.30457	0.03163
3811.01880	0.03105
3809.73303	0.03087
3808.44726	0.03126
3807.16150	0.03203
3805.87573	0.03270
3804.58996	0.03280
3803.30419	0.03233
3802.01842	0.03172
3800.73265	0.03147
3799.44688	0.03172
3798.16111	0.03220
3796.87535	0.03250
3795.58958	0.03247
3794.30381	0.03226
3793.01804	0.03212
3791.73227	0.03217
3790.44650	0.03242
3789.16073	0.03278
3787.87496	0.03304
3786.58919	0.03295
3785.30343	0.03260
3784.01766	0.03237
3782.73189	0.03259
3781.44612	0.03312
3780.16035	0.03354
3778.87458	0.03352
3777.58881	0.03300
3776.30304	0.03224
3775.01728	0.03159
3773.73151	0.03131
3772.44574	0.03136
3771.15997	0.03153
3769.87420	0.03167
3768.58843	0.03182
3767.30266	0.03204
3766.01689	0.03224
3764.73112	0.03232
3763.44536	0.03223
3762.15959	0.03197
3760.87382	0.03160
3759.58805	0.03126
3758.30228	0.03127
3757.01651	0.03184
3755.73074	0.03275
3754.44497	0.03339
3753.15921	0.03325
3751.87344	0.03233
3750.58767	0.03112
3749.30190	0.03010
3748.01613	0.02955
3746.73036	0.02951
3745.44459	0.02991
3744.15882	0.03046
3742.87305	0.03074
3741.58729	0.03056
3740.30152	0.03017
3739.01575	0.02993
3737.72998	0.03000
3736.44421	0.03018
3735.15844	0.03032
3733.87267	0.03041
3732.58690	0.03057
3731.30114	0.03075
3730.01537	0.03079
3728.72960	0.03061
3727.44383	0.03042
3726.15806	0.03062
3724.87229	0.03138
3723.58652	0.03238
3722.30075	0.03296
3721.01498	0.03271
3719.72922	0.03174
3718.44345	0.03055
3717.15768	0.02965
3715.87191	0.02930
3714.58614	0.02949
3713.30037	0.02994
3712.01460	0.03027
3710.72883	0.03034
3709.44307	0.03026
3708.15730	0.03016
3706.87153	0.02999
3705.58576	0.02970
3704.29999	0.02952
3703.01422	0.02964
3701.72845	0.03000
3700.44268	0.03029
3699.15691	0.03043
3697.87115	0.03044
3696.58538	0.03034
3695.29961	0.03016
3694.01384	0.03003
3692.72807	0.03010
3691.44230	0.03030
3690.15653	0.03026
3688.87076	0.02973
3687.58500	0.02884
3686.29923	0.02805
3685.01346	0.02763
3683.72769	0.02747
3682.44192	0.02741
3681.15615	0.02727
3679.87038	0.02697
3678.58461	0.02654
3677.29884	0.02627
3676.01308	0.02660
3674.72731	0.02766
3673.44154	0.02912
3672.15577	0.03041
3670.87000	0.03115
3669.58423	0.03128
3668.29846	0.03099
3667.01269	0.03053
3665.72693	0.03006
3664.44116	0.02965
3663.15539	0.02939
3661.86962	0.02941
3660.58385	0.02972
3659.29808	0.03016
3658.01231	0.03055
3656.72654	0.03080
3655.44077	0.03087
3654.15501	0.03067
3652.86924	0.03027
3651.58347	0.02993
3650.29770	0.02994
3649.01193	0.03027
3647.72616	0.03065
3646.44039	0.03091
3645.15462	0.03115
3643.86886	0.03157
3642.58309	0.03218
3641.29732	0.03279
3640.01155	0.03327
3638.72578	0.03351
3637.44001	0.03346
3636.15424	0.03319
3634.86847	0.03295
3633.58270	0.03307
3632.29694	0.03367
3631.01117	0.03446
3629.72540	0.03509
3628.43963	0.03550
3627.15386	0.03588
3625.86809	0.03630
3624.58232	0.03651
3623.29655	0.03618
3622.01079	0.03537
3620.72502	0.03457
3619.43925	0.03433
3618.15348	0.03469
3616.86771	0.03516
3615.58194	0.03539
3614.29617	0.03540
3613.01040	0.03541
3611.72463	0.03552
3610.43887	0.03558
3609.15310	0.03562
3607.86733	0.03595
3606.58156	0.03681
3605.29579	0.03800
3604.01002	0.03910
3602.72425	0.03985
3601.43848	0.04023
3600.15272	0.04025
3598.86695	0.03989
3597.58118	0.03920
3596.29541	0.03837
3595.00964	0.03769
3593.72387	0.03744
3592.43810	0.03761
3591.15233	0.03806
3589.86656	0.03866
3588.58080	0.03936
3587.29503	0.04005
3586.00926	0.04054
3584.72349	0.04056
3583.43772	0.04010
3582.15195	0.03958
3580.86618	0.03962
3579.58041	0.04043
3578.29464	0.04165
3577.00888	0.04268
3575.72311	0.04324
3574.43734	0.04345
3573.15157	0.04362
3571.86580	0.04385
3570.58003	0.04409
3569.29426	0.04431
3568.00849	0.04455
3566.72273	0.04476
3565.43696	0.04468
3564.15119	0.04421
3562.86542	0.04359
3561.57965	0.04327
3560.29388	0.04346
3559.00811	0.04394
3557.72234	0.04429
3556.43657	0.04431
3555.15081	0.04416
3553.86504	0.04417
3552.57927	0.04452
3551.29350	0.04509
3550.00773	0.04568
3548.72196	0.04622
3547.43619	0.04669
3546.15042	0.04701
3544.86466	0.04706
3543.57889	0.04690
3542.29312	0.04677
3541.00735	0.04692
3539.72158	0.04736
3538.43581	0.04790
3537.15004	0.04838
3535.86427	0.04886
3534.57850	0.04955
3533.29274	0.05045
3532.00697	0.05134
3530.72120	0.05197
3529.43543	0.05231
3528.14966	0.05250
3526.86389	0.05272
3525.57812	0.05301
3524.29235	0.05332
3523.00659	0.05351
3521.72082	0.05351
3520.43505	0.05342
3519.14928	0.05334
3517.86351	0.05328
3516.57774	0.05316
3515.29197	0.05296
3514.00620	0.05272
3512.72043	0.05255
3511.43467	0.05259
3510.14890	0.05297
3508.86313	0.05362
3507.57736	0.05422
3506.29159	0.05447
3505.00582	0.05438
3503.72005	0.05425
3502.43428	0.05430
3501.14852	0.05450
3499.86275	0.05463
3498.57698	0.05458
3497.29121	0.05446
3496.00544	0.05445
3494.71967	0.05464
3493.43390	0.05490
3492.14813	0.05518
3490.86236	0.05560
3489.57660	0.05628
3488.29083	0.05703
3487.00506	0.05750
3485.71929	0.05753
3484.43352	0.05731
3483.14775	0.05722
3481.86198	0.05751
3480.57621	0.05811
3479.29045	0.05878
3478.00468	0.05935
3476.71891	0.05980
3475.43314	0.06013
3474.14737	0.06022
3472.86160	0.06002
3471.57583	0.05969
3470.29006	0.05955
3469.00429	0.05980
3467.71853	0.06034
3466.43276	0.06097
3465.14699	0.06149
3463.86122	0.06180
3462.57545	0.06188
3461.28968	0.06183
3460.00391	0.06180
3458.71814	0.06185
3457.43238	0.06190
3456.14661	0.06190
3454.86084	0.06196
3453.57507	0.06220
3452.28930	0.06263
3451.00353	0.06309
3449.71776	0.06339
3448.43199	0.06345
3447.14622	0.06331
3445.86046	0.06312
3444.57469	0.06313
3443.28892	0.06345
3442.00315	0.06389
3440.71738	0.06416
3439.43161	0.06412
3438.14584	0.06395
3436.86007	0.06389
3435.57431	0.06412
3434.28854	0.06461
3433.00277	0.06521
3431.71700	0.06566
3430.43123	0.06580
3429.14546	0.06563
3427.85969	0.06534
3426.57392	0.06514
3425.28815	0.06519
3424.00239	0.06550
3422.71662	0.06601
3421.43085	0.06663
3420.14508	0.06722
3418.85931	0.06759
3417.57354	0.06761
3416.28777	0.06738
3415.00200	0.06722
3413.71624	0.06742
3412.43047	0.06801
3411.14470	0.06865
3409.85893	0.06899
3408.57316	0.06902
3407.28739	0.06896
3406.00162	0.06899
3404.71585	0.06908
3403.43008	0.06921
3402.14432	0.06943
3400.85855	0.06975
3399.57278	0.07009
3398.28701	0.07025
3397.00124	0.07026
3395.71547	0.07029
3394.42970	0.07059
3393.14393	0.07120
3391.85817	0.07189
3390.57240	0.07223
3389.28663	0.07206
3388.00086	0.07167
3386.71509	0.07154
3385.42932	0.07178
3384.14355	0.07216
3382.85778	0.07239
3381.57201	0.07241
3380.28625	0.07233
3379.00048	0.07227
3377.71471	0.07223
3376.42894	0.07219
3375.14317	0.07217
3373.85740	0.07231
3372.57163	0.07271
3371.28586	0.07339
3370.00010	0.07417
3368.71433	0.07487
3367.42856	0.07540
3366.14279	0.07580
3364.85702	0.07615
3363.57125	0.07649
3362.28548	0.07675
3360.99971	0.07686
3359.71394	0.07683
3358.42818	0.07677
3357.14241	0.07681
3355.85664	0.07704
3354.57087	0.07740
3353.28510	0.07778
3351.99933	0.07813
3350.71356	0.07851
3349.42779	0.07897
3348.14202	0.07945
3346.85626	0.07988
3345.57049	0.08025
3344.28472	0.08057
3342.99895	0.08076
3341.71318	0.08079
3340.42741	0.08076
3339.14164	0.08087
3337.85587	0.08121
3336.57011	0.08169
3335.28434	0.08214
3333.99857	0.08242
3332.71280	0.08256
3331.42703	0.08269
3330.14126	0.08297
3328.85549	0.08342
3327.56972	0.08393
3326.28395	0.08439
3324.99819	0.08479
3323.71242	0.08518
3322.42665	0.08562
3321.14088	0.08606
3319.85511	0.08634
3318.56934	0.08640
3317.28357	0.08635
3315.99780	0.08635
3314.71204	0.08649
3313.42627	0.08673
3312.14050	0.08701
3310.85473	0.08718
3309.56896	0.08720
3308.28319	0.08716
3306.99742	0.08730
3305.71165	0.08776
3304.42588	0.08841
3303.14012	0.08902
3301.85435	0.08940
3300.56858	0.08953
3299.28281	0.08947
3297.99704	0.08939
3296.71127	0.08947
3295.42550	0.08978
3294.13973	0.09016
3292.85397	0.09035
3291.56820	0.09021
3290.28243	0.08988
3288.99666	0.08964
3287.71089	0.08965
3286.42512	0.08983
3285.13935	0.09002
3283.85358	0.09017
3282.56781	0.09034
3281.28205	0.09058
3279.99628	0.09082
3278.71051	0.09090
3277.42474	0.09076
3276.13897	0.09041
3274.85320	0.08994
3273.56743	0.08958
3272.28166	0.08956
3270.99590	0.08992
3269.71013	0.09044
3268.42436	0.09076
3267.13859	0.09069
3265.85282	0.09026
3264.56705	0.08972
3263.28128	0.08928
3261.99551	0.08902
3260.70974	0.08887
3259.42398	0.08869
3258.13821	0.08841
3256.85244	0.08802
3255.56667	0.08752
3254.28090	0.08708
3252.99513	0.08685
3251.70936	0.08682
3250.42359	0.08671
3249.13783	0.08636
3247.85206	0.08596
3246.56629	0.08580
3245.28052	0.08593
3243.99475	0.08606
3242.70898	0.08592
3241.42321	0.08546
3240.13744	0.08483
3238.85167	0.08426
3237.56591	0.08387
3236.28014	0.08366
3234.99437	0.08361
3233.70860	0.08368
3232.42283	0.08377
3231.13706	0.08382
3229.85129	0.08380
3228.56552	0.08377
3227.27976	0.08376
3225.99399	0.08375
3224.70822	0.08373
3223.42245	0.08367
3222.13668	0.08358
3220.85091	0.08342
3219.56514	0.08318
3218.27937	0.08284
3216.99360	0.08242
3215.70784	0.08203
3214.42207	0.08179
3213.13630	0.08173
3211.85053	0.08181
3210.56476	0.08194
3209.27899	0.08202
3207.99322	0.08199
3206.70745	0.08185
3205.42169	0.08171
3204.13592	0.08162
3202.85015	0.08143
3201.56438	0.08098
3200.27861	0.08036
3198.99284	0.07989
3197.70707	0.07977
3196.42130	0.07989
3195.13553	0.07998
3193.84977	0.07994
3192.56400	0.07989
3191.27823	0.07992
3189.99246	0.08000
3188.70669	0.08007
3187.42092	0.08015
3186.13515	0.08020
3184.84938	0.08008
3183.56362	0.07966
3182.27785	0.07902
3180.99208	0.07837
3179.70631	0.07786
3178.42054	0.07745
3177.13477	0.07698
3175.84900	0.07643
3174.56323	0.07596
3173.27746	0.07581
3171.99170	0.07600
3170.70593	0.07623
3169.42016	0.07619
3168.13439	0.07582
3166.84862	0.07530
3165.56285	0.07477
3164.27708	0.07432
3162.99131	0.07402
3161.70555	0.07392
3160.41978	0.07390
3159.13401	0.07377
3157.84824	0.07347
3156.56247	0.07318
3155.27670	0.07310
3153.99093	0.07317
3152.70516	0.07315
3151.41939	0.07294
3150.13363	0.07267
3148.84786	0.07255
3147.56209	0.07255
3146.27632	0.07241
3144.99055	0.07201
3143.70478	0.07149
3142.41901	0.07104
3141.13324	0.07069
3139.84748	0.07031
3138.56171	0.06986
3137.27594	0.06947
3135.99017	0.06926
3134.70440	0.06915
3133.41863	0.06902
3132.13286	0.06882
3130.84709	0.06861
3129.56132	0.06843
3128.27556	0.06823
3126.98979	0.06796
3125.70402	0.06764
3124.41825	0.06740
3123.13248	0.06729
3121.84671	0.06731
3120.56094	0.06737
3119.27517	0.06742
3117.98940	0.06748
3116.70364	0.06756
3115.41787	0.06757
3114.13210	0.06745
3112.84633	0.06721
3111.56056	0.06695
3110.27479	0.06678
3108.98902	0.06673
3107.70325	0.06678
3106.41749	0.06690
3105.13172	0.06704
3103.84595	0.06721
3102.56018	0.06742
3101.27441	0.06764
3099.98864	0.06777
3098.70287	0.06769
3097.41710	0.06741
3096.13133	0.06711
3094.84557	0.06699
3093.55980	0.06711
3092.27403	0.06731
3090.98826	0.06743
3089.70249	0.06745
3088.41672	0.06747
3087.13095	0.06756
3085.84518	0.06774
3084.55942	0.06801
3083.27365	0.06831
3081.98788	0.06852
3080.70211	0.06854
3079.41634	0.06844
3078.13057	0.06840
3076.84480	0.06853
3075.55903	0.06876
3074.27326	0.06895
3072.98750	0.06905
3071.70173	0.06909
3070.41596	0.06912
3069.13019	0.06919
3067.84442	0.06928
3066.55865	0.06932
3065.27288	0.06923
3063.98711	0.06903
3062.70135	0.06884
3061.41558	0.06872
3060.12981	0.06864
3058.84404	0.06850
3057.55827	0.06826
3056.27250	0.06793
3054.98673	0.06760
3053.70096	0.06734
3052.41519	0.06722
3051.12943	0.06719
3049.84366	0.06719
3048.55789	0.06712
3047.27212	0.06696
3045.98635	0.06673
3044.70058	0.06641
3043.41481	0.06599
3042.12904	0.06548
3040.84328	0.06497
3039.55751	0.06460
3038.27174	0.06442
3036.98597	0.06439
3035.70020	0.06440
3034.41443	0.06435
3033.12866	0.06422
3031.84289	0.06405
3030.55712	0.06392
3029.27136	0.06386
3027.98559	0.06379
3026.69982	0.06362
3025.41405	0.06333
3024.12828	0.06301
3022.84251	0.06271
3021.55674	0.06246
3020.27097	0.06220
3018.98521	0.06191
3017.69944	0.06163
3016.41367	0.06143
3015.12790	0.06131
3013.84213	0.06126
3012.55636	0.06126
3011.27059	0.06128
3009.98482	0.06128
3008.69905	0.06118
3007.41329	0.06094
3006.12752	0.06063
3004.84175	0.06033
3003.55598	0.06013
3002.27021	0.06012
3000.98444	0.06028
2999.69867	0.06056
2998.41290	0.06084
2997.12714	0.06102
2995.84137	0.06108
2994.55560	0.06103
2993.26983	0.06091
2991.98406	0.06080
2990.69829	0.06080
2989.41252	0.06097
2988.12675	0.06124
2986.84098	0.06149
2985.55522	0.06161
2984.26945	0.06167
2982.98368	0.06181
2981.69791	0.06215
2980.41214	0.06263
2979.12637	0.06313
2977.84060	0.06358
2976.55483	0.06394
2975.26907	0.06425
2973.98330	0.06452
2972.69753	0.06474
2971.41176	0.06490
2970.12599	0.06504
2968.84022	0.06524
2967.55445	0.06556
2966.26868	0.06597
2964.98291	0.06639
2963.69715	0.06676
2962.41138	0.06703
2961.12561	0.06722
2959.83984	0.06738
2958.55407	0.06757
2957.26830	0.06772
2955.98253	0.06776
2954.69676	0.06765
2953.41100	0.06748
2952.12523	0.06738
2950.83946	0.06736
2949.55369	0.06741
2948.26792	0.06744
2946.98215	0.06743
2945.69638	0.06740
2944.41061	0.06741
2943.12484	0.06756
2941.83908	0.06791
2940.55331	0.06843
2939.26754	0.06898
2937.98177	0.06940
2936.69600	0.06963
2935.41023	0.06971
2934.12446	0.06977
2932.83869	0.06987
2931.55293	0.07003
2930.26716	0.07022
2928.98139	0.07041
2927.69562	0.07057
2926.40985	0.07068
2925.12408	0.07071
2923.83831	0.07063
2922.55254	0.07043
2921.26677	0.07020
2919.98101	0.07005
2918.69524	0.07005
2917.40947	0.07007
2916.12370	0.06986
2914.83793	0.06929
2913.55216	0.06848
2912.26639	0.06772
2910.98062	0.06722
2909.69486	0.06695
2908.40909	0.06675
2907.12332	0.06647
2905.83755	0.06609
2904.55178	0.06564
2903.26601	0.06512
2901.98024	0.06457
2900.69447	0.06402
2899.40870	0.06354
2898.12294	0.06319
2896.83717	0.06302
2895.55140	0.06298
2894.26563	0.06294
2892.97986	0.06280
2891.69409	0.06263
2890.40832	0.06252
2889.12255	0.06245
2887.83678	0.06230
2886.55102	0.06200
2885.26525	0.06169
2883.97948	0.06161
2882.69371	0.06191
2881.40794	0.06247
2880.12217	0.06296
2878.83640	0.06308
2877.55063	0.06286
2876.26487	0.06261
2874.97910	0.06260
2873.69333	0.06283
2872.40756	0.06306
2871.12179	0.06308
2869.83602	0.06283
2868.55025	0.06238
2867.26448	0.06187
2865.97871	0.06146
2864.69295	0.06123
2863.40718	0.06111
2862.12141	0.06099
2860.83564	0.06089
2859.54987	0.06090
2858.26410	0.06101
2856.97833	0.06106
2855.69256	0.06088
2854.40680	0.06049
2853.12103	0.06007
2851.83526	0.05988
2850.54949	0.05993
2849.26372	0.06004
2847.97795	0.05993
2846.69218	0.05953
2845.40641	0.05901
2844.12064	0.05852
2842.83488	0.05805
2841.54911	0.05757
2840.26334	0.05710
2838.97757	0.05672
2837.69180	0.05646
2836.40603	0.05624
2835.12026	0.05597
2833.83449	0.05564
2832.54873	0.05532
2831.26296	0.05507
2829.97719	0.05486
2828.69142	0.05466
2827.40565	0.05449
2826.11988	0.05446
2824.83411	0.05463
2823.54834	0.05491
2822.26257	0.05507
2820.97681	0.05497
2819.69104	0.05467
2818.40527	0.05436
2817.11950	0.05415
2815.83373	0.05399
2814.54796	0.05387
2813.26219	0.05374
2811.97642	0.05357
2810.69066	0.05332
2809.40489	0.05304
2808.11912	0.05281
2806.83335	0.05264
2805.54758	0.05253
2804.26181	0.05245
2802.97604	0.05239
2801.69027	0.05231
2800.40450	0.05220
2799.11874	0.05212
2797.83297	0.05214
2796.54720	0.05223
2795.26143	0.05228
2793.97566	0.05221
2792.68989	0.05208
2791.40412	0.05198
2790.11835	0.05190
2788.83259	0.05175
2787.54682	0.05154
2786.26105	0.05141
2784.97528	0.05142
2783.68951	0.05151
2782.40374	0.05155
2781.11797	0.05147
2779.83220	0.05128
2778.54643	0.05102
2777.26067	0.05077
2775.97490	0.05061
2774.68913	0.05054
2773.40336	0.05048
2772.11759	0.05036
2770.83182	0.05012
2769.54605	0.04983
2768.26028	0.04962
2766.97452	0.04962
2765.68875	0.04978
2764.40298	0.04993
2763.11721	0.04994
2761.83144	0.04977
2760.54567	0.04948
2759.25990	0.04913
2757.97413	0.04876
2756.68836	0.04849
2755.40260	0.04841
2754.11683	0.04850
2752.83106	0.04860
2751.54529	0.04862
2750.25952	0.04859
2748.97375	0.04858
2747.68798	0.04860
2746.40221	0.04858
2745.11645	0.04843
2743.83068	0.04812
2742.54491	0.04773
2741.25914	0.04739
2739.97337	0.04722
2738.68760	0.04721
2737.40183	0.04726
2736.11606	0.04722
2734.83029	0.04706
2733.54453	0.04686
2732.25876	0.04673
2730.97299	0.04665
2729.68722	0.04653
2728.40145	0.04638
2727.11568	0.04633
2725.82991	0.04652
2724.54414	0.04687
2723.25838	0.04714
2721.97261	0.04719
2720.68684	0.04701
2719.40107	0.04671
2718.11530	0.04634
2716.82953	0.04594
2715.54376	0.04563
2714.25799	0.04545
2712.97222	0.04538
2711.68646	0.04536
2710.40069	0.04542
2709.11492	0.04557
2707.82915	0.04575
2706.54338	0.04583
2705.25761	0.04577
2703.97184	0.04563
2702.68607	0.04550
2701.40031	0.04540
2700.11454	0.04533
2698.82877	0.04526
2697.54300	0.04517
2696.25723	0.04509
2694.97146	0.04505
2693.68569	0.04501
2692.39992	0.04490
2691.11415	0.04470
2689.82839	0.04447
2688.54262	0.04429
2687.25685	0.04414
2685.97108	0.04399
2684.68531	0.04389
2683.39954	0.04388
2682.11377	0.04394
2680.82800	0.04399
2679.54224	0.04395
2678.25647	0.04387
2676.97070	0.04377
2675.68493	0.04368
2674.39916	0.04358
2673.11339	0.04351
2671.82762	0.04347
2670.54185	0.04345
2669.25608	0.04344
2667.97032	0.04344
2666.68455	0.04347
2665.39878	0.04346
2664.11301	0.04340
2662.82724	0.04330
2661.54147	0.04325
2660.25570	0.04325
2658.96993	0.04321
2657.68417	0.04303
2656.39840	0.04278
2655.11263	0.04260
2653.82686	0.04261
2652.54109	0.04273
2651.25532	0.04278
2649.96955	0.04263
2648.68378	0.04233
2647.39801	0.04200
2646.11225	0.04170
2644.82648	0.04145
2643.54071	0.04128
2642.25494	0.04125
2640.96917	0.04131
2639.68340	0.04129
2638.39763	0.04108
2637.11186	0.04072
2635.82609	0.04033
2634.54033	0.04004
2633.25456	0.03989
2631.96879	0.03986
2630.68302	0.03986
2629.39725	0.03981
2628.11148	0.03970
2626.82571	0.03957
2625.53994	0.03944
2624.25418	0.03933
2622.96841	0.03922
2621.68264	0.03914
2620.39687	0.03911
2619.11110	0.03913
2617.82533	0.03917
2616.53956	0.03919
2615.25379	0.03919
2613.96802	0.03915
2612.68226	0.03899
2611.39649	0.03867
2610.11072	0.03824
2608.82495	0.03784
2607.53918	0.03758
2606.25341	0.03745
2604.96764	0.03738
2603.68187	0.03727
2602.39611	0.03706
2601.11034	0.03680
2599.82457	0.03656
2598.53880	0.03645
2597.25303	0.03653
2595.96726	0.03670
2594.68149	0.03672
2593.39572	0.03638
2592.10995	0.03572
2590.82419	0.03506
2589.53842	0.03477
2588.25265	0.03497
2586.96688	0.03546
2585.68111	0.03587
2584.39534	0.03595
2583.10957	0.03572
2581.82380	0.03538
2580.53804	0.03517
2579.25227	0.03514
2577.96650	0.03520
2576.68073	0.03519
2575.39496	0.03505
2574.10919	0.03480
2572.82342	0.03448
2571.53765	0.03414
2570.25188	0.03389
2568.96612	0.03382
2567.68035	0.03395
2566.39458	0.03420
2565.10881	0.03436
2563.82304	0.03424
2562.53727	0.03387
2561.25150	0.03350
2559.96573	0.03330
2558.67997	0.03320
2557.39420	0.03309
2556.10843	0.03298
2554.82266	0.03294
2553.53689	0.03302
2552.25112	0.03322
2550.96535	0.03355
2549.67958	0.03398
2548.39381	0.03436
2547.10805	0.03450
2545.82228	0.03437
2544.53651	0.03413
2543.25074	0.03397
2541.96497	0.03391
2540.67920	0.03387
2539.39343	0.03377
2538.10766	0.03360
2536.82190	0.03341
2535.53613	0.03322
2534.25036	0.03307
2532.96459	0.03300
2531.67882	0.03302
2530.39305	0.03304
2529.10728	0.03293
2527.82151	0.03265
2526.53574	0.03247
2525.24998	0.03273
2523.96421	0.03343
2522.67844	0.03415
2521.39267	0.03437
2520.10690	0.03396
2518.82113	0.03320
2517.53536	0.03252
2516.24959	0.03219
2514.96383	0.03213
2513.67806	0.03214
2512.39229	0.03213
2511.10652	0.03221
2509.82075	0.03247
2508.53498	0.03283
2507.24921	0.03316
2505.96344	0.03337
2504.67767	0.03343
2503.39191	0.03331
2502.10614	0.03311
2500.82037	0.03293
2499.53460	0.03282
2498.24883	0.03272
2496.96306	0.03257
2495.67729	0.03237
2494.39152	0.03214
2493.10576	0.03190
2491.81999	0.03171
2490.53422	0.03166
2489.24845	0.03177
2487.96268	0.03199
2486.67691	0.03218
2485.39114	0.03222
2484.10537	0.03199
2482.81960	0.03152
2481.53384	0.03103
2480.24807	0.03082
2478.96230	0.03097
2477.67653	0.03124
2476.39076	0.03139
2475.10499	0.03146
2473.81922	0.03163
2472.53345	0.03200
2471.24769	0.03236
2469.96192	0.03245
2468.67615	0.03217
2467.39038	0.03170
2466.10461	0.03132
2464.81884	0.03117
2463.53307	0.03116
2462.24730	0.03116
2460.96153	0.03116
2459.67577	0.03120
2458.39000	0.03129
2457.10423	0.03129
2455.81846	0.03110
2454.53269	0.03070
2453.24692	0.03030
2451.96115	0.03018
2450.67538	0.03046
2449.38962	0.03100
2448.10385	0.03150
2446.81808	0.03170
2445.53231	0.03151
2444.24654	0.03101
2442.96077	0.03039
2441.67500	0.02993
2440.38923	0.02983
2439.10346	0.03013
2437.81770	0.03067
2436.53193	0.03118
2435.24616	0.03139
2433.96039	0.03125
2432.67462	0.03096
2431.38885	0.03081
2430.10308	0.03085
2428.81731	0.03091
2427.53155	0.03079
2426.24578	0.03057
2424.96001	0.03042
2423.67424	0.03039
2422.38847	0.03037
2421.10270	0.03027
2419.81693	0.03026
2418.53116	0.03048
2417.24539	0.03078
2415.95963	0.03090
2414.67386	0.03080
2413.38809	0.03074
2412.10232	0.03092
2410.81655	0.03118
2409.53078	0.03127
2408.24501	0.03110
2406.95924	0.03079
2405.67347	0.03052
2404.38771	0.03038
2403.10194	0.03034
2401.81617	0.03039
2400.53040	0.03048
2399.24463	0.03051
2397.95886	0.03050
2396.67309	0.03042
2395.38732	0.03032
2394.10156	0.03023
2392.81579	0.03022
2391.53002	0.03031
2390.24425	0.03046
2388.95848	0.03056
2387.67271	0.03051
2386.38694	0.03030
2385.10117	0.03002
2383.81540	0.02984
2382.52964	0.02990
2381.24387	0.03015
2379.95810	0.03048
2378.67233	0.03067
2377.38656	0.03076
2376.10079	0.03090
2374.81502	0.03114
2373.52925	0.03092
2372.24349	0.03075
2370.95772	0.03047
2369.67195	0.03009
2368.38618	0.02985
2367.10041	0.02992
2365.81464	0.03021
2364.52887	0.03054
2363.24310	0.03084
2361.95733	0.03113
2360.67157	0.03136
2359.38580	0.03139
2358.10003	0.03127
2356.81426	0.03120
2355.52849	0.03127
2354.24272	0.03158
2352.95695	0.03212
2351.67118	0.03230
2350.38542	0.03215
2349.09965	0.03182
2347.81388	0.03137
2346.52811	0.03108
2345.24234	0.03098
2343.95657	0.03106
2342.67080	0.03116
2341.38503	0.03091
2340.09926	0.03103
2338.81350	0.03106
2337.52773	0.03085
2336.24196	0.03097
2334.95619	0.03125
2333.67042	0.03142
2332.38465	0.03155
2331.09888	0.03137
2329.81311	0.03123
2328.52735	0.03110
2327.24158	0.03134
2325.95581	0.03172
2324.67004	0.03182
2323.38427	0.03172
2322.09850	0.03162
2320.81273	0.03123
2319.52696	0.03078
2318.24119	0.03047
2316.95543	0.03023
2315.66966	0.03017
2314.38389	0.03012
2313.09812	0.02997
2311.81235	0.02988
2310.52658	0.02969
2309.24081	0.02932
2307.95504	0.02894
2306.66928	0.02864
2305.38351	0.02848
2304.09774	0.02845
2302.81197	0.02844
2301.52620	0.02842
2300.24043	0.02839
2298.95466	0.02839
2297.66889	0.02840
2296.38312	0.02839
2295.09736	0.02832
2293.81159	0.02818
2292.52582	0.02792
2291.24005	0.02759
2289.95428	0.02730
2288.66851	0.02715
2287.38274	0.02714
2286.09697	0.02716
2284.81121	0.02710
2283.52544	0.02694
2282.23967	0.02685
2280.95390	0.02704
2279.66813	0.02749
2278.38236	0.02796
2277.09659	0.02811
2275.81082	0.02777
2274.52505	0.02704
2273.23929	0.02625
2271.95352	0.02573
2270.66775	0.02564
2269.38198	0.02586
2268.09621	0.02613
2266.81044	0.02626
2265.52467	0.02608
2264.23890	0.02550
2262.95314	0.02461
2261.66737	0.02378
2260.38160	0.02345
2259.09583	0.02365
2257.81006	0.02403
2256.52429	0.02410
2255.23852	0.02358
2253.95275	0.02251
2252.66698	0.02122
2251.38122	0.02019
2250.09545	0.01982
2248.80968	0.02015
2247.52391	0.02081
2246.23814	0.02151
2244.95237	0.02189
2243.66660	0.02179
2242.38083	0.02141
2241.09507	0.02120
2239.80930	0.02135
2238.52353	0.02163
2237.23776	0.02171
2235.95199	0.02155
2234.66622	0.02138
2233.38045	0.02138
2232.09468	0.02142
2230.80891	0.02115
2229.52315	0.02039
2228.23738	0.01938
2226.95161	0.01866
2225.66584	0.01859
2224.38007	0.01910
2223.09430	0.01986
2221.80853	0.02052
2220.52276	0.02087
2219.23700	0.02091
2217.95123	0.02078
2216.66546	0.02053
2215.37969	0.02011
2214.09392	0.01951
2212.80815	0.01889
2211.52238	0.01835
2210.23661	0.01783
2208.95084	0.01727
2207.66508	0.01691
2206.37931	0.01709
2205.09354	0.01780
2203.80777	0.01870
2202.52200	0.01938
2201.23623	0.01963
2199.95046	0.01946
2198.66469	0.01904
2197.37893	0.01874
2196.09316	0.01887
2194.80739	0.01948
2193.52162	0.02035
2192.23585	0.02113
2190.95008	0.02127
2189.66431	0.02026
2188.37854	0.01816
2187.09277	0.01595
2185.80701	0.01471
2184.52124	0.01452
2183.23547	0.01457
2181.94970	0.01426
2180.66393	0.01371
2179.37816	0.01320
2178.09239	0.01261
2176.80662	0.01187
2175.52085	0.01132
2174.23509	0.01147
2172.94932	0.01234
2171.66355	0.01348
2170.37778	0.01432
2169.09201	0.01452
2167.80624	0.01410
2166.52047	0.01353
2165.23470	0.01334
2163.94894	0.01356
2162.66317	0.01351
2161.37740	0.01245
2160.09163	0.01047
2158.80586	0.00855
2157.52009	0.00771
2156.23432	0.00824
2154.94855	0.00971
2153.66278	0.01149
2152.37702	0.01309
2151.09125	0.01440
2149.80548	0.01554
2148.51971	0.01646
2147.23394	0.01667
2145.94817	0.01583
2144.66240	0.01447
2143.37663	0.01371
2142.09087	0.01424
2140.80510	0.01569
2139.51933	0.01720
2138.23356	0.01818
2136.94779	0.01848
2135.66202	0.01829
2134.37625	0.01794
2133.09048	0.01776
2131.80471	0.01780
2130.51895	0.01793
2129.23318	0.01808
2127.94741	0.01823
2126.66164	0.01833
2125.37587	0.01828
2124.09010	0.01813
2122.80433	0.01807
2121.51856	0.01831
2120.23280	0.01876
2118.94703	0.01913
2117.66126	0.01923
2116.37549	0.01918
2115.08972	0.01925
2113.80395	0.01954
2112.51818	0.01985
2111.23241	0.01986
2109.94664	0.01951
2108.66088	0.01906
2107.37511	0.01884
2106.08934	0.01891
2104.80357	0.01899
2103.51780	0.01883
2102.23203	0.01844
2100.94626	0.01793
2099.66049	0.01686
2098.37473	0.01618
2097.08896	0.01610
2095.80319	0.01652
2094.51742	0.01725
2093.23165	0.01792
2091.94588	0.01823
2090.66011	0.01816
2089.37434	0.01789
2088.08857	0.01764
2086.80281	0.01747
2085.51704	0.01733
2084.23127	0.01714
2082.94550	0.01688
2081.65973	0.01662
2080.37396	0.01652
2079.08819	0.01665
2077.80242	0.01690
2076.51666	0.01698
2075.23089	0.01670
2073.94512	0.01617
2072.65935	0.01573
2071.37358	0.01570
2070.08781	0.01610
2068.80204	0.01671
2067.51627	0.01722
2066.23050	0.01742
2064.94474	0.01725
2063.65897	0.01681
2062.37320	0.01637
2061.08743	0.01619
2059.80166	0.01629
2058.51589	0.01647
2057.23012	0.01654
2055.94435	0.01642
2054.65859	0.01617
2053.37282	0.01589
2052.08705	0.01564
2050.80128	0.01537
2049.51551	0.01493
2048.22974	0.01424
2046.94397	0.01356
2045.65820	0.01333
2044.37243	0.01355
2043.08667	0.01356
2041.80090	0.01273
2040.51513	0.01134
2039.22936	0.01040
2037.94359	0.01046
2036.65782	0.01097
2035.37205	0.01106
2034.08628	0.01058
2032.80052	0.00997
2031.51475	0.00951
2030.22898	0.00903
2028.94321	0.00850
2027.65744	0.00824
2026.37167	0.00835
2025.08590	0.00842
2023.80013	0.00805
2022.51436	0.00743
2021.22860	0.00723
2019.94283	0.00774
2018.65706	0.00864
2017.37129	0.00931
2016.08552	0.00944
2014.79975	0.00915
2013.51398	0.00892
2012.22821	0.00912
2010.94245	0.00965
2009.65668	0.01000
2008.37091	0.00986
2007.08514	0.00956
2005.79937	0.00966
2004.51360	0.01031
2003.22783	0.01117
2001.94206	0.01193
2000.65629	0.01252
1999.37053	0.01300
1998.08476	0.01334
1996.79899	0.01349
1995.51322	0.01345
1994.22745	0.01331
1992.94168	0.01314
1991.65591	0.01298
1990.37014	0.01295
1989.08438	0.01324
1987.79861	0.01387
1986.51284	0.01457
1985.22707	0.01494
1983.94130	0.01476
1982.65553	0.01405
1981.36976	0.01305
1980.08399	0.01207
1978.79822	0.01133
1977.51246	0.01081
1976.22669	0.01024
1974.94092	0.00941
1973.65515	0.00840
1972.36938	0.00756
1971.08361	0.00743
1969.79784	0.00837
1968.51207	0.01014
1967.22631	0.01186
1965.94054	0.01267
1964.65477	0.01246
1963.36900	0.01192
1962.08323	0.01186
1960.79746	0.01248
1959.51169	0.01334
1958.22592	0.01392
1956.94015	0.01407
1955.65439	0.01394
1954.36862	0.01376
1953.08285	0.01369
1951.79708	0.01377
1950.51131	0.01393
1949.22554	0.01400
1947.93977	0.01386
1946.65400	0.01354
1945.36823	0.01325
1944.08247	0.01319
1942.79670	0.01349
1941.51093	0.01411
1940.22516	0.01481
1938.93939	0.01530
1937.65362	0.01537
1936.36785	0.01506
1935.08208	0.01456
1933.79632	0.01416
1932.51055	0.01402
1931.22478	0.01411
1929.93901	0.01423
1928.65324	0.01427
1927.36747	0.01435
1926.08170	0.01460
1924.79593	0.01490
1923.51016	0.01499
1922.22440	0.01476
1920.93863	0.01443
1919.65286	0.01426
1918.36709	0.01433
1917.08132	0.01453
1915.79555	0.01473
1914.50978	0.01494
1913.22401	0.01524
1911.93825	0.01561
1910.65248	0.01591
1909.36671	0.01596
1908.08094	0.01577
1906.79517	0.01550
1905.50940	0.01532
1904.22363	0.01532
1902.93786	0.01541
1901.65209	0.01548
1900.36633	0.01544
1899.08056	0.01530
1897.79479	0.01515
1896.50902	0.01509
1895.22325	0.01515
1893.93748	0.01528
1892.65171	0.01544
1891.36594	0.01566
1890.08018	0.01595
1888.79441	0.01616
1887.50864	0.01608
1886.22287	0.01575
1884.93710	0.01543
1883.65133	0.01542
1882.36556	0.01576
1881.07979	0.01618
1879.79402	0.01646
1878.50826	0.01654
1877.22249	0.01650
1875.93672	0.01647
1874.65095	0.01647
1873.36518	0.01647
1872.07941	0.01643
1870.79364	0.01633
1869.50787	0.01617
1868.22211	0.01597
1866.93634	0.01586
1865.65057	0.01591
1864.36480	0.01609
1863.07903	0.01626
1861.79326	0.01626
1860.50749	0.01612
1859.22172	0.01595
1857.93595	0.01584
1856.65019	0.01576
1855.36442	0.01567
1854.07865	0.01561
1852.79288	0.01565
1851.50711	0.01579
1850.22134	0.01593
1848.93557	0.01598
1847.64980	0.01598
1846.36404	0.01600
1845.07827	0.01609
1843.79250	0.01619
1842.50673	0.01624
1841.22096	0.01619
1839.93519	0.01607
1838.64942	0.01597
1837.36365	0.01593
1836.07788	0.01592
1834.79212	0.01589
1833.50635	0.01587
1832.22058	0.01594
1830.93481	0.01609
1829.64904	0.01621
1828.36327	0.01618
1827.07750	0.01599
1825.79173	0.01572
1824.50597	0.01546
1823.22020	0.01528
1821.93443	0.01521
1820.64866	0.01523
1819.36289	0.01524
1818.07712	0.01523
1816.79135	0.01527
1815.50558	0.01548
1814.21981	0.01585
1812.93405	0.01622
1811.64828	0.01644
1810.36251	0.01649
1809.07674	0.01642
1807.79097	0.01631
1806.50520	0.01622
1805.21943	0.01619
1803.93366	0.01617
1802.64790	0.01611
1801.36213	0.01601
1800.07636	0.01591
1798.79059	0.01588
1797.50482	0.01590
1796.21905	0.01594
1794.93328	0.01596
1793.64751	0.01593
1792.36174	0.01587
1791.07598	0.01579
1789.79021	0.01573
1788.50444	0.01571
1787.21867	0.01571
1785.93290	0.01569
1784.64713	0.01561
1783.36136	0.01551
1782.07559	0.01542
1780.78983	0.01541
1779.50406	0.01547
1778.21829	0.01554
1776.93252	0.01556
1775.64675	0.01553
1774.36098	0.01546
1773.07521	0.01542
1771.78944	0.01543
1770.50367	0.01547
1769.21791	0.01550
1767.93214	0.01547
1766.64637	0.01546
1765.36060	0.01553
1764.07483	0.01572
1762.78906	0.01594
1761.50329	0.01608
1760.21752	0.01610
1758.93176	0.01604
1757.64599	0.01596
1756.36022	0.01589
1755.07445	0.01581
1753.78868	0.01572
1752.50291	0.01567
1751.21714	0.01572
1749.93137	0.01590
1748.64560	0.01619
1747.35984	0.01650
1746.07407	0.01676
1744.78830	0.01692
1743.50253	0.01700
1742.21676	0.01707
1740.93099	0.01720
1739.64522	0.01739
1738.35945	0.01759
1737.07369	0.01773
1735.78792	0.01778
1734.50215	0.01779
1733.21638	0.01787
1731.93061	0.01806
1730.64484	0.01831
1729.35907	0.01855
1728.07330	0.01875
1726.78753	0.01892
1725.50177	0.01905
1724.21600	0.01912
1722.93023	0.01916
1721.64446	0.01921
1720.35869	0.01932
1719.07292	0.01952
1717.78715	0.01982
1716.50138	0.02017
1715.21561	0.02056
1713.92985	0.02099
1712.64408	0.02147
1711.35831	0.02201
1710.07254	0.02264
1708.78677	0.02333
1707.50100	0.02411
1706.21523	0.02497
1704.92946	0.02589
1703.64370	0.02686
1702.35793	0.02788
1701.07216	0.02901
1699.78639	0.03031
1698.50062	0.03175
1697.21485	0.03327
1695.92908	0.03479
1694.64331	0.03627
1693.35754	0.03770
1692.07178	0.03909
1690.78601	0.04049
1689.50024	0.04191
1688.21447	0.04333
1686.92870	0.04476
1685.64293	0.04622
1684.35716	0.04778
1683.07139	0.04942
1681.78563	0.05112
1680.49986	0.05281
1679.21409	0.05451
1677.92832	0.05621
1676.64255	0.05792
1675.35678	0.05966
1674.07101	0.06140
1672.78524	0.06315
1671.49947	0.06491
1670.21371	0.06672
1668.92794	0.06858
1667.64217	0.07048
1666.35640	0.07238
1665.07063	0.07427
1663.78486	0.07612
1662.49909	0.07790
1661.21332	0.07959
1659.92756	0.08116
1658.64179	0.08262
1657.35602	0.08397
1656.07025	0.08524
1654.78448	0.08648
1653.49871	0.08771
1652.21294	0.08889
1650.92717	0.08994
1649.64140	0.09084
1648.35564	0.09161
1647.06987	0.09231
1645.78410	0.09298
1644.49833	0.09367
1643.21256	0.09436
1641.92679	0.09502
1640.64102	0.09559
1639.35525	0.09603
1638.06949	0.09632
1636.78372	0.09649
1635.49795	0.09661
1634.21218	0.09670
1632.92641	0.09673
1631.64064	0.09664
1630.35487	0.09634
1629.06910	0.09580
1627.78333	0.09504
1626.49757	0.09410
1625.21180	0.09305
1623.92603	0.09191
1622.64026	0.09068
1621.35449	0.08934
1620.06872	0.08785
1618.78295	0.08621
1617.49718	0.08445
1616.21142	0.08265
1614.92565	0.08086
1613.63988	0.07912
1612.35411	0.07739
1611.06834	0.07566
1609.78257	0.07392
1608.49680	0.07218
1607.21103	0.07046
1605.92526	0.06882
1604.63950	0.06730
1603.35373	0.06590
1602.06796	0.06461
1600.78219	0.06338
1599.49642	0.06219
1598.21065	0.06109
1596.92488	0.06011
1595.63911	0.05927
1594.35335	0.05852
1593.06758	0.05781
1591.78181	0.05715
1590.49604	0.05658
1589.21027	0.05615
1587.92450	0.05587
1586.63873	0.05569
1585.35296	0.05555
1584.06719	0.05545
1582.78143	0.05539
1581.49566	0.05541
1580.20989	0.05552
1578.92412	0.05572
1577.63835	0.05603
1576.35258	0.05647
1575.06681	0.05700
1573.78104	0.05759
1572.49528	0.05821
1571.20951	0.05889
1569.92374	0.05965
1568.63797	0.06050
1567.35220	0.06139
1566.06643	0.06231
1564.78066	0.06325
1563.49489	0.06420
1562.20912	0.06514
1560.92336	0.06610
1559.63759	0.06713
1558.35182	0.06824
1557.06605	0.06938
1555.78028	0.07050
1554.49451	0.07158
1553.20874	0.07264
1551.92297	0.07365
1550.63721	0.07458
1549.35144	0.07542
1548.06567	0.07618
1546.77990	0.07690
1545.49413	0.07756
1544.20836	0.07817
1542.92259	0.07869
1541.63682	0.07913
1540.35105	0.07951
1539.06529	0.07985
1537.77952	0.08017
1536.49375	0.08044
1535.20798	0.08066
1533.92221	0.08081
1532.63644	0.08089
1531.35067	0.08091
1530.06490	0.08087
1528.77914	0.08080
1527.49337	0.08071
1526.20760	0.08060
1524.92183	0.08047
1523.63606	0.08034
1522.35029	0.08022
1521.06452	0.08007
1519.77875	0.07985
1518.49298	0.07954
1517.20722	0.07916
1515.92145	0.07870
1514.63568	0.07818
1513.34991	0.07757
1512.06414	0.07683
1510.77837	0.07596
1509.49260	0.07496
1508.20683	0.07387
1506.92107	0.07277
1505.63530	0.07168
1504.34953	0.07056
1503.06376	0.06939
1501.77799	0.06814
1500.49222	0.06686
1499.20645	0.06556
1497.92068	0.06426
1496.63491	0.06295
1495.34915	0.06162
1494.06338	0.06028
1492.77761	0.05892
1491.49184	0.05759
1490.20607	0.05635
1488.92030	0.05520
1487.63453	0.05413
1486.34876	0.05311
1485.06299	0.05215
1483.77723	0.05129
1482.49146	0.05060
1481.20569	0.05012
1479.91992	0.04984
1478.63415	0.04967
1477.34838	0.04956
1476.06261	0.04951
1474.77684	0.04956
1473.49108	0.04978
1472.20531	0.05017
1470.91954	0.05069
1469.63377	0.05124
1468.34800	0.05174
1467.06223	0.05217
1465.77646	0.05256
1464.49069	0.05296
1463.20492	0.05341
1461.91916	0.05387
1460.63339	0.05430
1459.34762	0.05471
1458.06185	0.05514
1456.77608	0.05560
1455.49031	0.05609
1454.20454	0.05652
1452.91877	0.05683
1451.63301	0.05699
1450.34724	0.05705
1449.06147	0.05707
1447.77570	0.05706
1446.48993	0.05701
1445.20416	0.05689
1443.91839	0.05669
1442.63262	0.05646
1441.34685	0.05622
1440.06109	0.05599
1438.77532	0.05576
1437.48955	0.05550
1436.20378	0.05519
1434.91801	0.05483
1433.63224	0.05440
1432.34647	0.05390
1431.06070	0.05333
1429.77494	0.05278
1428.48917	0.05233
1427.20340	0.05204
1425.91763	0.05189
1424.63186	0.05181
1423.34609	0.05176
1422.06032	0.05172
1420.77455	0.05169
1419.48878	0.05169
1418.20302	0.05169
1416.91725	0.05166
1415.63148	0.05160
1414.34571	0.05156
1413.05994	0.05158
1411.77417	0.05166
1410.48840	0.05178
1409.20263	0.05191
1407.91687	0.05203
1406.63110	0.05212
1405.34533	0.05222
1404.05956	0.05233
1402.77379	0.05243
1401.48802	0.05247
1400.20225	0.05245
1398.91648	0.05236
1397.63071	0.05222
1396.34495	0.05208
1395.05918	0.05199
1393.77341	0.05197
1392.48764	0.05199
1391.20187	0.05197
1389.91610	0.05190
1388.63033	0.05176
1387.34456	0.05158
1386.05880	0.05139
1384.77303	0.05122
1383.48726	0.05109
1382.20149	0.05097
1380.91572	0.05084
1379.62995	0.05065
1378.34418	0.05042
1377.05841	0.05012
1375.77264	0.04976
1374.48688	0.04934
1373.20111	0.04890
1371.91534	0.04852
1370.62957	0.04822
1369.34380	0.04794
1368.05803	0.04761
1366.77226	0.04719
1365.48649	0.04672
1364.20073	0.04624
1362.91496	0.04576
1361.62919	0.04530
1360.34342	0.04489
1359.05765	0.04457
1357.77188	0.04432
1356.48611	0.04415
1355.20034	0.04403
1353.91457	0.04397
1352.62881	0.04400
1351.34304	0.04410
1350.05727	0.04424
1348.77150	0.04439
1347.48573	0.04451
1346.19996	0.04464
1344.91419	0.04480
1343.62842	0.04498
1342.34266	0.04516
1341.05689	0.04532
1339.77112	0.04546
1338.48535	0.04557
1337.19958	0.04562
1335.91381	0.04561
1334.62804	0.04553
1333.34227	0.04540
1332.05650	0.04525
1330.77074	0.04509
1329.48497	0.04492
1328.19920	0.04475
1326.91343	0.04459
1325.62766	0.04444
1324.34189	0.04430
1323.05612	0.04418
1321.77035	0.04408
1320.48459	0.04401
1319.19882	0.04398
1317.91305	0.04398
1316.62728	0.04399
1315.34151	0.04399
1314.05574	0.04392
1312.76997	0.04379
1311.48420	0.04363
1310.19843	0.04350
1308.91267	0.04339
1307.62690	0.04330
1306.34113	0.04319
1305.05536	0.04305
1303.76959	0.04289
1302.48382	0.04278
1301.19805	0.04274
1299.91228	0.04273
1298.62652	0.04271
1297.34075	0.04264
1296.05498	0.04257
1294.76921	0.04252
1293.48344	0.04254
1292.19767	0.04263
1290.91190	0.04278
1289.62613	0.04294
1288.34036	0.04310
1287.05460	0.04326
1285.76883	0.04342
1284.48306	0.04358
1283.19729	0.04374
1281.91152	0.04389
1280.62575	0.04406
1279.33998	0.04426
1278.05421	0.04446
1276.76845	0.04465
1275.48268	0.04478
1274.19691	0.04487
1272.91114	0.04493
1271.62537	0.04498
1270.33960	0.04507
1269.05383	0.04522
1267.76806	0.04543
1266.48229	0.04565
1265.19653	0.04583
1263.91076	0.04597
1262.62499	0.04609
1261.33922	0.04625
1260.05345	0.04648
1258.76768	0.04676
1257.48191	0.04711
1256.19614	0.04750
1254.91037	0.04792
1253.62461	0.04830
1252.33884	0.04864
1251.05307	0.04897
1249.76730	0.04933
1248.48153	0.04972
1247.19576	0.05016
1245.90999	0.05061
1244.62422	0.05109
1243.33846	0.05154
1242.05269	0.05195
1240.76692	0.05231
1239.48115	0.05265
1238.19538	0.05297
1236.90961	0.05326
1235.62384	0.05346
1234.33807	0.05355
1233.05230	0.05351
1231.76654	0.05337
1230.48077	0.05319
1229.19500	0.05298
1227.90923	0.05273
1226.62346	0.05242
1225.33769	0.05208
1224.05192	0.05176
1222.76615	0.05142
1221.48039	0.05104
1220.19462	0.05062
1218.90885	0.05018
1217.62308	0.04979
1216.33731	0.04945
1215.05154	0.04915
1213.76577	0.04885
1212.48000	0.04855
1211.19423	0.04827
1209.90847	0.04805
1208.62270	0.04791
1207.33693	0.04786
1206.05116	0.04785
1204.76539	0.04784
1203.47962	0.04776
1202.19385	0.04760
1200.90808	0.04741
1199.62232	0.04721
1198.33655	0.04689
1197.05078	0.04654
1195.76501	0.04618
1194.47924	0.04581
1193.19347	0.04548
1191.90770	0.04521
1190.62193	0.04504
1189.33616	0.04493
1188.05040	0.04481
1186.76463	0.04463
1185.47886	0.04438
1184.19309	0.04411
1182.90732	0.04389
1181.62155	0.04375
1180.33578	0.04369
1179.05001	0.04368
1177.76425	0.04370
1176.47848	0.04372
1175.19271	0.04376
1173.90694	0.04384
1172.62117	0.04396
1171.33540	0.04410
1170.04963	0.04422
1168.76386	0.04431
1167.47809	0.04440
1166.19233	0.04452
1164.90656	0.04464
1163.62079	0.04475
1162.33502	0.04483
1161.04925	0.04491
1159.76348	0.04496
1158.47771	0.04500
1157.19194	0.04499
1155.90618	0.04496
1154.62041	0.04489
1153.33464	0.04481
1152.04887	0.04472
1150.76310	0.04461
1149.47733	0.04447
1148.19156	0.04430
1146.90579	0.04414
1145.62002	0.04400
1144.33426	0.04385
1143.04849	0.04370
1141.76272	0.04354
1140.47695	0.04341
1139.19118	0.04333
1137.90541	0.04333
1136.61964	0.04338
1135.33387	0.04346
1134.04811	0.04357
1132.76234	0.04374
1131.47657	0.04400
1130.19080	0.04434
1128.90503	0.04473
1127.61926	0.04511
1126.33349	0.04550
1125.04772	0.04592
1123.76195	0.04638
1122.47619	0.04684
1121.19042	0.04727
1119.90465	0.04771
1118.61888	0.04820
1117.33311	0.04876
1116.04734	0.04934
1114.76157	0.04990
1113.47580	0.05044
1112.19004	0.05103
1110.90427	0.05168
1109.61850	0.05237
1108.33273	0.05304
1107.04696	0.05368
1105.76119	0.05431
1104.47542	0.05488
1103.18965	0.05535
1101.90388	0.05574
1100.61812	0.05609
1099.33235	0.05646
1098.04658	0.05684
1096.76081	0.05715
1095.47504	0.05739
1094.18927	0.05761
1092.90350	0.05785
1091.61773	0.05808
1090.33197	0.05822
1089.04620	0.05827
1087.76043	0.05834
1086.47466	0.05854
1085.18889	0.05894
1083.90312	0.05947
1082.61735	0.06005
1081.33158	0.06059
1080.04581	0.06105
1078.76005	0.06145
1077.47428	0.06181
1076.18851	0.06218
1074.90274	0.06254
1073.61697	0.06286
1072.33120	0.06313
1071.04543	0.06337
1069.75966	0.06363
1068.47390	0.06394
1067.18813	0.06426
1065.90236	0.06457
1064.61659	0.06485
1063.33082	0.06510
1062.04505	0.06536
1060.75928	0.06565
1059.47351	0.06593
1058.18774	0.06616
1056.90198	0.06635
1055.61621	0.06657
1054.33044	0.06687
1053.04467	0.06722
1051.75890	0.06752
1050.47313	0.06774
1049.18736	0.06794
1047.90159	0.06822
1046.61583	0.06862
1045.33006	0.06908
1044.04429	0.06951
1042.75852	0.06988
1041.47275	0.07022
1040.18698	0.07059
1038.90121	0.07100
1037.61544	0.07147
1036.32967	0.07197
1035.04391	0.07246
1033.75814	0.07288
1032.47237	0.07321
1031.18660	0.07340
1029.90083	0.07342
1028.61506	0.07322
1027.32929	0.07281
1026.04352	0.07228
1024.75775	0.07171
1023.47199	0.07107
1022.18622	0.07029
1020.90045	0.06932
1019.61468	0.06820
1018.32891	0.06702
1017.04314	0.06585
1015.75737	0.06471
1014.47160	0.06363
1013.18584	0.06263
1011.90007	0.06167
1010.61430	0.06069
1009.32853	0.05967
1008.04276	0.05864
1006.75699	0.05768
1005.47122	0.05682
1004.18545	0.05608
1002.89968	0.05541
1001.61392	0.05475
1000.32815	0.05409
999.04238	0.05343
997.75661	0.05277
996.47084	0.05213
995.18507	0.05148
993.89930	0.05085
992.61353	0.05027
991.32777	0.04979
990.04200	0.04940
988.75623	0.04903
987.47046	0.04862
986.18469	0.04816
984.89892	0.04768
983.61315	0.04724
982.32738	0.04685
981.04161	0.04650
979.75585	0.04619
978.47008	0.04595
977.18431	0.04581
975.89854	0.04574
974.61277	0.04566
973.32700	0.04551
972.04123	0.04532
970.75546	0.04517
969.46970	0.04512
968.18393	0.04519
966.89816	0.04531
965.61239	0.04540
964.32662	0.04535
963.04085	0.04512
961.75508	0.04478
960.46931	0.04442
959.18354	0.04411
957.89778	0.04380
956.61201	0.04345
955.32624	0.04307
954.04047	0.04271
952.75470	0.04238
951.46893	0.04205
950.18316	0.04166
948.89739	0.04126
947.61163	0.04092
946.32586	0.04074
945.04009	0.04064
943.75432	0.04049
942.46855	0.04025
941.18278	0.03999
939.89701	0.03977
938.61124	0.03960
937.32547	0.03938
936.03971	0.03910
934.75394	0.03879
933.46817	0.03849
932.18240	0.03820
930.89663	0.03790
929.61086	0.03759
928.32509	0.03728
927.03932	0.03698
925.75356	0.03668
924.46779	0.03640
923.18202	0.03618
921.89625	0.03606
920.61048	0.03602
919.32471	0.03597
918.03894	0.03578
916.75317	0.03544
915.46740	0.03503
914.18164	0.03469
912.89587	0.03445
911.61010	0.03427
910.32433	0.03410
909.03856	0.03393
907.75279	0.03375
906.46702	0.03354
905.18125	0.03328
903.89549	0.03297
902.60972	0.03264
901.32395	0.03237
900.03818	0.03223
898.75241	0.03220
897.46664	0.03222
896.18087	0.03219
894.89510	0.03211
893.60933	0.03204
892.32357	0.03200
891.03780	0.03199
889.75203	0.03193
888.46626	0.03179
887.18049	0.03165
885.89472	0.03157
884.60895	0.03158
883.32318	0.03161
882.03742	0.03161
880.75165	0.03161
879.46588	0.03165
878.18011	0.03175
876.89434	0.03185
875.60857	0.03190
874.32280	0.03184
873.03703	0.03170
871.75126	0.03152
870.46550	0.03137
869.17973	0.03127
867.89396	0.03121
866.60819	0.03112
865.32242	0.03104
864.03665	0.03103
862.75088	0.03108
861.46511	0.03108
860.17935	0.03091
858.89358	0.03060
857.60781	0.03029
856.32204	0.03010
855.03627	0.03003
853.75050	0.03003
852.46473	0.03002
851.17896	0.03000
849.89319	0.02995
848.60743	0.02985
847.32166	0.02972
846.03589	0.02955
844.75012	0.02936
843.46435	0.02919
842.17858	0.02907
840.89281	0.02900
839.60704	0.02897
838.32128	0.02894
837.03551	0.02887
835.74974	0.02878
834.46397	0.02872
833.17820	0.02868
831.89243	0.02867
830.60666	0.02867
829.32089	0.02865
828.03512	0.02859
826.74936	0.02847
825.46359	0.02834
824.17782	0.02826
822.89205	0.02819
821.60628	0.02813
820.32051	0.02813
819.03474	0.02821
817.74897	0.02831
816.46321	0.02838
815.17744	0.02840
813.89167	0.02845
812.60590	0.02856
811.32013	0.02868
810.03436	0.02874
808.74859	0.02871
807.46282	0.02867
806.17705	0.02868
804.89129	0.02877
803.60552	0.02892
802.31975	0.02904
801.03398	0.02908
799.74821	0.02901
798.46244	0.02886
797.17667	0.02872
795.89090	0.02869
794.60513	0.02875
793.31937	0.02885
792.03360	0.02892
790.74783	0.02896
789.46206	0.02899
788.17629	0.02906
786.89052	0.02917
785.60475	0.02931
784.31898	0.02945
783.03322	0.02953
781.74745	0.02955
780.46168	0.02953
779.17591	0.02948
777.89014	0.02944
776.60437	0.02942
775.31860	0.02940
774.03283	0.02940
772.74706	0.02943
771.46130	0.02954
770.17553	0.02976
768.88976	0.03004
767.60399	0.03031
766.31822	0.03048
765.03245	0.03053
763.74668	0.03050
762.46091	0.03048
761.17515	0.03054
759.88938	0.03064
758.60361	0.03071
757.31784	0.03076
756.03207	0.03081
754.74630	0.03092
753.46053	0.03108
752.17476	0.03126
750.88899	0.03141
749.60323	0.03148
748.31746	0.03147
747.03169	0.03144
745.74592	0.03144
744.46015	0.03147
743.17438	0.03150
741.88861	0.03156
740.60284	0.03165
739.31708	0.03173
738.03131	0.03174
736.74554	0.03173
735.45977	0.03175
734.17400	0.03180
732.88823	0.03182
731.60246	0.03181
730.31669	0.03184
729.03092	0.03200
727.74516	0.03230
726.45939	0.03266
725.17362	0.03295
723.88785	0.03307
722.60208	0.03316
721.31631	0.03325
720.03054	0.03335
718.74477	0.03344
717.45901	0.03347
716.17324	0.03345
714.88747	0.03340
713.60170	0.03337
712.31593	0.03343
711.03016	0.03358
709.74439	0.03377
708.45862	0.03392
707.17285	0.03402
705.88709	0.03411
704.60132	0.03423
703.31555	0.03440
702.02978	0.03456
700.74401	0.03467
699.45824	0.03473
698.17247	0.03479
696.88670	0.03486
695.60094	0.03493
694.31517	0.03498
693.02940	0.03498
691.74363	0.03494
690.45786	0.03490
689.17209	0.03488
687.88632	0.03490
686.60055	0.03496
685.31478	0.03503
684.02902	0.03508
682.74325	0.03510
681.45748	0.03510
680.17171	0.03511
678.88594	0.03513
677.60017	0.03521
676.31440	0.03532
675.02863	0.03544
673.74287	0.03555
672.45710	0.03561
671.17133	0.03564
669.88556	0.03565
668.59979	0.03566
667.31402	0.03570
666.02825	0.03579
664.74248	0.03592
663.45671	0.03605
662.17095	0.03616
660.88518	0.03624
659.59941	0.03629
658.31364	0.03632
657.02787	0.03633
655.74210	0.03634
654.45633	0.03635
653.17056	0.03637
651.88480	0.03640
650.59903	0.03642
649.31326	0.03646
648.02749	0.03650
646.74172	0.03653
645.45595	0.03652
644.17018	0.03648
642.88441	0.03641
641.59864	0.03633
640.31288	0.03623
639.02711	0.03611
637.74134	0.03598
636.45557	0.03587
635.16980	0.03581
633.88403	0.03582
632.59826	0.03589
631.31249	0.03590
630.02673	0.03548
628.74096	0.03473
627.45519	0.03482
626.16942	0.03366
624.88365	0.03177
623.59788	0.03021
622.31211	0.02931
621.02634	0.02888
619.74057	0.02868
618.45481	0.02882
617.16904	0.02980
615.88327	0.03214
614.59750	0.03569
613.31173	0.03943
612.02596	0.04209
610.74019	0.04311
609.45442	0.04294
608.16866	0.04234
606.88289	0.04169
605.59712	0.04110
604.31135	0.04082
603.02558	0.04114
601.73981	0.04195
600.45404	0.04272
599.16827	0.04294
597.88250	0.04254
596.59674	0.04187
595.31097	0.04134
594.02520	0.04118
592.73943	0.04131
591.45366	0.04152
590.16789	0.04163
588.88212	0.04160
587.59635	0.04152
586.31059	0.04150
585.02482	0.04161
583.73905	0.04185
582.45328	0.04219
581.16751	0.04261
579.88174	0.04308
578.59597	0.04352
577.31020	0.04389
576.02443	0.04422
574.73867	0.04452
573.45290	0.04477
572.16713	0.04498
570.88136	0.04518
569.59559	0.04544
568.30982	0.04580
567.02405	0.04621
565.73828	0.04663
564.45251	0.04703
563.16675	0.04731
561.88098	0.04740
560.59521	0.04724
559.30944	0.04687
558.02367	0.04636
556.73790	0.04585
555.45213	0.04543
554.16636	0.04513
552.88060	0.04494
551.59483	0.04483
550.30906	0.04479
549.02329	0.04480
547.73752	0.04479
546.45175	0.04469
545.16598	0.04449
543.88021	0.04423
542.59444	0.04399
541.30868	0.04383
540.02291	0.04377
538.73714	0.04378
537.45137	0.04379
536.16560	0.04374
534.87983	0.04364
533.59406	0.04354
532.30829	0.04349
531.02253	0.04345
529.73676	0.04340
528.45099	0.04336
527.16522	0.04334
525.87945	0.04331
524.59368	0.04323
523.30791	0.04310
522.02214	0.04292
520.73637	0.04272
519.45061	0.04252
518.16484	0.04237
516.87907	0.04227
515.59330	0.04222
514.30753	0.04219
513.02176	0.04215
511.73599	0.04209
510.45022	0.04203
509.16446	0.04197
507.87869	0.04188
506.59292	0.04171
505.30715	0.04141
504.02138	0.04100
502.73561	0.04052
501.44984	0.04008
500.16407	0.03978
498.87830	0.03962
497.59254	0.03954
496.30677	0.03947
495.02100	0.03938
493.73523	0.03924
492.44946	0.03904
491.16369	0.03879
489.87792	0.03855
488.59215	0.03837
487.30639	0.03826
486.02062	0.03814
484.73485	0.03799
483.44908	0.03784
482.16331	0.03769
480.87754	0.03753
479.59177	0.03737
478.30600	0.03722
477.02023	0.03708
475.73447	0.03698
474.44870	0.03689
473.16293	0.03679
471.87716	0.03666
470.59139	0.03648
469.30562	0.03628
468.01985	0.03609
466.73408	0.03594
465.44832	0.03579
464.16255	0.03560
462.87678	0.03535
461.59101	0.03507
460.30524	0.03481
459.01947	0.03464
457.73370	0.03455
456.44793	0.03452
455.16216	0.03449
453.87640	0.03439
452.59063	0.03417
451.30486	0.03381
450.01909	0.03338
448.73332	0.03299
447.44755	0.03273
446.16178	0.03263
444.87601	0.03262
443.59025	0.03263
442.30448	0.03259
441.01871	0.03249
439.73294	0.03236
438.44717	0.03220
437.16140	0.03205
435.87563	0.03193
434.58986	0.03183
433.30409	0.03174
432.01833	0.03160
430.73256	0.03143
429.44679	0.03127
428.16102	0.03118
426.87525	0.03112
425.58948	0.03102
424.30371	0.03084
423.01794	0.03060
421.73218	0.03038
420.44641	0.03021
419.16064	0.03010
417.87487	0.02999
416.58910	0.02987
415.30333	0.02973
414.01756	0.02960
412.73179	0.02946
411.44602	0.02932
410.16026	0.02918
408.87449	0.02906
407.58872	0.02896
406.30295	0.02885
405.01718	0.02871
403.73141	0.02857
402.44564	0.02846
401.15987	0.02839
399.87411	0.02835
