3997.45528	0.00845
3996.16951	0.00773
3994.88374	0.00716
3993.59798	0.00704
3992.31221	0.00743
3991.02644	0.00808
3989.74067	0.00868
3988.45490	0.00907
3987.16913	0.00931
3985.88336	0.00946
3984.59759	0.00951
3983.31183	0.00949
3982.02606	0.00940
3980.74029	0.00927
3979.45452	0.00912
3978.16875	0.00892
3976.88298	0.00863
3975.59721	0.00827
3974.31144	0.00797
3973.02567	0.00795
3971.73991	0.00835
3970.45414	0.00908
3969.16837	0.00982
3967.88260	0.01026
3966.59683	0.01020
3965.31106	0.00967
3964.02529	0.00883
3962.73952	0.00792
3961.45376	0.00725
3960.16799	0.00700
3958.88222	0.00721
3957.59645	0.00770
3956.31068	0.00815
3955.02491	0.00821
3953.73914	0.00777
3952.45337	0.00712
3951.16760	0.00680
3949.88184	0.00709
3948.59607	0.00778
3947.31030	0.00842
3946.02453	0.00874
3944.73876	0.00884
3943.45299	0.00897
3942.16722	0.00925
3940.88145	0.00963
3939.59569	0.00998
3938.30992	0.01018
3937.02415	0.01002
3935.73838	0.00937
3934.45261	0.00840
3933.16684	0.00761
3931.88107	0.00737
3930.59530	0.00773
3929.30953	0.00845
3928.02377	0.00919
3926.73800	0.00962
3925.45223	0.00958
3924.16646	0.00924
3922.88069	0.00893
3921.59492	0.00880
3920.30915	0.00873
3919.02338	0.00856
3917.73762	0.00831
3916.45185	0.00811
3915.16608	0.00808
3913.88031	0.00828
3912.59454	0.00867
3911.30877	0.00914
3910.02300	0.00952
3908.73723	0.00960
3907.45146	0.00937
3906.16570	0.00904
3904.87993	0.00885
3903.59416	0.00884
3902.30839	0.00881
3901.02262	0.00856
3899.73685	0.00825
3898.45108	0.00815
3897.16531	0.00834
3895.87955	0.00855
3894.59378	0.00845
3893.30801	0.00808
3892.02224	0.00773
3890.73647	0.00762
3889.45070	0.00774
3888.16493	0.00795
3886.87916	0.00812
3885.59339	0.00811
3884.30763	0.00794
3883.02186	0.00774
3881.73609	0.00772
3880.45032	0.00794
3879.16455	0.00829
3877.87878	0.00866
3876.59301	0.00904
3875.30724	0.00938
3874.02148	0.00955
3872.73571	0.00947
3871.44994	0.00928
3870.16417	0.00925
3868.87840	0.00940
3867.59263	0.00954
3866.30686	0.00946
3865.02109	0.00925
3863.73532	0.00912
3862.44956	0.00921
3861.16379	0.00946
3859.87802	0.00967
3858.59225	0.00972
3857.30648	0.00960
3856.02071	0.00942
3854.73494	0.00929
3853.44917	0.00920
3852.16341	0.00907
3850.87764	0.00889
3849.59187	0.00869
3848.30610	0.00857
3847.02033	0.00860
3845.73456	0.00875
3844.44879	0.00891
3843.16302	0.00899
3841.87725	0.00896
3840.59149	0.00881
3839.30572	0.00862
3838.01995	0.00850
3836.73418	0.00858
3835.44841	0.00887
3834.16264	0.00922
3832.87687	0.00945
3831.59110	0.00941
3830.30534	0.00910
3829.01957	0.00872
3827.73380	0.00855
3826.44803	0.00870
3825.16226	0.00907
3823.87649	0.00938
3822.59072	0.00945
3821.30495	0.00928
3820.01918	0.00904
3818.73342	0.00892
3817.44765	0.00902
3816.16188	0.00930
3814.87611	0.00961
3813.59034	0.00976
3812.30457	0.00968
3811.01880	0.00932
3809.73303	0.00876
3808.44726	0.00812
3807.16150	0.00755
3805.87573	0.00719
3804.58996	0.00713
3803.30419	0.00733
3802.01842	0.00766
3800.73265	0.00796
3799.44688	0.00820
3798.16111	0.00848
3796.87535	0.00893
3795.58958	0.00950
3794.30381	0.00994
3793.01804	0.01008
3791.73227	0.01002
3790.44650	0.00998
3789.16073	0.01007
3787.87496	0.01021
3786.58919	0.01018
3785.30343	0.00981
3784.01766	0.00915
3782.73189	0.00850
3781.44612	0.00824
3780.16035	0.00838
3778.87458	0.00857
3777.58881	0.00848
3776.30304	0.00818
3775.01728	0.00792
3773.73151	0.00783
3772.44574	0.00779
3771.15997	0.00771
3769.87420	0.00767
3768.58843	0.00776
3767.30266	0.00796
3766.01689	0.00815
3764.73112	0.00826
3763.44536	0.00835
3762.15959	0.00848
3760.87382	0.00853
3759.58805	0.00835
3758.30228	0.00792
3757.01651	0.00739
3755.73074	0.00696
3754.44497	0.00686
3753.15921	0.00721
3751.87344	0.00796
3750.58767	0.00877
3749.30190	0.00922
3748.01613	0.00913
3746.73036	0.00863
3745.44459	0.00800
3744.15882	0.00740
3742.87305	0.00689
3741.58729	0.00658
3740.30152	0.00658
3739.01575	0.00687
3737.72998	0.00721
3736.44421	0.00739
3735.15844	0.00744
3733.87267	0.00761
3732.58690	0.00816
3731.30114	0.00901
3730.01537	0.00974
3728.72960	0.00990
3727.44383	0.00938
3726.15806	0.00860
3724.87229	0.00806
3723.58652	0.00793
3722.30075	0.00792
3721.01498	0.00771
3719.72922	0.00732
3718.44345	0.00705
3717.15768	0.00705
3715.87191	0.00721
3714.58614	0.00740
3713.30037	0.00770
3712.01460	0.00825
3710.72883	0.00891
3709.44307	0.00929
3708.15730	0.00906
3706.87153	0.00833
3705.58576	0.00751
3704.29999	0.00700
3703.01422	0.00698
3701.72845	0.00742
3700.44268	0.00808
3699.15691	0.00857
3697.87115	0.00870
3696.58538	0.00855
3695.29961	0.00830
3694.01384	0.00803
3692.72807	0.00786
3691.44230	0.00780
3690.15653	0.00784
3688.87076	0.00790
3687.58500	0.00791
3686.29923	0.00791
3685.01346	0.00816
3683.72769	0.00873
3682.44192	0.00935
3681.15615	0.00969
3679.87038	0.00968
3678.58461	0.00943
3677.29884	0.00903
3676.01308	0.00844
3674.72731	0.00767
3673.44154	0.00693
3672.15577	0.00651
3670.87000	0.00655
3669.58423	0.00698
3668.29846	0.00748
3667.01269	0.00770
3665.72693	0.00751
3664.44116	0.00715
3663.15539	0.00690
3661.86962	0.00688
3660.58385	0.00710
3659.29808	0.00756
3658.01231	0.00824
3656.72654	0.00904
3655.44077	0.00975
3654.15501	0.01007
3652.86924	0.00976
3651.58347	0.00890
3650.29770	0.00791
3649.01193	0.00734
3647.72616	0.00746
3646.44039	0.00814
3645.15462	0.00900
3643.86886	0.00970
3642.58309	0.01012
3641.29732	0.01030
3640.01155	0.01022
3638.72578	0.00990
3637.44001	0.00953
3636.15424	0.00944
3634.86847	0.00976
3633.58270	0.01028
3632.29694	0.01076
3631.01117	0.01112
3629.72540	0.01144
3628.43963	0.01168
3627.15386	0.01180
3625.86809	0.01183
3624.58232	0.01193
3623.29655	0.01211
3622.01079	0.01225
3620.72502	0.01220
3619.43925	0.01198
3618.15348	0.01168
3616.86771	0.01138
3615.58194	0.01113
3614.29617	0.01096
3613.01040	0.01087
3611.72463	0.01078
3610.43887	0.01063
3609.15310	0.01047
3607.86733	0.01049
3606.58156	0.01077
3605.29579	0.01118
3604.01002	0.01145
3602.72425	0.01145
3601.43848	0.01141
3600.15272	0.01162
3598.86695	0.01218
3597.58118	0.01291
3596.29541	0.01356
3595.00964	0.01396
3593.72387	0.01405
3592.43810	0.01397
3591.15233	0.01391
3589.86656	0.01394
3588.58080	0.01404
3587.29503	0.01425
3586.00926	0.01461
3584.72349	0.01493
3583.43772	0.01497
3582.15195	0.01459
3580.86618	0.01400
3579.58041	0.01357
3578.29464	0.01351
3577.00888	0.01376
3575.72311	0.01412
3574.43734	0.01446
3573.15157	0.01472
3571.86580	0.01500
3570.58003	0.01543
3569.29426	0.01598
3568.00849	0.01650
3566.72273	0.01683
3565.43696	0.01692
3564.15119	0.01680
3562.86542	0.01657
3561.57965	0.01632
3560.29388	0.01613
3559.00811	0.01600
3557.72234	0.01584
3556.43657	0.01562
3555.15081	0.01544
3553.86504	0.01541
3552.57927	0.01552
3551.29350	0.01571
3550.00773	0.01598
3548.72196	0.01634
3547.43619	0.01675
3546.15042	0.01708
3544.86466	0.01721
3543.57889	0.01705
3542.29312	0.01661
3541.00735	0.01600
3539.72158	0.01554
3538.43581	0.01563
3537.15004	0.01639
3535.86427	0.01760
3534.57850	0.01880
3533.29274	0.01957
3532.00697	0.01977
3530.72120	0.01958
3529.43543	0.01933
3528.14966	0.01924
3526.86389	0.01929
3525.57812	0.01931
3524.29235	0.01923
3523.00659	0.01915
3521.72082	0.01924
3520.43505	0.01952
3519.14928	0.01990
3517.86351	0.02025
3516.57774	0.02050
3515.29197	0.02064
3514.00620	0.02073
3512.72043	0.02099
3511.43467	0.02156
3510.14890	0.02231
3508.86313	0.02283
3507.57736	0.02278
3506.29159	0.02223
3505.00582	0.02163
3503.72005	0.02138
3502.43428	0.02159
3501.14852	0.02207
3499.86275	0.02254
3498.57698	0.02285
3497.29121	0.02308
3496.00544	0.02333
3494.71967	0.02359
3493.43390	0.02365
3492.14813	0.02344
3490.86236	0.02311
3489.57660	0.02299
3488.29083	0.02318
3487.00506	0.02345
3485.71929	0.02348
3484.43352	0.02316
3483.14775	0.02269
3481.86198	0.02240
3480.57621	0.02247
3479.29045	0.02288
3478.00468	0.02348
3476.71891	0.02417
3475.43314	0.02484
3474.14737	0.02533
3472.86160	0.02543
3471.57583	0.02508
3470.29006	0.02458
3469.00429	0.02429
3467.71853	0.02434
3466.43276	0.02446
3465.14699	0.02445
3463.86122	0.02435
3462.57545	0.02438
3461.28968	0.02463
3460.00391	0.02493
3458.71814	0.02502
3457.43238	0.02481
3456.14661	0.02452
3454.86084	0.02443
3453.57507	0.02465
3452.28930	0.02498
3451.00353	0.02518
3449.71776	0.02523
3448.43199	0.02529
3447.14622	0.02543
3445.86046	0.02553
3444.57469	0.02547
3443.28892	0.02533
3442.00315	0.02533
3440.71738	0.02564
3439.43161	0.02624
3438.14584	0.02694
3436.86007	0.02750
3435.57431	0.02779
3434.28854	0.02782
3433.00277	0.02767
3431.71700	0.02743
3430.43123	0.02712
3429.14546	0.02686
3427.85969	0.02682
3426.57392	0.02714
3425.28815	0.02772
3424.00239	0.02826
3422.71662	0.02851
3421.43085	0.02846
3420.14508	0.02827
3418.85931	0.02808
3417.57354	0.02795
3416.28777	0.02790
3415.00200	0.02798
3413.71624	0.02816
3412.43047	0.02830
3411.14470	0.02826
3409.85893	0.02803
3408.57316	0.02776
3407.28739	0.02763
3406.00162	0.02775
3404.71585	0.02810
3403.43008	0.02865
3402.14432	0.02929
3400.85855	0.02986
3399.57278	0.03024
3398.28701	0.03043
3397.00124	0.03052
3395.71547	0.03058
3394.42970	0.03059
3393.14393	0.03057
3391.85817	0.03058
3390.57240	0.03068
3389.28663	0.03082
3388.00086	0.03094
3386.71509	0.03105
3385.42932	0.03115
3384.14355	0.03125
3382.85778	0.03125
3381.57201	0.03115
3380.28625	0.03113
3379.00048	0.03130
3377.71471	0.03160
3376.42894	0.03187
3375.14317	0.03200
3373.85740	0.03206
3372.57163	0.03217
3371.28586	0.03238
3370.00010	0.03263
3368.71433	0.03277
3367.42856	0.03272
3366.14279	0.03257
3364.85702	0.03255
3363.57125	0.03283
3362.28548	0.03337
3360.99971	0.03396
3359.71394	0.03444
3358.42818	0.03478
3357.14241	0.03501
3355.85664	0.03516
3354.57087	0.03528
3353.28510	0.03548
3351.99933	0.03579
3350.71356	0.03609
3349.42779	0.03622
3348.14202	0.03621
3346.85626	0.03620
3345.57049	0.03636
3344.28472	0.03667
3342.99895	0.03695
3341.71318	0.03709
3340.42741	0.03714
3339.14164	0.03723
3337.85587	0.03737
3336.57011	0.03750
3335.28434	0.03761
3333.99857	0.03775
3332.71280	0.03800
3331.42703	0.03833
3330.14126	0.03871
3328.85549	0.03906
3327.56972	0.03935
3326.28395	0.03952
3324.99819	0.03956
3323.71242	0.03954
3322.42665	0.03954
3321.14088	0.03956
3319.85511	0.03947
3318.56934	0.03921
3317.28357	0.03888
3315.99780	0.03871
3314.71204	0.03885
3313.42627	0.03918
3312.14050	0.03951
3310.85473	0.03980
3309.56896	0.04016
3308.28319	0.04067
3306.99742	0.04122
3305.71165	0.04159
3304.42588	0.04169
3303.14012	0.04166
3301.85435	0.04172
3300.56858	0.04194
3299.28281	0.04217
3297.99704	0.04224
3296.71127	0.04209
3295.42550	0.04178
3294.13973	0.04146
3292.85397	0.04125
3291.56820	0.04120
3290.28243	0.04131
3288.99666	0.04153
3287.71089	0.04185
3286.42512	0.04223
3285.13935	0.04258
3283.85358	0.04277
3282.56781	0.04277
3281.28205	0.04272
3279.99628	0.04274
3278.71051	0.04278
3277.42474	0.04272
3276.13897	0.04252
3274.85320	0.04220
3273.56743	0.04180
3272.28166	0.04136
3270.99590	0.04096
3269.71013	0.04070
3268.42436	0.04069
3267.13859	0.04084
3265.85282	0.04097
3264.56705	0.04096
3263.28128	0.04085
3261.99551	0.04077
3260.70974	0.04078
3259.42398	0.04085
3258.13821	0.04096
3256.85244	0.04109
3255.56667	0.04117
3254.28090	0.04107
3252.99513	0.04077
3251.70936	0.04043
3250.42359	0.04020
3249.13783	0.04009
3247.85206	0.03994
3246.56629	0.03967
3245.28052	0.03939
3243.99475	0.03930
3242.70898	0.03945
3241.42321	0.03973
3240.13744	0.03991
3238.85167	0.03980
3237.56591	0.03943
3236.28014	0.03903
3234.99437	0.03887
3233.70860	0.03897
3232.42283	0.03911
3231.13706	0.03903
3229.85129	0.03871
3228.56552	0.03834
3227.27976	0.03817
3225.99399	0.03824
3224.70822	0.03839
3223.42245	0.03842
3222.13668	0.03839
3220.85091	0.03848
3219.56514	0.03870
3218.27937	0.03882
3216.99360	0.03857
3215.70784	0.03799
3214.42207	0.03744
3213.13630	0.03725
3211.85053	0.03745
3210.56476	0.03778
3209.27899	0.03798
3207.99322	0.03792
3206.70745	0.03765
3205.42169	0.03728
3204.13592	0.03695
3202.85015	0.03676
3201.56438	0.03673
3200.27861	0.03689
3198.99284	0.03726
3197.70707	0.03774
3196.42130	0.03804
3195.13553	0.03792
3193.84977	0.03740
3192.56400	0.03683
3191.27823	0.03654
3189.99246	0.03664
3188.70669	0.03695
3187.42092	0.03719
3186.13515	0.03713
3184.84938	0.03679
3183.56362	0.03631
3182.27785	0.03592
3180.99208	0.03574
3179.70631	0.03576
3178.42054	0.03585
3177.13477	0.03584
3175.84900	0.03569
3174.56323	0.03544
3173.27746	0.03516
3171.99170	0.03494
3170.70593	0.03479
3169.42016	0.03470
3168.13439	0.03464
3166.84862	0.03469
3165.56285	0.03485
3164.27708	0.03501
3162.99131	0.03501
3161.70555	0.03480
3160.41978	0.03445
3159.13401	0.03415
3157.84824	0.03399
3156.56247	0.03395
3155.27670	0.03393
3153.99093	0.03384
3152.70516	0.03364
3151.41939	0.03335
3150.13363	0.03314
3148.84786	0.03317
3147.56209	0.03351
3146.27632	0.03395
3144.99055	0.03419
3143.70478	0.03412
3142.41901	0.03391
3141.13324	0.03377
3139.84748	0.03372
3138.56171	0.03363
3137.27594	0.03346
3135.99017	0.03324
3134.70440	0.03302
3133.41863	0.03284
3132.13286	0.03279
3130.84709	0.03293
3129.56132	0.03315
3128.27556	0.03328
3126.98979	0.03328
3125.70402	0.03319
3124.41825	0.03298
3123.13248	0.03258
3121.84671	0.03202
3120.56094	0.03150
3119.27517	0.03125
3117.98940	0.03132
3116.70364	0.03164
3115.41787	0.03201
3114.13210	0.03223
3112.84633	0.03214
3111.56056	0.03180
3110.27479	0.03145
3108.98902	0.03131
3107.70325	0.03147
3106.41749	0.03180
3105.13172	0.03208
3103.84595	0.03218
3102.56018	0.03208
3101.27441	0.03197
3099.98864	0.03201
3098.70287	0.03228
3097.41710	0.03262
3096.13133	0.03282
3094.84557	0.03278
3093.55980	0.03250
3092.27403	0.03214
3090.98826	0.03189
3089.70249	0.03191
3088.41672	0.03216
3087.13095	0.03243
3085.84518	0.03249
3084.55942	0.03233
3083.27365	0.03215
3081.98788	0.03216
3080.70211	0.03241
3079.41634	0.03278
3078.13057	0.03313
3076.84480	0.03334
3075.55903	0.03334
3074.27326	0.03319
3072.98750	0.03304
3071.70173	0.03300
3070.41596	0.03309
3069.13019	0.03317
3067.84442	0.03308
3066.55865	0.03281
3065.27288	0.03250
3063.98711	0.03232
3062.70135	0.03235
3061.41558	0.03255
3060.12981	0.03288
3058.84404	0.03325
3057.55827	0.03360
3056.27250	0.03382
3054.98673	0.03390
3053.70096	0.03384
3052.41519	0.03365
3051.12943	0.03330
3049.84366	0.03280
3048.55789	0.03227
3047.27212	0.03184
3045.98635	0.03159
3044.70058	0.03152
3043.41481	0.03153
3042.12904	0.03160
3040.84328	0.03172
3039.55751	0.03188
3038.27174	0.03198
3036.98597	0.03194
3035.70020	0.03179
3034.41443	0.03159
3033.12866	0.03138
3031.84289	0.03112
3030.55712	0.03080
3029.27136	0.03050
3027.98559	0.03033
3026.69982	0.03031
3025.41405	0.03036
3024.12828	0.03035
3022.84251	0.03033
3021.55674	0.03039
3020.27097	0.03060
3018.98521	0.03091
3017.69944	0.03116
3016.41367	0.03125
3015.12790	0.03114
3013.84213	0.03089
3012.55636	0.03061
3011.27059	0.03040
3009.98482	0.03027
3008.69905	0.03015
3007.41329	0.02998
3006.12752	0.02974
3004.84175	0.02952
3003.55598	0.02938
3002.27021	0.02930
3000.98444	0.02923
2999.69867	0.02920
2998.41290	0.02947
2997.12714	0.02990
2995.84137	0.03026
2994.55560	0.03036
2993.26983	0.03021
2991.98406	0.02995
2990.69829	0.02971
2989.41252	0.02958
2988.12675	0.02955
2986.84098	0.02963
2985.55522	0.02979
2984.26945	0.02997
2982.98368	0.03006
2981.69791	0.03009
2980.41214	0.03015
2979.12637	0.03035
2977.84060	0.03066
2976.55483	0.03101
2975.26907	0.03136
2973.98330	0.03165
2972.69753	0.03181
2971.41176	0.03179
2970.12599	0.03162
2968.84022	0.03143
2967.55445	0.03140
2966.26868	0.03168
2964.98291	0.03222
2963.69715	0.03282
2962.41138	0.03318
2961.12561	0.03315
2959.83984	0.03280
2958.55407	0.03240
2957.26830	0.03221
2955.98253	0.03228
2954.69676	0.03243
2953.41100	0.03252
2952.12523	0.03257
2950.83946	0.03265
2949.55369	0.03281
2948.26792	0.03299
2946.98215	0.03312
2945.69638	0.03316
2944.41061	0.03314
2943.12484	0.03314
2941.83908	0.03321
2940.55331	0.03329
2939.26754	0.03328
2937.98177	0.03318
2936.69600	0.03309
2935.41023	0.03309
2934.12446	0.03313
2932.83869	0.03318
2931.55293	0.03324
2930.26716	0.03333
2928.98139	0.03348
2927.69562	0.03362
2926.40985	0.03365
2925.12408	0.03349
2923.83831	0.03321
2922.55254	0.03299
2921.26677	0.03296
2919.98101	0.03309
2918.69524	0.03323
2917.40947	0.03325
2916.12370	0.03314
2914.83793	0.03295
2913.55216	0.03268
2912.26639	0.03235
2910.98062	0.03199
2909.69486	0.03166
2908.40909	0.03141
2907.12332	0.03120
2905.83755	0.03101
2904.55178	0.03087
2903.26601	0.03085
2901.98024	0.03095
2900.69447	0.03107
2899.40870	0.03111
2898.12294	0.03108
2896.83717	0.03100
2895.55140	0.03086
2894.26563	0.03062
2892.97986	0.03031
2891.69409	0.03008
2890.40832	0.03002
2889.12255	0.03011
2887.83678	0.03028
2886.55102	0.03050
2885.26525	0.03070
2883.97948	0.03076
2882.69371	0.03063
2881.40794	0.03040
2880.12217	0.03023
2878.83640	0.03025
2877.55063	0.03039
2876.26487	0.03052
2874.97910	0.03052
2873.69333	0.03041
2872.40756	0.03028
2871.12179	0.03020
2869.83602	0.03018
2868.55025	0.03017
2867.26448	0.03013
2865.97871	0.03003
2864.69295	0.02990
2863.40718	0.02986
2862.12141	0.02996
2860.83564	0.03009
2859.54987	0.03008
2858.26410	0.02988
2856.97833	0.02958
2855.69256	0.02931
2854.40680	0.02910
2853.12103	0.02896
2851.83526	0.02888
2850.54949	0.02885
2849.26372	0.02887
2847.97795	0.02891
2846.69218	0.02885
2845.40641	0.02866
2844.12064	0.02840
2842.83488	0.02817
2841.54911	0.02801
2840.26334	0.02789
2838.97757	0.02778
2837.69180	0.02770
2836.40603	0.02765
2835.12026	0.02764
2833.83449	0.02768
2832.54873	0.02769
2831.26296	0.02762
2829.97719	0.02748
2828.69142	0.02731
2827.40565	0.02716
2826.11988	0.02704
2824.83411	0.02693
2823.54834	0.02680
2822.26257	0.02668
2820.97681	0.02663
2819.69104	0.02668
2818.40527	0.02682
2817.11950	0.02696
2815.83373	0.02700
2814.54796	0.02686
2813.26219	0.02660
2811.97642	0.02644
2810.69066	0.02654
2809.40489	0.02682
2808.11912	0.02704
2806.83335	0.02700
2805.54758	0.02679
2804.26181	0.02663
2802.97604	0.02665
2801.69027	0.02680
2800.40450	0.02692
2799.11874	0.02687
2797.83297	0.02667
2796.54720	0.02639
2795.26143	0.02610
2793.97566	0.02588
2792.68989	0.02579
2791.40412	0.02584
2790.11835	0.02598
2788.83259	0.02616
2787.54682	0.02636
2786.26105	0.02655
2784.97528	0.02667
2783.68951	0.02671
2782.40374	0.02665
2781.11797	0.02653
2779.83220	0.02642
2778.54643	0.02637
2777.26067	0.02636
2775.97490	0.02633
2774.68913	0.02625
2773.40336	0.02615
2772.11759	0.02611
2770.83182	0.02613
2769.54605	0.02612
2768.26028	0.02603
2766.97452	0.02589
2765.68875	0.02580
2764.40298	0.02580
2763.11721	0.02579
2761.83144	0.02566
2760.54567	0.02540
2759.25990	0.02516
2757.97413	0.02508
2756.68836	0.02517
2755.40260	0.02533
2754.11683	0.02542
2752.83106	0.02546
2751.54529	0.02548
2750.25952	0.02551
2748.97375	0.02552
2747.68798	0.02547
2746.40221	0.02538
2745.11645	0.02527
2743.83068	0.02514
2742.54491	0.02491
2741.25914	0.02459
2739.97337	0.02425
2738.68760	0.02400
2737.40183	0.02390
2736.11606	0.02390
2734.83029	0.02393
2733.54453	0.02399
2732.25876	0.02407
2730.97299	0.02420
2729.68722	0.02435
2728.40145	0.02448
2727.11568	0.02450
2725.82991	0.02438
2724.54414	0.02419
2723.25838	0.02406
2721.97261	0.02411
2720.68684	0.02428
2719.40107	0.02441
2718.11530	0.02439
2716.82953	0.02421
2715.54376	0.02400
2714.25799	0.02386
2712.97222	0.02382
2711.68646	0.02381
2710.40069	0.02377
2709.11492	0.02365
2707.82915	0.02353
2706.54338	0.02347
2705.25761	0.02347
2703.97184	0.02347
2702.68607	0.02344
2701.40031	0.02342
2700.11454	0.02343
2698.82877	0.02346
2697.54300	0.02348
2696.25723	0.02348
2694.97146	0.02347
2693.68569	0.02345
2692.39992	0.02339
2691.11415	0.02330
2689.82839	0.02319
2688.54262	0.02310
2687.25685	0.02305
2685.97108	0.02301
2684.68531	0.02294
2683.39954	0.02281
2682.11377	0.02268
2680.82800	0.02263
2679.54224	0.02268
2678.25647	0.02274
2676.97070	0.02272
2675.68493	0.02258
2674.39916	0.02238
2673.11339	0.02221
2671.82762	0.02212
2670.54185	0.02216
2669.25608	0.02231
2667.97032	0.02249
2666.68455	0.02259
2665.39878	0.02260
2664.11301	0.02263
2662.82724	0.02280
2661.54147	0.02302
2660.25570	0.02315
2658.96993	0.02312
2657.68417	0.02302
2656.39840	0.02293
2655.11263	0.02283
2653.82686	0.02268
2652.54109	0.02251
2651.25532	0.02236
2649.96955	0.02221
2648.68378	0.02199
2647.39801	0.02171
2646.11225	0.02149
2644.82648	0.02143
2643.54071	0.02142
2642.25494	0.02133
2640.96917	0.02116
2639.68340	0.02100
2638.39763	0.02094
2637.11186	0.02099
2635.82609	0.02107
2634.54033	0.02103
2633.25456	0.02075
2631.96879	0.02031
2630.68302	0.01994
2629.39725	0.01979
2628.11148	0.01985
2626.82571	0.02005
2625.53994	0.02035
2624.25418	0.02065
2622.96841	0.02087
2621.68264	0.02093
2620.39687	0.02083
2619.11110	0.02062
2617.82533	0.02043
2616.53956	0.02037
2615.25379	0.02038
2613.96802	0.02023
2612.68226	0.01977
2611.39649	0.01914
2610.11072	0.01865
2608.82495	0.01843
2607.53918	0.01835
2606.25341	0.01830
2604.96764	0.01832
2603.68187	0.01853
2602.39611	0.01888
2601.11034	0.01918
2599.82457	0.01926
2598.53880	0.01908
2597.25303	0.01880
2595.96726	0.01859
2594.68149	0.01856
2593.39572	0.01861
2592.10995	0.01859
2590.82419	0.01845
2589.53842	0.01829
2588.25265	0.01818
2586.96688	0.01816
2585.68111	0.01823
2584.39534	0.01837
2583.10957	0.01849
2581.82380	0.01847
2580.53804	0.01834
2579.25227	0.01829
2577.96650	0.01847
2576.68073	0.01887
2575.39496	0.01935
2574.10919	0.01970
2572.82342	0.01974
2571.53765	0.01935
2570.25188	0.01869
2568.96612	0.01806
2567.68035	0.01773
2566.39458	0.01773
2565.10881	0.01789
2563.82304	0.01805
2562.53727	0.01814
2561.25150	0.01821
2559.96573	0.01827
2558.67997	0.01831
2557.39420	0.01831
2556.10843	0.01824
2554.82266	0.01810
2553.53689	0.01796
2552.25112	0.01790
2550.96535	0.01794
2549.67958	0.01803
2548.39381	0.01807
2547.10805	0.01797
2545.82228	0.01772
2544.53651	0.01734
2543.25074	0.01695
2541.96497	0.01668
2540.67920	0.01655
2539.39343	0.01655
2538.10766	0.01664
2536.82190	0.01683
2535.53613	0.01701
2534.25036	0.01710
2532.96459	0.01713
2531.67882	0.01725
2530.39305	0.01749
2529.10728	0.01762
2527.82151	0.01739
2526.53574	0.01684
2525.24998	0.01629
2523.96421	0.01602
2522.67844	0.01600
2521.39267	0.01605
2520.10690	0.01618
2518.82113	0.01650
2517.53536	0.01700
2516.24959	0.01747
2514.96383	0.01770
2513.67806	0.01767
2512.39229	0.01750
2511.10652	0.01721
2509.82075	0.01679
2508.53498	0.01626
2507.24921	0.01575
2505.96344	0.01544
2504.67767	0.01542
2503.39191	0.01567
2502.10614	0.01611
2500.82037	0.01657
2499.53460	0.01682
2498.24883	0.01675
2496.96306	0.01644
2495.67729	0.01617
2494.39152	0.01614
2493.10576	0.01635
2491.81999	0.01663
2490.53422	0.01671
2489.24845	0.01640
2487.96268	0.01575
2486.67691	0.01508
2485.39114	0.01475
2484.10537	0.01485
2482.81960	0.01523
2481.53384	0.01565
2480.24807	0.01592
2478.96230	0.01604
2477.67653	0.01611
2476.39076	0.01623
2475.10499	0.01642
2473.81922	0.01658
2472.53345	0.01664
2471.24769	0.01661
2469.96192	0.01651
2468.67615	0.01637
2467.39038	0.01622
2466.10461	0.01607
2464.81884	0.01592
2463.53307	0.01578
2462.24730	0.01562
2460.96153	0.01549
2459.67577	0.01544
2458.39000	0.01555
2457.10423	0.01581
2455.81846	0.01608
2454.53269	0.01621
2453.24692	0.01618
2451.96115	0.01608
2450.67538	0.01601
2449.38962	0.01600
2448.10385	0.01602
2446.81808	0.01599
2445.53231	0.01582
2444.24654	0.01547
2442.96077	0.01510
2441.67500	0.01499
2440.38923	0.01522
2439.10346	0.01557
2437.81770	0.01581
2436.53193	0.01592
2435.24616	0.01605
2433.96039	0.01619
2432.67462	0.01625
2431.38885	0.01623
2430.10308	0.01623
2428.81731	0.01628
2427.53155	0.01628
2426.24578	0.01619
2424.96001	0.01613
2423.67424	0.01622
2422.38847	0.01634
2421.10270	0.01632
2419.81693	0.01614
2418.53116	0.01594
2417.24539	0.01588
2415.95963	0.01591
2414.67386	0.01589
2413.38809	0.01574
2412.10232	0.01557
2410.81655	0.01548
2409.53078	0.01542
2408.24501	0.01523
2406.95924	0.01484
2405.67347	0.01447
2404.38771	0.01438
2403.10194	0.01463
2401.81617	0.01497
2400.53040	0.01514
2399.24463	0.01495
2397.95886	0.01486
2396.67309	0.01491
2395.38732	0.01501
2394.10156	0.01507
2392.81579	0.01513
2391.53002	0.01523
2390.24425	0.01540
2388.95848	0.01557
2387.67271	0.01563
2386.38694	0.01559
2385.10117	0.01553
2383.81540	0.01558
2382.52964	0.01575
2381.24387	0.01597
2379.95810	0.01617
2378.67233	0.01628
2377.38656	0.01632
2376.10079	0.01632
2374.81502	0.01632
2373.52925	0.01644
2372.24349	0.01668
2370.95772	0.01705
2369.67195	0.01726
2368.38618	0.01726
2367.10041	0.01718
2365.81464	0.01719
2364.52887	0.01716
2363.24310	0.01720
2361.95733	0.01744
2360.67157	0.01789
2359.38580	0.01810
2358.10003	0.01803
2356.81426	0.01776
2355.52849	0.01742
2354.24272	0.01713
2352.95695	0.01690
2351.67118	0.01695
2350.38542	0.01721
2349.09965	0.01733
2347.81388	0.01717
2346.52811	0.01728
2345.24234	0.01763
2343.95657	0.01775
2342.67080	0.01746
2341.38503	0.01755
2340.09926	0.01806
2338.81350	0.01789
2337.52773	0.01705
2336.24196	0.01689
2334.95619	0.01731
2333.67042	0.01701
2332.38465	0.01607
2331.09888	0.01605
2329.81311	0.01602
2328.52735	0.01491
2327.24158	0.01489
2325.95581	0.01567
2324.67004	0.01570
2323.38427	0.01610
2322.09850	0.01703
2320.81273	0.01712
2319.52696	0.01748
2318.24119	0.01791
2316.95543	0.01749
2315.66966	0.01712
2314.38389	0.01679
2313.09812	0.01624
2311.81235	0.01599
2310.52658	0.01560
2309.24081	0.01521
2307.95504	0.01507
2306.66928	0.01491
2305.38351	0.01486
2304.09774	0.01479
2302.81197	0.01465
2301.52620	0.01460
2300.24043	0.01450
2298.95466	0.01439
2297.66889	0.01424
2296.38312	0.01408
2295.09736	0.01389
2293.81159	0.01359
2292.52582	0.01334
2291.24005	0.01329
2289.95428	0.01356
2288.66851	0.01403
2287.38274	0.01450
2286.09697	0.01484
2284.81121	0.01500
2283.52544	0.01504
2282.23967	0.01505
2280.95390	0.01502
2279.66813	0.01480
2278.38236	0.01422
2277.09659	0.01332
2275.81082	0.01248
2274.52505	0.01206
2273.23929	0.01208
2271.95352	0.01230
2270.66775	0.01245
2269.38198	0.01239
2268.09621	0.01203
2266.81044	0.01151
2265.52467	0.01113
2264.23890	0.01107
2262.95314	0.01125
2261.66737	0.01146
2260.38160	0.01167
2259.09583	0.01206
2257.81006	0.01266
2256.52429	0.01318
2255.23852	0.01329
2253.95275	0.01297
2252.66698	0.01251
2251.38122	0.01225
2250.09545	0.01251
2248.80968	0.01322
2247.52391	0.01322
2246.23814	0.01283
2244.95237	0.01227
2243.66660	0.01187
2242.38083	0.01163
2241.09507	0.01129
2239.80930	0.01072
2238.52353	0.01017
2237.23776	0.00993
2235.95199	0.01002
2234.66622	0.01020
2233.38045	0.01022
2232.09468	0.01005
2230.80891	0.00984
2229.52315	0.00983
2228.23738	0.00996
2226.95161	0.00991
2225.66584	0.00950
2224.38007	0.00893
2223.09430	0.00853
2221.80853	0.00844
2220.52276	0.00858
2219.23700	0.00885
2217.95123	0.00925
2216.66546	0.00974
2215.37969	0.01011
2214.09392	0.01009
2212.80815	0.00962
2211.52238	0.00894
2210.23661	0.00844
2208.95084	0.00835
2207.66508	0.00867
2206.37931	0.00910
2205.09354	0.00929
2203.80777	0.00913
2202.52200	0.00884
2201.23623	0.00859
2199.95046	0.00842
2198.66469	0.00835
2197.37893	0.00853
2196.09316	0.00886
2194.80739	0.00898
2193.52162	0.00868
2192.23585	0.00824
2190.95008	0.00807
2189.66431	0.00819
2188.37854	0.00828
2187.09277	0.00825
2185.80701	0.00829
2184.52124	0.00850
2183.23547	0.00858
2181.94970	0.00826
2180.66393	0.00783
2179.37816	0.00775
2178.09239	0.00811
2176.80662	0.00854
2175.52085	0.00860
2174.23509	0.00812
2172.94932	0.00722
2171.66355	0.00628
2170.37778	0.00562
2169.09201	0.00533
2167.80624	0.00522
2166.52047	0.00515
2165.23470	0.00524
2163.94894	0.00568
2162.66317	0.00639
2161.37740	0.00702
2160.09163	0.00731
2158.80586	0.00731
2157.52009	0.00718
2156.23432	0.00694
2154.94855	0.00654
2153.66278	0.00622
2152.37702	0.00627
2151.09125	0.00675
2149.80548	0.00746
2148.51971	0.00826
2147.23394	0.00903
2145.94817	0.00957
2144.66240	0.00966
2143.37663	0.00924
2142.09087	0.00848
2140.80510	0.00766
2139.51933	0.00709
2138.23356	0.00698
2136.94779	0.00729
2135.66202	0.00778
2134.37625	0.00825
2133.09048	0.00874
2131.80471	0.00931
2130.51895	0.00989
2129.23318	0.01018
2127.94741	0.00997
2126.66164	0.00939
2125.37587	0.00887
2124.09010	0.00881
2122.80433	0.00926
2121.51856	0.00986
2120.23280	0.01016
2118.94703	0.01008
2117.66126	0.00989
2116.37549	0.00992
2115.08972	0.01020
2113.80395	0.01050
2112.51818	0.01058
2111.23241	0.01028
2109.94664	0.00964
2108.66088	0.00894
2107.37511	0.00861
2106.08934	0.00887
2104.80357	0.00951
2103.51780	0.01011
2102.23203	0.01036
2100.94626	0.01048
2099.66049	0.01469
2098.37473	0.01671
2097.08896	0.01647
2095.80319	0.01538
2094.51742	0.01381
2093.23165	0.01210
2091.94588	0.01070
2090.66011	0.00982
2089.37434	0.00933
2088.08857	0.00903
2086.80281	0.00886
2085.51704	0.00896
2084.23127	0.00942
2082.94550	0.01014
2081.65973	0.01092
2080.37396	0.01168
2079.08819	0.01254
2077.80242	0.01365
2076.51666	0.01484
2075.23089	0.01569
2073.94512	0.01586
2072.65935	0.01547
2071.37358	0.01505
2070.08781	0.01498
2068.80204	0.01512
2067.51627	0.01499
2066.23050	0.01430
2064.94474	0.01313
2063.65897	0.01185
2062.37320	0.01081
2061.08743	0.01006
2059.80166	0.00936
2058.51589	0.00846
2057.23012	0.00737
2055.94435	0.00633
2054.65859	0.00570
2053.37282	0.00591
2052.08705	0.00741
2050.80128	0.01005
2049.51551	0.01288
2048.22974	0.01465
2046.94397	0.01488
2045.65820	0.01416
2044.37243	0.01342
2043.08667	0.01312
2041.80090	0.01317
2040.51513	0.01333
2039.22936	0.01366
2037.94359	0.01437
2036.65782	0.01546
2035.37205	0.01648
2034.08628	0.01680
2032.80052	0.01611
2031.51475	0.01486
2030.22898	0.01384
2028.94321	0.01350
2027.65744	0.01348
2026.37167	0.01302
2025.08590	0.01185
2023.80013	0.01047
2022.51436	0.00965
2021.22860	0.00964
2019.94283	0.01003
2018.65706	0.01033
2017.37129	0.01044
2016.08552	0.01062
2014.79975	0.01119
2013.51398	0.01228
2012.22821	0.01374
2010.94245	0.01517
2009.65668	0.01614
2008.37091	0.01630
2007.08514	0.01555
2005.79937	0.01409
2004.51360	0.01240
2003.22783	0.01097
2001.94206	0.00996
2000.65629	0.00917
1999.37053	0.00842
1998.08476	0.00773
1996.79899	0.00726
1995.51322	0.00702
1994.22745	0.00686
1992.94168	0.00675
1991.65591	0.00672
1990.37014	0.00669
1989.08438	0.00652
1987.79861	0.00636
1986.51284	0.00664
1985.22707	0.00767
1983.94130	0.00945
1982.65553	0.01179
1981.36976	0.01457
1980.08399	0.01767
1978.79822	0.02064
1977.51246	0.02256
1976.22669	0.02271
1974.94092	0.02133
1973.65515	0.01957
1972.36938	0.01831
1971.08361	0.01737
1969.79784	0.01602
1968.51207	0.01405
1967.22631	0.01215
1965.94054	0.01116
1964.65477	0.01135
1963.36900	0.01225
1962.08323	0.01311
1960.79746	0.01331
1959.51169	0.01265
1958.22592	0.01132
1956.94015	0.00979
1955.65439	0.00863
1954.36862	0.00822
1953.08285	0.00862
1951.79708	0.00955
1950.51131	0.01060
1949.22554	0.01138
1947.93977	0.01173
1946.65400	0.01171
1945.36823	0.01153
1944.08247	0.01145
1942.79670	0.01160
1941.51093	0.01193
1940.22516	0.01236
1938.93939	0.01291
1937.65362	0.01364
1936.36785	0.01446
1935.08208	0.01502
1933.79632	0.01501
1932.51055	0.01445
1931.22478	0.01362
1929.93901	0.01278
1928.65324	0.01208
1927.36747	0.01157
1926.08170	0.01129
1924.79593	0.01120
1923.51016	0.01121
1922.22440	0.01126
1920.93863	0.01139
1919.65286	0.01167
1918.36709	0.01209
1917.08132	0.01251
1915.79555	0.01277
1914.50978	0.01282
1913.22401	0.01274
1911.93825	0.01273
1910.65248	0.01289
1909.36671	0.01312
1908.08094	0.01326
1906.79517	0.01326
1905.50940	0.01323
1904.22363	0.01325
1902.93786	0.01333
1901.65209	0.01339
1900.36633	0.01341
1899.08056	0.01335
1897.79479	0.01317
1896.50902	0.01292
1895.22325	0.01272
1893.93748	0.01266
1892.65171	0.01268
1891.36594	0.01266
1890.08018	0.01251
1888.79441	0.01229
1887.50864	0.01217
1886.22287	0.01221
1884.93710	0.01236
1883.65133	0.01249
1882.36556	0.01251
1881.07979	0.01241
1879.79402	0.01226
1878.50826	0.01214
1877.22249	0.01206
1875.93672	0.01200
1874.65095	0.01197
1873.36518	0.01198
1872.07941	0.01199
1870.79364	0.01189
1869.50787	0.01167
1868.22211	0.01148
1866.93634	0.01151
1865.65057	0.01179
1864.36480	0.01216
1863.07903	0.01241
1861.79326	0.01249
1860.50749	0.01244
1859.22172	0.01232
1857.93595	0.01216
1856.65019	0.01200
1855.36442	0.01187
1854.07865	0.01175
1852.79288	0.01160
1851.50711	0.01142
1850.22134	0.01122
1848.93557	0.01106
1847.64980	0.01097
1846.36404	0.01098
1845.07827	0.01099
1843.79250	0.01089
1842.50673	0.01064
1841.22096	0.01038
1839.93519	0.01031
1838.64942	0.01047
1837.36365	0.01073
1836.07788	0.01092
1834.79212	0.01099
1833.50635	0.01101
1832.22058	0.01108
1830.93481	0.01124
1829.64904	0.01145
1828.36327	0.01163
1827.07750	0.01181
1825.79173	0.01210
1824.50597	0.01259
1823.22020	0.01324
1821.93443	0.01391
1820.64866	0.01437
1819.36289	0.01436
1818.07712	0.01373
1816.79135	0.01258
1815.50558	0.01123
1814.21981	0.01005
1812.93405	0.00925
1811.64828	0.00886
1810.36251	0.00880
1809.07674	0.00896
1807.79097	0.00921
1806.50520	0.00946
1805.21943	0.00967
1803.93366	0.00983
1802.64790	0.00997
1801.36213	0.01012
1800.07636	0.01027
1798.79059	0.01038
1797.50482	0.01045
1796.21905	0.01048
1794.93328	0.01048
1793.64751	0.01045
1792.36174	0.01044
1791.07598	0.01048
1789.79021	0.01055
1788.50444	0.01066
1787.21867	0.01077
1785.93290	0.01085
1784.64713	0.01089
1783.36136	0.01086
1782.07559	0.01081
1780.78983	0.01079
1779.50406	0.01080
1778.21829	0.01079
1776.93252	0.01071
1775.64675	0.01050
1774.36098	0.01021
1773.07521	0.00989
1771.78944	0.00963
1770.50367	0.00947
1769.21791	0.00936
1767.93214	0.00929
1766.64637	0.00923
1765.36060	0.00918
1764.07483	0.00915
1762.78906	0.00912
1761.50329	0.00908
1760.21752	0.00905
1758.93176	0.00907
1757.64599	0.00916
1756.36022	0.00927
1755.07445	0.00934
1753.78868	0.00933
1752.50291	0.00927
1751.21714	0.00924
1749.93137	0.00928
1748.64560	0.00933
1747.35984	0.00936
1746.07407	0.00938
1744.78830	0.00942
1743.50253	0.00951
1742.21676	0.00963
1740.93099	0.00978
1739.64522	0.00994
1738.35945	0.01004
1737.07369	0.01006
1735.78792	0.01004
1734.50215	0.01004
1733.21638	0.01011
1731.93061	0.01018
1730.64484	0.01020
1729.35907	0.01014
1728.07330	0.01008
1726.78753	0.01010
1725.50177	0.01023
1724.21600	0.01040
1722.93023	0.01055
1721.64446	0.01064
1720.35869	0.01070
1719.07292	0.01073
1717.78715	0.01077
1716.50138	0.01084
1715.21561	0.01098
1713.92985	0.01120
1712.64408	0.01151
1711.35831	0.01190
1710.07254	0.01235
1708.78677	0.01285
1707.50100	0.01335
1706.21523	0.01380
1704.92946	0.01419
1703.64370	0.01456
1702.35793	0.01502
1701.07216	0.01565
1699.78639	0.01643
1698.50062	0.01726
1697.21485	0.01806
1695.92908	0.01882
1694.64331	0.01958
1693.35754	0.02033
1692.07178	0.02107
1690.78601	0.02179
1689.50024	0.02253
1688.21447	0.02332
1686.92870	0.02418
1685.64293	0.02507
1684.35716	0.02594
1683.07139	0.02678
1681.78563	0.02764
1680.49986	0.02858
1679.21409	0.02961
1677.92832	0.03067
1676.64255	0.03171
1675.35678	0.03269
1674.07101	0.03364
1672.78524	0.03459
1671.49947	0.03555
1670.21371	0.03654
1668.92794	0.03758
1667.64217	0.03864
1666.35640	0.03968
1665.07063	0.04067
1663.78486	0.04162
1662.49909	0.04256
1661.21332	0.04345
1659.92756	0.04422
1658.64179	0.04487
1657.35602	0.04544
1656.07025	0.04601
1654.78448	0.04663
1653.49871	0.04725
1652.21294	0.04786
1650.92717	0.04842
1649.64140	0.04894
1648.35564	0.04945
1647.06987	0.04996
1645.78410	0.05043
1644.49833	0.05081
1643.21256	0.05108
1641.92679	0.05124
1640.64102	0.05137
1639.35525	0.05154
1638.06949	0.05175
1636.78372	0.05194
1635.49795	0.05208
1634.21218	0.05217
1632.92641	0.05225
1631.64064	0.05231
1630.35487	0.05231
1629.06910	0.05221
1627.78333	0.05197
1626.49757	0.05158
1625.21180	0.05106
1623.92603	0.05045
1622.64026	0.04977
1621.35449	0.04903
1620.06872	0.04820
1618.78295	0.04728
1617.49718	0.04631
1616.21142	0.04535
1614.92565	0.04446
1613.63988	0.04361
1612.35411	0.04278
1611.06834	0.04194
1609.78257	0.04108
1608.49680	0.04018
1607.21103	0.03925
1605.92526	0.03835
1604.63950	0.03752
1603.35373	0.03676
1602.06796	0.03605
1600.78219	0.03538
1599.49642	0.03473
1598.21065	0.03410
1596.92488	0.03347
1595.63911	0.03288
1594.35335	0.03237
1593.06758	0.03195
1591.78181	0.03159
1590.49604	0.03129
1589.21027	0.03103
1587.92450	0.03083
1586.63873	0.03069
1585.35296	0.03057
1584.06719	0.03048
1582.78143	0.03040
1581.49566	0.03038
1580.20989	0.03041
1578.92412	0.03046
1577.63835	0.03052
1576.35258	0.03061
1575.06681	0.03077
1573.78104	0.03103
1572.49528	0.03139
1571.20951	0.03183
1569.92374	0.03233
1568.63797	0.03284
1567.35220	0.03334
1566.06643	0.03382
1564.78066	0.03428
1563.49489	0.03472
1562.20912	0.03516
1560.92336	0.03563
1559.63759	0.03615
1558.35182	0.03674
1557.06605	0.03736
1555.78028	0.03798
1554.49451	0.03859
1553.20874	0.03921
1551.92297	0.03985
1550.63721	0.04051
1549.35144	0.04112
1548.06567	0.04166
1546.77990	0.04211
1545.49413	0.04250
1544.20836	0.04284
1542.92259	0.04313
1541.63682	0.04338
1540.35105	0.04356
1539.06529	0.04369
1537.77952	0.04381
1536.49375	0.04395
1535.20798	0.04411
1533.92221	0.04428
1532.63644	0.04442
1531.35067	0.04454
1530.06490	0.04463
1528.77914	0.04469
1527.49337	0.04471
1526.20760	0.04469
1524.92183	0.04465
1523.63606	0.04458
1522.35029	0.04449
1521.06452	0.04443
1519.77875	0.04439
1518.49298	0.04434
1517.20722	0.04424
1515.92145	0.04408
1514.63568	0.04385
1513.34991	0.04359
1512.06414	0.04328
1510.77837	0.04292
1509.49260	0.04246
1508.20683	0.04190
1506.92107	0.04128
1505.63530	0.04065
1504.34953	0.04005
1503.06376	0.03947
1501.77799	0.03888
1500.49222	0.03828
1499.20645	0.03763
1497.92068	0.03693
1496.63491	0.03620
1495.34915	0.03549
1494.06338	0.03481
1492.77761	0.03418
1491.49184	0.03357
1490.20607	0.03298
1488.92030	0.03237
1487.63453	0.03173
1486.34876	0.03108
1485.06299	0.03049
1483.77723	0.03000
1482.49146	0.02961
1481.20569	0.02931
1479.91992	0.02909
1478.63415	0.02898
1477.34838	0.02896
1476.06261	0.02898
1474.77684	0.02900
1473.49108	0.02902
1472.20531	0.02907
1470.91954	0.02917
1469.63377	0.02935
1468.34800	0.02959
1467.06223	0.02987
1465.77646	0.03014
1464.49069	0.03044
1463.20492	0.03078
1461.91916	0.03117
1460.63339	0.03159
1459.34762	0.03202
1458.06185	0.03247
1456.77608	0.03295
1455.49031	0.03344
1454.20454	0.03387
1452.91877	0.03418
1451.63301	0.03434
1450.34724	0.03440
1449.06147	0.03440
1447.77570	0.03439
1446.48993	0.03434
1445.20416	0.03423
1443.91839	0.03404
1442.63262	0.03381
1441.34685	0.03356
1440.06109	0.03332
1438.77532	0.03307
1437.48955	0.03280
1436.20378	0.03250
1434.91801	0.03216
1433.63224	0.03179
1432.34647	0.03139
1431.06070	0.03102
1429.77494	0.03072
1428.48917	0.03050
1427.20340	0.03035
1425.91763	0.03020
1424.63186	0.03003
1423.34609	0.02988
1422.06032	0.02976
1420.77455	0.02972
1419.48878	0.02973
1418.20302	0.02976
1416.91725	0.02980
1415.63148	0.02987
1414.34571	0.02994
1413.05994	0.02997
1411.77417	0.02997
1410.48840	0.02994
1409.20263	0.02993
1407.91687	0.02994
1406.63110	0.02997
1405.34533	0.03002
1404.05956	0.03007
1402.77379	0.03012
1401.48802	0.03014
1400.20225	0.03012
1398.91648	0.03008
1397.63071	0.03005
1396.34495	0.03002
1395.05918	0.02999
1393.77341	0.02993
1392.48764	0.02986
1391.20187	0.02981
1389.91610	0.02982
1388.63033	0.02988
1387.34456	0.02997
1386.05880	0.03002
1384.77303	0.02999
1383.48726	0.02990
1382.20149	0.02979
1380.91572	0.02968
1379.62995	0.02958
1378.34418	0.02947
1377.05841	0.02935
1375.77264	0.02923
1374.48688	0.02910
1373.20111	0.02895
1371.91534	0.02873
1370.62957	0.02848
1369.34380	0.02822
1368.05803	0.02798
1366.77226	0.02776
1365.48649	0.02753
1364.20073	0.02731
1362.91496	0.02712
1361.62919	0.02695
1360.34342	0.02679
1359.05765	0.02662
1357.77188	0.02643
1356.48611	0.02625
1355.20034	0.02610
1353.91457	0.02599
1352.62881	0.02594
1351.34304	0.02592
1350.05727	0.02593
1348.77150	0.02595
1347.48573	0.02600
1346.19996	0.02609
1344.91419	0.02622
1343.62842	0.02638
1342.34266	0.02652
1341.05689	0.02664
1339.77112	0.02674
1338.48535	0.02682
1337.19958	0.02689
1335.91381	0.02694
1334.62804	0.02699
1333.34227	0.02701
1332.05650	0.02698
1330.77074	0.02689
1329.48497	0.02675
1328.19920	0.02660
1326.91343	0.02645
1325.62766	0.02630
1324.34189	0.02616
1323.05612	0.02601
1321.77035	0.02587
1320.48459	0.02577
1319.19882	0.02575
1317.91305	0.02578
1316.62728	0.02583
1315.34151	0.02585
1314.05574	0.02584
1312.76997	0.02580
1311.48420	0.02573
1310.19843	0.02567
1308.91267	0.02562
1307.62690	0.02559
1306.34113	0.02557
1305.05536	0.02555
1303.76959	0.02550
1302.48382	0.02544
1301.19805	0.02535
1299.91228	0.02525
1298.62652	0.02517
1297.34075	0.02514
1296.05498	0.02517
1294.76921	0.02524
1293.48344	0.02531
1292.19767	0.02533
1290.91190	0.02532
1289.62613	0.02528
1288.34036	0.02525
1287.05460	0.02527
1285.76883	0.02536
1284.48306	0.02549
1283.19729	0.02563
1281.91152	0.02575
1280.62575	0.02582
1279.33998	0.02583
1278.05421	0.02583
1276.76845	0.02582
1275.48268	0.02581
1274.19691	0.02580
1272.91114	0.02582
1271.62537	0.02587
1270.33960	0.02595
1269.05383	0.02606
1267.76806	0.02621
1266.48229	0.02642
1265.19653	0.02668
1263.91076	0.02693
1262.62499	0.02712
1261.33922	0.02724
1260.05345	0.02732
1258.76768	0.02741
1257.48191	0.02752
1256.19614	0.02768
1254.91037	0.02786
1253.62461	0.02806
1252.33884	0.02824
1251.05307	0.02840
1249.76730	0.02858
1248.48153	0.02879
1247.19576	0.02905
1245.90999	0.02932
1244.62422	0.02960
1243.33846	0.02988
1242.05269	0.03015
1240.76692	0.03041
1239.48115	0.03061
1238.19538	0.03076
1236.90961	0.03090
1235.62384	0.03105
1234.33807	0.03119
1233.05230	0.03129
1231.76654	0.03134
1230.48077	0.03135
1229.19500	0.03132
1227.90923	0.03125
1226.62346	0.03112
1225.33769	0.03095
1224.05192	0.03074
1222.76615	0.03049
1221.48039	0.03022
1220.19462	0.02995
1218.90885	0.02968
1217.62308	0.02942
1216.33731	0.02916
1215.05154	0.02894
1213.76577	0.02878
1212.48000	0.02869
1211.19423	0.02867
1209.90847	0.02870
1208.62270	0.02877
1207.33693	0.02884
1206.05116	0.02892
1204.76539	0.02901
1203.47962	0.02912
1202.19385	0.02921
1200.90808	0.02897
1199.62232	0.02827
1198.33655	0.02808
1197.05078	0.02786
1195.76501	0.02763
1194.47924	0.02743
1193.19347	0.02724
1191.90770	0.02703
1190.62193	0.02677
1189.33616	0.02650
1188.05040	0.02625
1186.76463	0.02607
1185.47886	0.02595
1184.19309	0.02585
1182.90732	0.02574
1181.62155	0.02565
1180.33578	0.02559
1179.05001	0.02559
1177.76425	0.02561
1176.47848	0.02562
1175.19271	0.02559
1173.90694	0.02554
1172.62117	0.02548
1171.33540	0.02541
1170.04963	0.02534
1168.76386	0.02529
1167.47809	0.02529
1166.19233	0.02535
1164.90656	0.02543
1163.62079	0.02548
1162.33502	0.02548
1161.04925	0.02546
1159.76348	0.02546
1158.47771	0.02551
1157.19194	0.02555
1155.90618	0.02553
1154.62041	0.02542
1153.33464	0.02528
1152.04887	0.02516
1150.76310	0.02510
1149.47733	0.02510
1148.19156	0.02511
1146.90579	0.02507
1145.62002	0.02493
1144.33426	0.02470
1143.04849	0.02444
1141.76272	0.02421
1140.47695	0.02405
1139.19118	0.02394
1137.90541	0.02383
1136.61964	0.02368
1135.33387	0.02352
1134.04811	0.02345
1132.76234	0.02350
1131.47657	0.02366
1130.19080	0.02385
1128.90503	0.02401
1127.61926	0.02413
1126.33349	0.02425
1125.04772	0.02445
1123.76195	0.02473
1122.47619	0.02502
1121.19042	0.02526
1119.90465	0.02541
1118.61888	0.02554
1117.33311	0.02571
1116.04734	0.02597
1114.76157	0.02630
1113.47580	0.02662
1112.19004	0.02689
1110.90427	0.02712
1109.61850	0.02736
1108.33273	0.02759
1107.04696	0.02784
1105.76119	0.02811
1104.47542	0.02841
1103.18965	0.02872
1101.90388	0.02899
1100.61812	0.02925
1099.33235	0.02954
1098.04658	0.02986
1096.76081	0.03015
1095.47504	0.03034
1094.18927	0.03045
1092.90350	0.03055
1091.61773	0.03068
1090.33197	0.03084
1089.04620	0.03100
1087.76043	0.03115
1086.47466	0.03130
1085.18889	0.03148
1083.90312	0.03172
1082.61735	0.03208
1081.33158	0.03249
1080.04581	0.03283
1078.76005	0.03303
1077.47428	0.03317
1076.18851	0.03337
1074.90274	0.03366
1073.61697	0.03398
1072.33120	0.03424
1071.04543	0.03439
1069.75966	0.03446
1068.47390	0.03450
1067.18813	0.03459
1065.90236	0.03475
1064.61659	0.03493
1063.33082	0.03508
1062.04505	0.03521
1060.75928	0.03542
1059.47351	0.03571
1058.18774	0.03602
1056.90198	0.03626
1055.61621	0.03641
1054.33044	0.03652
1053.04467	0.03660
1051.75890	0.03666
1050.47313	0.03670
1049.18736	0.03676
1047.90159	0.03687
1046.61583	0.03702
1045.33006	0.03719
1044.04429	0.03737
1042.75852	0.03757
1041.47275	0.03777
1040.18698	0.03795
1038.90121	0.03810
1037.61544	0.03826
1036.32967	0.03849
1035.04391	0.03883
1033.75814	0.03922
1032.47237	0.03957
1031.18660	0.03979
1029.90083	0.03985
1028.61506	0.03976
1027.32929	0.03956
1026.04352	0.03926
1024.75775	0.03891
1023.47199	0.03853
1022.18622	0.03817
1020.90045	0.03782
1019.61468	0.03745
1018.32891	0.03701
1017.04314	0.03650
1015.75737	0.03594
1014.47160	0.03541
1013.18584	0.03493
1011.90007	0.03451
1010.61430	0.03411
1009.32853	0.03371
1008.04276	0.03328
1006.75699	0.03284
1005.47122	0.03242
1004.18545	0.03199
1002.89968	0.03158
1001.61392	0.03120
1000.32815	0.03084
999.04238	0.03049
997.75661	0.03012
996.47084	0.02974
995.18507	0.02936
993.89930	0.02901
992.61353	0.02871
991.32777	0.02850
990.04200	0.02835
988.75623	0.02823
987.47046	0.02803
986.18469	0.02771
984.89892	0.02732
983.61315	0.02697
982.32738	0.02678
981.04161	0.02673
979.75585	0.02671
978.47008	0.02661
977.18431	0.02640
975.89854	0.02612
974.61277	0.02588
973.32700	0.02572
972.04123	0.02564
970.75546	0.02562
969.46970	0.02564
968.18393	0.02567
966.89816	0.02565
965.61239	0.02553
964.32662	0.02533
963.04085	0.02511
961.75508	0.02497
960.46931	0.02492
959.18354	0.02491
957.89778	0.02485
956.61201	0.02472
955.32624	0.02453
954.04047	0.02433
952.75470	0.02417
951.46893	0.02407
950.18316	0.02396
948.89739	0.02381
947.61163	0.02363
946.32586	0.02346
945.04009	0.02330
943.75432	0.02313
942.46855	0.02299
941.18278	0.02294
939.89701	0.02301
938.61124	0.02313
937.32547	0.02323
936.03971	0.02323
934.75394	0.02310
933.46817	0.02286
932.18240	0.02261
930.89663	0.02243
929.61086	0.02233
928.32509	0.02228
927.03932	0.02222
925.75356	0.02217
924.46779	0.02213
923.18202	0.02211
921.89625	0.02209
920.61048	0.02202
919.32471	0.02185
918.03894	0.02158
916.75317	0.02130
915.46740	0.02109
914.18164	0.02099
912.89587	0.02096
911.61010	0.02094
910.32433	0.02087
909.03856	0.02073
907.75279	0.02054
906.46702	0.02037
905.18125	0.02031
903.89549	0.02031
902.60972	0.02030
901.32395	0.02024
900.03818	0.02015
898.75241	0.02002
897.46664	0.01987
896.18087	0.01970
894.89510	0.01959
893.60933	0.01956
892.32357	0.01960
891.03780	0.01961
889.75203	0.01954
888.46626	0.01940
887.18049	0.01920
885.89472	0.01901
884.60895	0.01892
883.32318	0.01896
882.03742	0.01910
880.75165	0.01926
879.46588	0.01939
878.18011	0.01946
876.89434	0.01941
875.60857	0.01923
874.32280	0.01898
873.03703	0.01878
871.75126	0.01869
870.46550	0.01866
869.17973	0.01861
867.89396	0.01855
866.60819	0.01854
865.32242	0.01862
864.03665	0.01873
862.75088	0.01872
861.46511	0.01856
860.17935	0.01835
858.89358	0.01820
857.60781	0.01813
856.32204	0.01810
855.03627	0.01810
853.75050	0.01817
852.46473	0.01831
851.17896	0.01844
849.89319	0.01846
848.60743	0.01831
847.32166	0.01804
846.03589	0.01777
844.75012	0.01759
843.46435	0.01749
842.17858	0.01739
840.89281	0.01725
839.60704	0.01710
838.32128	0.01703
837.03551	0.01709
835.74974	0.01724
834.46397	0.01741
833.17820	0.01752
831.89243	0.01754
830.60666	0.01743
829.32089	0.01725
828.03512	0.01707
826.74936	0.01692
825.46359	0.01684
824.17782	0.01686
822.89205	0.01698
821.60628	0.01713
820.32051	0.01722
819.03474	0.01719
817.74897	0.01709
816.46321	0.01700
815.17744	0.01696
813.89167	0.01696
812.60590	0.01700
811.32013	0.01709
810.03436	0.01717
808.74859	0.01717
807.46282	0.01714
806.17705	0.01713
804.89129	0.01720
803.60552	0.01728
802.31975	0.01730
801.03398	0.01727
799.74821	0.01722
798.46244	0.01723
797.17667	0.01729
795.89090	0.01732
794.60513	0.01730
793.31937	0.01726
792.03360	0.01725
790.74783	0.01729
789.46206	0.01735
788.17629	0.01740
786.89052	0.01741
785.60475	0.01737
784.31898	0.01727
783.03322	0.01715
781.74745	0.01708
780.46168	0.01710
779.17591	0.01722
777.89014	0.01740
776.60437	0.01753
775.31860	0.01758
774.03283	0.01752
772.74706	0.01735
771.46130	0.01715
770.17553	0.01702
768.88976	0.01707
767.60399	0.01727
766.31822	0.01751
765.03245	0.01768
763.74668	0.01777
762.46091	0.01781
761.17515	0.01779
759.88938	0.01771
758.60361	0.01762
757.31784	0.01755
756.03207	0.01751
754.74630	0.01748
753.46053	0.01745
752.17476	0.01745
750.88899	0.01752
749.60323	0.01766
748.31746	0.01782
747.03169	0.01793
745.74592	0.01794
744.46015	0.01790
743.17438	0.01790
741.88861	0.01800
740.60284	0.01814
739.31708	0.01819
738.03131	0.01812
736.74554	0.01803
735.45977	0.01802
734.17400	0.01811
732.88823	0.01820
731.60246	0.01826
730.31669	0.01832
729.03092	0.01840
727.74516	0.01846
726.45939	0.01851
725.17362	0.01856
723.88785	0.01850
722.60208	0.01872
721.31631	0.01906
720.03054	0.01936
718.74477	0.01960
717.45901	0.01973
716.17324	0.01972
714.88747	0.01957
713.60170	0.01937
712.31593	0.01921
711.03016	0.01915
709.74439	0.01920
708.45862	0.01932
707.17285	0.01949
705.88709	0.01963
704.60132	0.01971
703.31555	0.01974
702.02978	0.01976
700.74401	0.01983
699.45824	0.01993
698.17247	0.02003
696.88670	0.02009
695.60094	0.02011
694.31517	0.02011
693.02940	0.02010
691.74363	0.02010
690.45786	0.02012
689.17209	0.02014
687.88632	0.02013
686.60055	0.02006
685.31478	0.01997
684.02902	0.01991
682.74325	0.01992
681.45748	0.01999
680.17171	0.02007
678.88594	0.02013
677.60017	0.02015
676.31440	0.02013
675.02863	0.02009
673.74287	0.02004
672.45710	0.02004
671.17133	0.02012
669.88556	0.02021
668.59979	0.02004
667.31402	0.02006
666.02825	0.02044
664.74248	0.02049
663.45671	0.02049
662.17095	0.02055
660.88518	0.02057
659.59941	0.02058
658.31364	0.02059
657.02787	0.02064
655.74210	0.02071
654.45633	0.02080
653.17056	0.02089
651.88480	0.02097
650.59903	0.02100
649.31326	0.02100
648.02749	0.02100
646.74172	0.02104
645.45595	0.02110
644.17018	0.02111
642.88441	0.02102
641.59864	0.02084
640.31288	0.02064
639.02711	0.02051
637.74134	0.02048
636.45557	0.02053
635.16980	0.02062
633.88403	0.02063
632.59826	0.02044
631.31249	0.02066
630.02673	0.02382
628.74096	0.02877
627.45519	0.02566
626.16942	0.03132
624.88365	0.04279
623.59788	0.05318
622.31211	0.05935
621.02634	0.05997
619.74057	0.05537
618.45481	0.04763
617.16904	0.03930
615.88327	0.03227
614.59750	0.02763
613.31173	0.02612
612.02596	0.02799
610.74019	0.03259
609.45442	0.03806
608.16866	0.04230
606.88289	0.04433
605.59712	0.04456
604.31135	0.04391
603.02558	0.04289
601.73981	0.04144
600.45404	0.03941
599.16827	0.03704
597.88250	0.03482
596.59674	0.03312
595.31097	0.03197
594.02520	0.03121
592.73943	0.03063
591.45366	0.03014
590.16789	0.02974
588.88212	0.02953
587.59635	0.02952
586.31059	0.02968
585.02482	0.02995
583.73905	0.03027
582.45328	0.03057
581.16751	0.03079
579.88174	0.03088
578.59597	0.03090
577.31020	0.03098
576.02443	0.03120
574.73867	0.03161
573.45290	0.03226
572.16713	0.03314
570.88136	0.03419
569.59559	0.03522
568.30982	0.03602
567.02405	0.03642
565.73828	0.03639
564.45251	0.03601
563.16675	0.03539
561.88098	0.03468
560.59521	0.03396
559.30944	0.03328
558.02367	0.03266
556.73790	0.03213
555.45213	0.03169
554.16636	0.03132
552.88060	0.03097
551.59483	0.03068
550.30906	0.03046
549.02329	0.03030
547.73752	0.03011
546.45175	0.02984
545.16598	0.02955
543.88021	0.02927
542.59444	0.02901
541.30868	0.02875
540.02291	0.02851
538.73714	0.02829
537.45137	0.02807
536.16560	0.02787
534.87983	0.02772
533.59406	0.02763
532.30829	0.02757
531.02253	0.02748
529.73676	0.02738
528.45099	0.02731
527.16522	0.02729
525.87945	0.02728
524.59368	0.02717
523.30791	0.02693
522.02214	0.02661
520.73637	0.02632
519.45061	0.02616
518.16484	0.02610
516.87907	0.02610
515.59330	0.02607
514.30753	0.02595
513.02176	0.02574
511.73599	0.02545
510.45022	0.02515
509.16446	0.02490
507.87869	0.02471
506.59292	0.02451
505.30715	0.02424
504.02138	0.02390
502.73561	0.02352
501.44984	0.02320
500.16407	0.02301
498.87830	0.02296
497.59254	0.02300
496.30677	0.02303
495.02100	0.02301
493.73523	0.02291
492.44946	0.02274
491.16369	0.02253
489.87792	0.02234
488.59215	0.02220
487.30639	0.02210
486.02062	0.02201
484.73485	0.02186
483.44908	0.02166
482.16331	0.02145
480.87754	0.02128
479.59177	0.02115
478.30600	0.02105
477.02023	0.02098
475.73447	0.02094
474.44870	0.02095
473.16293	0.02098
471.87716	0.02104
470.59139	0.02110
469.30562	0.02112
468.01985	0.02104
466.73408	0.02087
465.44832	0.02066
464.16255	0.02048
462.87678	0.02034
461.59101	0.02022
460.30524	0.02009
459.01947	0.01994
457.73370	0.01975
456.44793	0.01953
455.16216	0.01930
453.87640	0.01910
452.59063	0.01896
451.30486	0.01886
450.01909	0.01875
448.73332	0.01860
447.44755	0.01844
446.16178	0.01830
444.87601	0.01821
443.59025	0.01815
442.30448	0.01809
441.01871	0.01802
439.73294	0.01798
438.44717	0.01796
437.16140	0.01794
435.87563	0.01791
434.58986	0.01785
433.30409	0.01778
432.01833	0.01771
430.73256	0.01764
429.44679	0.01758
428.16102	0.01753
426.87525	0.01748
425.58948	0.01742
424.30371	0.01733
423.01794	0.01721
421.73218	0.01711
420.44641	0.01704
419.16064	0.01700
417.87487	0.01696
416.58910	0.01691
415.30333	0.01682
414.01756	0.01674
412.73179	0.01668
411.44602	0.01664
410.16026	0.01659
408.87449	0.01653
407.58872	0.01646
406.30295	0.01640
405.01718	0.01635
403.73141	0.01630
402.44564	0.01622
401.15987	0.01612
399.87411	0.01601
