3997.45528	0.03455
3996.16951	0.03408
3994.88374	0.03351
3993.59798	0.03289
3992.31221	0.03242
3991.02644	0.03234
3989.74067	0.03287
3988.45490	0.03388
3987.16913	0.03498
3985.88336	0.03571
3984.59759	0.03590
3983.31183	0.03562
3982.02606	0.03509
3980.74029	0.03453
3979.45452	0.03413
3978.16875	0.03399
3976.88298	0.03399
3975.59721	0.03389
3974.31144	0.03348
3973.02567	0.03275
3971.73991	0.03199
3970.45414	0.03164
3969.16837	0.03192
3967.88260	0.03258
3966.59683	0.03313
3965.31106	0.03321
3964.02529	0.03286
3962.73952	0.03238
3961.45376	0.03209
3960.16799	0.03209
3958.88222	0.03224
3957.59645	0.03228
3956.31068	0.03214
3955.02491	0.03200
3953.73914	0.03206
3952.45337	0.03233
3951.16760	0.03266
3949.88184	0.03286
3948.59607	0.03286
3947.31030	0.03274
3946.02453	0.03264
3944.73876	0.03265
3943.45299	0.03279
3942.16722	0.03300
3940.88145	0.03319
3939.59569	0.03326
3938.30992	0.03317
3937.02415	0.03299
3935.73838	0.03288
3934.45261	0.03297
3933.16684	0.03317
3931.88107	0.03329
3930.59530	0.03325
3929.30953	0.03309
3928.02377	0.03283
3926.73800	0.03240
3925.45223	0.03177
3924.16646	0.03115
3922.88069	0.03077
3921.59492	0.03066
3920.30915	0.03061
3919.02338	0.03054
3917.73762	0.03064
3916.45185	0.03109
3915.16608	0.03180
3913.88031	0.03238
3912.59454	0.03250
3911.30877	0.03213
3910.02300	0.03154
3908.73723	0.03106
3907.45146	0.03085
3906.16570	0.03081
3904.87993	0.03076
3903.59416	0.03067
3902.30839	0.03066
3901.02262	0.03087
3899.73685	0.03132
3898.45108	0.03190
3897.16531	0.03243
3895.87955	0.03265
3894.59378	0.03239
3893.30801	0.03181
3892.02224	0.03126
3890.73647	0.03103
3889.45070	0.03104
3888.16493	0.03099
3886.87916	0.03069
3885.59339	0.03019
3884.30763	0.02978
3883.02186	0.02977
3881.73609	0.03020
3880.45032	0.03078
3879.16455	0.03114
3877.87878	0.03119
3876.59301	0.03112
3875.30724	0.03110
3874.02148	0.03101
3872.73571	0.03069
3871.44994	0.03012
3870.16417	0.02954
3868.87840	0.02922
3867.59263	0.02931
3866.30686	0.02990
3865.02109	0.03088
3863.73532	0.03188
3862.44956	0.03249
3861.16379	0.03250
3859.87802	0.03209
3858.59225	0.03151
3857.30648	0.03097
3856.02071	0.03065
3854.73494	0.03069
3853.44917	0.03112
3852.16341	0.03172
3850.87764	0.03213
3849.59187	0.03211
3848.30610	0.03176
3847.02033	0.03141
3845.73456	0.03133
3844.44879	0.03153
3843.16302	0.03175
3841.87725	0.03170
3840.59149	0.03128
3839.30572	0.03064
3838.01995	0.02996
3836.73418	0.02935
3835.44841	0.02884
3834.16264	0.02856
3832.87687	0.02861
3831.59110	0.02896
3830.30534	0.02935
3829.01957	0.02952
3827.73380	0.02948
3826.44803	0.02936
3825.16226	0.02928
3823.87649	0.02930
3822.59072	0.02943
3821.30495	0.02961
3820.01918	0.02978
3818.73342	0.02983
3817.44765	0.02967
3816.16188	0.02931
3814.87611	0.02888
3813.59034	0.02867
3812.30457	0.02882
3811.01880	0.02928
3809.73303	0.02983
3808.44726	0.03032
3807.16150	0.03074
3805.87573	0.03114
3804.58996	0.03150
3803.30419	0.03171
3802.01842	0.03159
3800.73265	0.03102
3799.44688	0.03016
3798.16111	0.02935
3796.87535	0.02889
3795.58958	0.02872
3794.30381	0.02860
3793.01804	0.02836
3791.73227	0.02810
3790.44650	0.02802
3789.16073	0.02821
3787.87496	0.02862
3786.58919	0.02913
3785.30343	0.02961
3784.01766	0.02993
3782.73189	0.03004
3781.44612	0.02996
3780.16035	0.02976
3778.87458	0.02961
3777.58881	0.02970
3776.30304	0.03015
3775.01728	0.03089
3773.73151	0.03148
3772.44574	0.03138
3771.15997	0.03037
3769.87420	0.02882
3768.58843	0.02757
3767.30266	0.02729
3766.01689	0.02793
3764.73112	0.02874
3763.44536	0.02904
3762.15959	0.02878
3760.87382	0.02852
3759.58805	0.02870
3758.30228	0.02914
3757.01651	0.02933
3755.73074	0.02904
3754.44497	0.02849
3753.15921	0.02794
3751.87344	0.02736
3750.58767	0.02665
3749.30190	0.02592
3748.01613	0.02548
3746.73036	0.02553
3745.44459	0.02601
3744.15882	0.02667
3742.87305	0.02716
3741.58729	0.02726
3740.30152	0.02705
3739.01575	0.02676
3737.72998	0.02659
3736.44421	0.02661
3735.15844	0.02684
3733.87267	0.02713
3732.58690	0.02728
3731.30114	0.02721
3730.01537	0.02715
3728.72960	0.02743
3727.44383	0.02810
3726.15806	0.02879
3724.87229	0.02907
3723.58652	0.02877
3722.30075	0.02807
3721.01498	0.02732
3719.72922	0.02680
3718.44345	0.02655
3717.15768	0.02650
3715.87191	0.02657
3714.58614	0.02673
3713.30037	0.02699
3712.01460	0.02737
3710.72883	0.02777
3709.44307	0.02797
3708.15730	0.02778
3706.87153	0.02722
3705.58576	0.02657
3704.29999	0.02610
3703.01422	0.02583
3701.72845	0.02556
3700.44268	0.02526
3699.15691	0.02508
3697.87115	0.02518
3696.58538	0.02546
3695.29961	0.02569
3694.01384	0.02575
3692.72807	0.02578
3691.44230	0.02601
3690.15653	0.02644
3688.87076	0.02673
3687.58500	0.02661
3686.29923	0.02617
3685.01346	0.02573
3683.72769	0.02551
3682.44192	0.02557
3681.15615	0.02589
3679.87038	0.02648
3678.58461	0.02731
3677.29884	0.02815
3676.01308	0.02863
3674.72731	0.02848
3673.44154	0.02783
3672.15577	0.02714
3670.87000	0.02686
3669.58423	0.02700
3668.29846	0.02719
3667.01269	0.02705
3665.72693	0.02666
3664.44116	0.02641
3663.15539	0.02657
3661.86962	0.02705
3660.58385	0.02758
3659.29808	0.02792
3658.01231	0.02792
3656.72654	0.02757
3655.44077	0.02704
3654.15501	0.02663
3652.86924	0.02665
3651.58347	0.02720
3650.29770	0.02807
3649.01193	0.02889
3647.72616	0.02947
3646.44039	0.02979
3645.15462	0.02993
3643.86886	0.02987
3642.58309	0.02957
3641.29732	0.02903
3640.01155	0.02841
3638.72578	0.02792
3637.44001	0.02777
3636.15424	0.02798
3634.86847	0.02841
3633.58270	0.02892
3632.29694	0.02941
3631.01117	0.02985
3629.72540	0.03017
3628.43963	0.03030
3627.15386	0.03033
3625.86809	0.03039
3624.58232	0.03055
3623.29655	0.03077
3622.01079	0.03097
3620.72502	0.03116
3619.43925	0.03138
3618.15348	0.03156
3616.86771	0.03153
3615.58194	0.03122
3614.29617	0.03080
3613.01040	0.03064
3611.72463	0.03096
3610.43887	0.03175
3609.15310	0.03266
3607.86733	0.03328
3606.58156	0.03330
3605.29579	0.03272
3604.01002	0.03191
3602.72425	0.03130
3601.43848	0.03115
3600.15272	0.03153
3598.86695	0.03234
3597.58118	0.03339
3596.29541	0.03436
3595.00964	0.03498
3593.72387	0.03514
3592.43810	0.03495
3591.15233	0.03461
3589.86656	0.03429
3588.58080	0.03405
3587.29503	0.03393
3586.00926	0.03404
3584.72349	0.03442
3583.43772	0.03495
3582.15195	0.03534
3580.86618	0.03529
3579.58041	0.03480
3578.29464	0.03424
3577.00888	0.03415
3575.72311	0.03470
3574.43734	0.03553
3573.15157	0.03609
3571.86580	0.03617
3570.58003	0.03607
3569.29426	0.03612
3568.00849	0.03639
3566.72273	0.03675
3565.43696	0.03715
3564.15119	0.03766
3562.86542	0.03831
3561.57965	0.03897
3560.29388	0.03944
3559.00811	0.03970
3557.72234	0.03989
3556.43657	0.04013
3555.15081	0.04039
3553.86504	0.04054
3552.57927	0.04055
3551.29350	0.04049
3550.00773	0.04050
3548.72196	0.04061
3547.43619	0.04076
3546.15042	0.04090
3544.86466	0.04101
3543.57889	0.04106
3542.29312	0.04105
3541.00735	0.04103
3539.72158	0.04110
3538.43581	0.04129
3537.15004	0.04157
3535.86427	0.04186
3534.57850	0.04210
3533.29274	0.04226
3532.00697	0.04232
3530.72120	0.04231
3529.43543	0.04229
3528.14966	0.04225
3526.86389	0.04226
3525.57812	0.04243
3524.29235	0.04284
3523.00659	0.04348
3521.72082	0.04417
3520.43505	0.04478
3519.14928	0.04529
3517.86351	0.04571
3516.57774	0.04603
3515.29197	0.04609
3514.00620	0.04585
3512.72043	0.04543
3511.43467	0.04502
3510.14890	0.04480
3508.86313	0.04495
3507.57736	0.04561
3506.29159	0.04674
3505.00582	0.04799
3503.72005	0.04885
3502.43428	0.04901
3501.14852	0.04860
3499.86275	0.04799
3498.57698	0.04748
3497.29121	0.04715
3496.00544	0.04695
3494.71967	0.04678
3493.43390	0.04661
3492.14813	0.04652
3490.86236	0.04666
3489.57660	0.04705
3488.29083	0.04754
3487.00506	0.04794
3485.71929	0.04824
3484.43352	0.04856
3483.14775	0.04894
3481.86198	0.04928
3480.57621	0.04946
3479.29045	0.04945
3478.00468	0.04934
3476.71891	0.04921
3475.43314	0.04912
3474.14737	0.04914
3472.86160	0.04933
3471.57583	0.04966
3470.29006	0.05000
3469.00429	0.05031
3467.71853	0.05068
3466.43276	0.05111
3465.14699	0.05138
3463.86122	0.05131
3462.57545	0.05099
3461.28968	0.05072
3460.00391	0.05070
3458.71814	0.05086
3457.43238	0.05107
3456.14661	0.05120
3454.86084	0.05118
3453.57507	0.05096
3452.28930	0.05061
3451.00353	0.05030
3449.71776	0.05026
3448.43199	0.05068
3447.14622	0.05157
3445.86046	0.05267
3444.57469	0.05356
3443.28892	0.05398
3442.00315	0.05398
3440.71738	0.05378
3439.43161	0.05347
3438.14584	0.05306
3436.86007	0.05263
3435.57431	0.05237
3434.28854	0.05239
3433.00277	0.05266
3431.71700	0.05306
3430.43123	0.05353
3429.14546	0.05416
3427.85969	0.05500
3426.57392	0.05592
3425.28815	0.05664
3424.00239	0.05702
3422.71662	0.05714
3421.43085	0.05723
3420.14508	0.05732
3418.85931	0.05729
3417.57354	0.05707
3416.28777	0.05680
3415.00200	0.05672
3413.71624	0.05691
3412.43047	0.05722
3411.14470	0.05743
3409.85893	0.05738
3408.57316	0.05708
3407.28739	0.05670
3406.00162	0.05641
3404.71585	0.05630
3403.43008	0.05641
3402.14432	0.05673
3400.85855	0.05727
3399.57278	0.05803
3398.28701	0.05884
3397.00124	0.05955
3395.71547	0.05994
3394.42970	0.05995
3393.14393	0.05974
3391.85817	0.05956
3390.57240	0.05948
3389.28663	0.05945
3388.00086	0.05950
3386.71509	0.05967
3385.42932	0.05993
3384.14355	0.06013
3382.85778	0.06013
3381.57201	0.05995
3380.28625	0.05975
3379.00048	0.05974
3377.71471	0.06004
3376.42894	0.06063
3375.14317	0.06142
3373.85740	0.06236
3372.57163	0.06333
3371.28586	0.06408
3370.00010	0.06430
3368.71433	0.06393
3367.42856	0.06323
3366.14279	0.06265
3364.85702	0.06253
3363.57125	0.06292
3362.28548	0.06364
3360.99971	0.06439
3359.71394	0.06489
3358.42818	0.06505
3357.14241	0.06496
3355.85664	0.06477
3354.57087	0.06464
3353.28510	0.06474
3351.99933	0.06515
3350.71356	0.06580
3349.42779	0.06650
3348.14202	0.06709
3346.85626	0.06753
3345.57049	0.06782
3344.28472	0.06801
3342.99895	0.06818
3341.71318	0.06842
3340.42741	0.06871
3339.14164	0.06895
3337.85587	0.06910
3336.57011	0.06915
3335.28434	0.06918
3333.99857	0.06933
3332.71280	0.06971
3331.42703	0.07028
3330.14126	0.07082
3328.85549	0.07114
3327.56972	0.07119
3326.28395	0.07109
3324.99819	0.07105
3323.71242	0.07114
3322.42665	0.07128
3321.14088	0.07139
3319.85511	0.07145
3318.56934	0.07154
3317.28357	0.07172
3315.99780	0.07201
3314.71204	0.07234
3313.42627	0.07262
3312.14050	0.07278
3310.85473	0.07287
3309.56896	0.07304
3308.28319	0.07336
3306.99742	0.07384
3305.71165	0.07437
3304.42588	0.07483
3303.14012	0.07515
3301.85435	0.07533
3300.56858	0.07539
3299.28281	0.07535
3297.99704	0.07532
3296.71127	0.07537
3295.42550	0.07546
3294.13973	0.07543
3292.85397	0.07524
3291.56820	0.07501
3290.28243	0.07488
3288.99666	0.07485
3287.71089	0.07487
3286.42512	0.07495
3285.13935	0.07520
3283.85358	0.07557
3282.56781	0.07583
3281.28205	0.07576
3279.99628	0.07540
3278.71051	0.07508
3277.42474	0.07501
3276.13897	0.07511
3274.85320	0.07515
3273.56743	0.07504
3272.28166	0.07489
3270.99590	0.07484
3269.71013	0.07491
3268.42436	0.07500
3267.13859	0.07509
3265.85282	0.07519
3264.56705	0.07533
3263.28128	0.07539
3261.99551	0.07524
3260.70974	0.07483
3259.42398	0.07425
3258.13821	0.07371
3256.85244	0.07338
3255.56667	0.07339
3254.28090	0.07364
3252.99513	0.07390
3251.70936	0.07387
3250.42359	0.07342
3249.13783	0.07264
3247.85206	0.07185
3246.56629	0.07136
3245.28052	0.07127
3243.99475	0.07143
3242.70898	0.07158
3241.42321	0.07156
3240.13744	0.07135
3238.85167	0.07100
3237.56591	0.07069
3236.28014	0.07054
3234.99437	0.07055
3233.70860	0.07060
3232.42283	0.07059
3231.13706	0.07051
3229.85129	0.07034
3228.56552	0.07008
3227.27976	0.06973
3225.99399	0.06938
3224.70822	0.06912
3223.42245	0.06892
3222.13668	0.06875
3220.85091	0.06862
3219.56514	0.06859
3218.27937	0.06867
3216.99360	0.06875
3215.70784	0.06868
3214.42207	0.06846
3213.13630	0.06818
3211.85053	0.06791
3210.56476	0.06771
3209.27899	0.06758
3207.99322	0.06759
3206.70745	0.06775
3205.42169	0.06797
3204.13592	0.06817
3202.85015	0.06834
3201.56438	0.06848
3200.27861	0.06849
3198.99284	0.06822
3197.70707	0.06770
3196.42130	0.06711
3195.13553	0.06662
3193.84977	0.06629
3192.56400	0.06613
3191.27823	0.06607
3189.99246	0.06598
3188.70669	0.06574
3187.42092	0.06540
3186.13515	0.06510
3184.84938	0.06490
3183.56362	0.06470
3182.27785	0.06443
3180.99208	0.06414
3179.70631	0.06393
3178.42054	0.06388
3177.13477	0.06396
3175.84900	0.06409
3174.56323	0.06418
3173.27746	0.06419
3171.99170	0.06410
3170.70593	0.06390
3169.42016	0.06360
3168.13439	0.06333
3166.84862	0.06322
3165.56285	0.06322
3164.27708	0.06315
3162.99131	0.06283
3161.70555	0.06225
3160.41978	0.06162
3159.13401	0.06118
3157.84824	0.06105
3156.56247	0.06108
3155.27670	0.06107
3153.99093	0.06087
3152.70516	0.06047
3151.41939	0.05990
3150.13363	0.05926
3148.84786	0.05866
3147.56209	0.05827
3146.27632	0.05810
3144.99055	0.05803
3143.70478	0.05784
3142.41901	0.05745
3141.13324	0.05696
3139.84748	0.05658
3138.56171	0.05649
3137.27594	0.05663
3135.99017	0.05686
3134.70440	0.05703
3133.41863	0.05715
3132.13286	0.05732
3130.84709	0.05758
3129.56132	0.05782
3128.27556	0.05787
3126.98979	0.05767
3125.70402	0.05725
3124.41825	0.05672
3123.13248	0.05617
3121.84671	0.05573
3120.56094	0.05556
3119.27517	0.05572
3117.98940	0.05606
3116.70364	0.05635
3115.41787	0.05645
3114.13210	0.05648
3112.84633	0.05659
3111.56056	0.05680
3110.27479	0.05699
3108.98902	0.05704
3107.70325	0.05697
3106.41749	0.05687
3105.13172	0.05680
3103.84595	0.05667
3102.56018	0.05640
3101.27441	0.05600
3099.98864	0.05567
3098.70287	0.05559
3097.41710	0.05581
3096.13133	0.05621
3094.84557	0.05662
3093.55980	0.05690
3092.27403	0.05704
3090.98826	0.05707
3089.70249	0.05706
3088.41672	0.05702
3087.13095	0.05692
3085.84518	0.05674
3084.55942	0.05646
3083.27365	0.05620
3081.98788	0.05609
3080.70211	0.05621
3079.41634	0.05652
3078.13057	0.05684
3076.84480	0.05704
3075.55903	0.05708
3074.27326	0.05700
3072.98750	0.05684
3071.70173	0.05659
3070.41596	0.05628
3069.13019	0.05602
3067.84442	0.05586
3066.55865	0.05583
3065.27288	0.05589
3063.98711	0.05601
3062.70135	0.05619
3061.41558	0.05638
3060.12981	0.05653
3058.84404	0.05658
3057.55827	0.05651
3056.27250	0.05629
3054.98673	0.05597
3053.70096	0.05567
3052.41519	0.05549
3051.12943	0.05543
3049.84366	0.05536
3048.55789	0.05515
3047.27212	0.05484
3045.98635	0.05458
3044.70058	0.05449
3043.41481	0.05446
3042.12904	0.05434
3040.84328	0.05403
3039.55751	0.05358
3038.27174	0.05309
3036.98597	0.05260
3035.70020	0.05220
3034.41443	0.05196
3033.12866	0.05191
3031.84289	0.05193
3030.55712	0.05189
3029.27136	0.05169
3027.98559	0.05130
3026.69982	0.05081
3025.41405	0.05033
3024.12828	0.04998
3022.84251	0.04983
3021.55674	0.04984
3020.27097	0.04993
3018.98521	0.05000
3017.69944	0.04996
3016.41367	0.04980
3015.12790	0.04958
3013.84213	0.04937
3012.55636	0.04923
3011.27059	0.04911
3009.98482	0.04897
3008.69905	0.04878
3007.41329	0.04864
3006.12752	0.04866
3004.84175	0.04884
3003.55598	0.04906
3002.27021	0.04917
3000.98444	0.04910
2999.69867	0.04891
2998.41290	0.04873
2997.12714	0.04861
2995.84137	0.04853
2994.55560	0.04846
2993.26983	0.04839
2991.98406	0.04831
2990.69829	0.04827
2989.41252	0.04834
2988.12675	0.04853
2986.84098	0.04873
2985.55522	0.04884
2984.26945	0.04890
2982.98368	0.04902
2981.69791	0.04924
2980.41214	0.04948
2979.12637	0.04968
2977.84060	0.04986
2976.55483	0.05005
2975.26907	0.05019
2973.98330	0.05030
2972.69753	0.05048
2971.41176	0.05086
2970.12599	0.05138
2968.84022	0.05191
2967.55445	0.05239
2966.26868	0.05279
2964.98291	0.05307
2963.69715	0.05318
2962.41138	0.05314
2961.12561	0.05304
2959.83984	0.05297
2958.55407	0.05298
2957.26830	0.05315
2955.98253	0.05344
2954.69676	0.05368
2953.41100	0.05376
2952.12523	0.05367
2950.83946	0.05348
2949.55369	0.05321
2948.26792	0.05289
2946.98215	0.05263
2945.69638	0.05253
2944.41061	0.05253
2943.12484	0.05256
2941.83908	0.05262
2940.55331	0.05284
2939.26754	0.05327
2937.98177	0.05380
2936.69600	0.05430
2935.41023	0.05470
2934.12446	0.05502
2932.83869	0.05535
2931.55293	0.05574
2930.26716	0.05614
2928.98139	0.05642
2927.69562	0.05649
2926.40985	0.05641
2925.12408	0.05628
2923.83831	0.05621
2922.55254	0.05620
2921.26677	0.05616
2919.98101	0.05598
2918.69524	0.05561
2917.40947	0.05515
2916.12370	0.05479
2914.83793	0.05460
2913.55216	0.05448
2912.26639	0.05425
2910.98062	0.05382
2909.69486	0.05327
2908.40909	0.05278
2907.12332	0.05252
2905.83755	0.05251
2904.55178	0.05253
2903.26601	0.05240
2901.98024	0.05213
2900.69447	0.05183
2899.40870	0.05156
2898.12294	0.05134
2896.83717	0.05118
2895.55140	0.05111
2894.26563	0.05108
2892.97986	0.05101
2891.69409	0.05085
2890.40832	0.05062
2889.12255	0.05042
2887.83678	0.05030
2886.55102	0.05031
2885.26525	0.05037
2883.97948	0.05039
2882.69371	0.05031
2881.40794	0.05014
2880.12217	0.04995
2878.83640	0.04976
2877.55063	0.04962
2876.26487	0.04954
2874.97910	0.04954
2873.69333	0.04963
2872.40756	0.04975
2871.12179	0.04982
2869.83602	0.04981
2868.55025	0.04976
2867.26448	0.04972
2865.97871	0.04968
2864.69295	0.04962
2863.40718	0.04954
2862.12141	0.04943
2860.83564	0.04929
2859.54987	0.04909
2858.26410	0.04885
2856.97833	0.04864
2855.69256	0.04859
2854.40680	0.04873
2853.12103	0.04892
2851.83526	0.04897
2850.54949	0.04881
2849.26372	0.04855
2847.97795	0.04828
2846.69218	0.04799
2845.40641	0.04771
2844.12064	0.04750
2842.83488	0.04737
2841.54911	0.04720
2840.26334	0.04689
2838.97757	0.04647
2837.69180	0.04610
2836.40603	0.04587
2835.12026	0.04573
2833.83449	0.04559
2832.54873	0.04537
2831.26296	0.04504
2829.97719	0.04464
2828.69142	0.04430
2827.40565	0.04418
2826.11988	0.04433
2824.83411	0.04462
2823.54834	0.04479
2822.26257	0.04466
2820.97681	0.04431
2819.69104	0.04395
2818.40527	0.04379
2817.11950	0.04384
2815.83373	0.04395
2814.54796	0.04397
2813.26219	0.04387
2811.97642	0.04371
2810.69066	0.04354
2809.40489	0.04333
2808.11912	0.04315
2806.83335	0.04312
2805.54758	0.04331
2804.26181	0.04362
2802.97604	0.04377
2801.69027	0.04358
2800.40450	0.04314
2799.11874	0.04271
2797.83297	0.04251
2796.54720	0.04253
2795.26143	0.04267
2793.97566	0.04280
2792.68989	0.04284
2791.40412	0.04275
2790.11835	0.04258
2788.83259	0.04239
2787.54682	0.04221
2786.26105	0.04209
2784.97528	0.04207
2783.68951	0.04217
2782.40374	0.04237
2781.11797	0.04257
2779.83220	0.04263
2778.54643	0.04253
2777.26067	0.04234
2775.97490	0.04218
2774.68913	0.04207
2773.40336	0.04196
2772.11759	0.04180
2770.83182	0.04162
2769.54605	0.04147
2768.26028	0.04139
2766.97452	0.04137
2765.68875	0.04131
2764.40298	0.04115
2763.11721	0.04087
2761.83144	0.04057
2760.54567	0.04036
2759.25990	0.04029
2757.97413	0.04034
2756.68836	0.04043
2755.40260	0.04047
2754.11683	0.04041
2752.83106	0.04026
2751.54529	0.04010
2750.25952	0.03998
2748.97375	0.03997
2747.68798	0.04006
2746.40221	0.04020
2745.11645	0.04032
2743.83068	0.04040
2742.54491	0.04048
2741.25914	0.04054
2739.97337	0.04058
2738.68760	0.04061
2737.40183	0.04061
2736.11606	0.04055
2734.83029	0.04039
2733.54453	0.04015
2732.25876	0.03988
2730.97299	0.03961
2729.68722	0.03936
2728.40145	0.03920
2727.11568	0.03918
2725.82991	0.03928
2724.54414	0.03935
2723.25838	0.03928
2721.97261	0.03910
2720.68684	0.03892
2719.40107	0.03886
2718.11530	0.03889
2716.82953	0.03890
2715.54376	0.03876
2714.25799	0.03850
2712.97222	0.03831
2711.68646	0.03828
2710.40069	0.03839
2709.11492	0.03851
2707.82915	0.03863
2706.54338	0.03874
2705.25761	0.03882
2703.97184	0.03876
2702.68607	0.03855
2701.40031	0.03831
2700.11454	0.03818
2698.82877	0.03819
2697.54300	0.03827
2696.25723	0.03833
2694.97146	0.03829
2693.68569	0.03814
2692.39992	0.03789
2691.11415	0.03762
2689.82839	0.03743
2688.54262	0.03735
2687.25685	0.03739
2685.97108	0.03744
2684.68531	0.03744
2683.39954	0.03741
2682.11377	0.03740
2680.82800	0.03738
2679.54224	0.03726
2678.25647	0.03704
2676.97070	0.03683
2675.68493	0.03676
2674.39916	0.03680
2673.11339	0.03688
2671.82762	0.03692
2670.54185	0.03685
2669.25608	0.03675
2667.97032	0.03677
2666.68455	0.03704
2665.39878	0.03750
2664.11301	0.03795
2662.82724	0.03816
2661.54147	0.03804
2660.25570	0.03771
2658.96993	0.03737
2657.68417	0.03718
2656.39840	0.03709
2655.11263	0.03700
2653.82686	0.03688
2652.54109	0.03680
2651.25532	0.03677
2649.96955	0.03672
2648.68378	0.03656
2647.39801	0.03631
2646.11225	0.03608
2644.82648	0.03592
2643.54071	0.03581
2642.25494	0.03570
2640.96917	0.03562
2639.68340	0.03555
2638.39763	0.03540
2637.11186	0.03506
2635.82609	0.03460
2634.54033	0.03422
2633.25456	0.03413
2631.96879	0.03433
2630.68302	0.03466
2629.39725	0.03487
2628.11148	0.03486
2626.82571	0.03466
2625.53994	0.03441
2624.25418	0.03421
2622.96841	0.03409
2621.68264	0.03402
2620.39687	0.03395
2619.11110	0.03384
2617.82533	0.03367
2616.53956	0.03340
2615.25379	0.03306
2613.96802	0.03280
2612.68226	0.03271
2611.39649	0.03268
2610.11072	0.03249
2608.82495	0.03223
2607.53918	0.03225
2606.25341	0.03265
2604.96764	0.03308
2603.68187	0.03311
2602.39611	0.03274
2601.11034	0.03227
2599.82457	0.03198
2598.53880	0.03186
2597.25303	0.03181
2595.96726	0.03182
2594.68149	0.03195
2593.39572	0.03209
2592.10995	0.03200
2590.82419	0.03158
2589.53842	0.03106
2588.25265	0.03074
2586.96688	0.03070
2585.68111	0.03074
2584.39534	0.03069
2583.10957	0.03057
2581.82380	0.03052
2580.53804	0.03058
2579.25227	0.03067
2577.96650	0.03076
2576.68073	0.03086
2575.39496	0.03093
2574.10919	0.03089
2572.82342	0.03075
2571.53765	0.03062
2570.25188	0.03064
2568.96612	0.03073
2567.68035	0.03073
2566.39458	0.03046
2565.10881	0.02991
2563.82304	0.02924
2562.53727	0.02876
2561.25150	0.02867
2559.96573	0.02890
2558.67997	0.02919
2557.39420	0.02938
2556.10843	0.02949
2554.82266	0.02955
2553.53689	0.02949
2552.25112	0.02921
2550.96535	0.02884
2549.67958	0.02859
2548.39381	0.02857
2547.10805	0.02875
2545.82228	0.02900
2544.53651	0.02919
2543.25074	0.02917
2541.96497	0.02893
2540.67920	0.02865
2539.39343	0.02857
2538.10766	0.02870
2536.82190	0.02886
2535.53613	0.02888
2534.25036	0.02871
2532.96459	0.02843
2531.67882	0.02820
2530.39305	0.02814
2529.10728	0.02827
2527.82151	0.02845
2526.53574	0.02845
2525.24998	0.02814
2523.96421	0.02766
2522.67844	0.02735
2521.39267	0.02747
2520.10690	0.02792
2518.82113	0.02831
2517.53536	0.02828
2516.24959	0.02783
2514.96383	0.02730
2513.67806	0.02712
2512.39229	0.02742
2511.10652	0.02800
2509.82075	0.02851
2508.53498	0.02873
2507.24921	0.02859
2505.96344	0.02822
2504.67767	0.02787
2503.39191	0.02766
2502.10614	0.02757
2500.82037	0.02749
2499.53460	0.02740
2498.24883	0.02738
2496.96306	0.02741
2495.67729	0.02747
2494.39152	0.02754
2493.10576	0.02769
2491.81999	0.02792
2490.53422	0.02812
2489.24845	0.02807
2487.96268	0.02763
2486.67691	0.02697
2485.39114	0.02652
2484.10537	0.02656
2482.81960	0.02689
2481.53384	0.02713
2480.24807	0.02714
2478.96230	0.02709
2477.67653	0.02723
2476.39076	0.02751
2475.10499	0.02772
2473.81922	0.02759
2472.53345	0.02709
2471.24769	0.02642
2469.96192	0.02585
2468.67615	0.02555
2467.39038	0.02549
2466.10461	0.02555
2464.81884	0.02564
2463.53307	0.02578
2462.24730	0.02602
2460.96153	0.02637
2459.67577	0.02674
2458.39000	0.02701
2457.10423	0.02708
2455.81846	0.02696
2454.53269	0.02675
2453.24692	0.02659
2451.96115	0.02656
2450.67538	0.02658
2449.38962	0.02658
2448.10385	0.02650
2446.81808	0.02634
2445.53231	0.02609
2444.24654	0.02580
2442.96077	0.02556
2441.67500	0.02549
2440.38923	0.02565
2439.10346	0.02595
2437.81770	0.02620
2436.53193	0.02626
2435.24616	0.02624
2433.96039	0.02642
2432.67462	0.02690
2431.38885	0.02746
2430.10308	0.02770
2428.81731	0.02749
2427.53155	0.02698
2426.24578	0.02644
2424.96001	0.02609
2423.67424	0.02597
2422.38847	0.02602
2421.10270	0.02603
2419.81693	0.02586
2418.53116	0.02557
2417.24539	0.02534
2415.95963	0.02523
2414.67386	0.02518
2413.38809	0.02508
2412.10232	0.02500
2410.81655	0.02504
2409.53078	0.02527
2408.24501	0.02560
2406.95924	0.02591
2405.67347	0.02611
2404.38771	0.02622
2403.10194	0.02617
2401.81617	0.02593
2400.53040	0.02561
2399.24463	0.02537
2397.95886	0.02540
2396.67309	0.02560
2395.38732	0.02580
2394.10156	0.02585
2392.81579	0.02574
2391.53002	0.02556
2390.24425	0.02548
2388.95848	0.02561
2387.67271	0.02584
2386.38694	0.02596
2385.10117	0.02593
2383.81540	0.02582
2382.52964	0.02576
2381.24387	0.02577
2379.95810	0.02578
2378.67233	0.02578
2377.38656	0.02586
2376.10079	0.02610
2374.81502	0.02647
2373.52925	0.02674
2372.24349	0.02680
2370.95772	0.02679
2369.67195	0.02693
2368.38618	0.02719
2367.10041	0.02738
2365.81464	0.02749
2364.52887	0.02762
2363.24310	0.02772
2361.95733	0.02764
2360.67157	0.02726
2359.38580	0.02695
2358.10003	0.02698
2356.81426	0.02726
2355.52849	0.02754
2354.24272	0.02766
2352.95695	0.02752
2351.67118	0.02707
2350.38542	0.02663
2349.09965	0.02661
2347.81388	0.02688
2346.52811	0.02693
2345.24234	0.02692
2343.95657	0.02745
2342.67080	0.02819
2341.38503	0.02796
2340.09926	0.02694
2338.81350	0.02692
2337.52773	0.02788
2336.24196	0.02773
2334.95619	0.02678
2333.67042	0.02711
2332.38465	0.02810
2331.09888	0.02764
2329.81311	0.02705
2328.52735	0.02766
2327.24158	0.02758
2325.95581	0.02710
2324.67004	0.02761
2323.38427	0.02788
2322.09850	0.02748
2320.81273	0.02757
2319.52696	0.02724
2318.24119	0.02652
2316.95543	0.02628
2315.66966	0.02603
2314.38389	0.02585
2313.09812	0.02594
2311.81235	0.02576
2310.52658	0.02557
2309.24081	0.02536
2307.95504	0.02500
2306.66928	0.02470
2305.38351	0.02444
2304.09774	0.02439
2302.81197	0.02456
2301.52620	0.02473
2300.24043	0.02483
2298.95466	0.02471
2297.66889	0.02444
2296.38312	0.02421
2295.09736	0.02414
2293.81159	0.02428
2292.52582	0.02444
2291.24005	0.02450
2289.95428	0.02439
2288.66851	0.02417
2287.38274	0.02390
2286.09697	0.02365
2284.81121	0.02354
2283.52544	0.02358
2282.23967	0.02364
2280.95390	0.02361
2279.66813	0.02349
2278.38236	0.02339
2277.09659	0.02330
2275.81082	0.02320
2274.52505	0.02316
2273.23929	0.02321
2271.95352	0.02328
2270.66775	0.02319
2269.38198	0.02286
2268.09621	0.02234
2266.81044	0.02174
2265.52467	0.02125
2264.23890	0.02101
2262.95314	0.02100
2261.66737	0.02098
2260.38160	0.02089
2259.09583	0.02087
2257.81006	0.02108
2256.52429	0.02135
2255.23852	0.02133
2253.95275	0.02085
2252.66698	0.02014
2251.38122	0.01971
2250.09545	0.01992
2248.80968	0.02070
2247.52391	0.02134
2246.23814	0.02144
2244.95237	0.02095
2243.66660	0.02032
2242.38083	0.02006
2241.09507	0.02018
2239.80930	0.02025
2238.52353	0.02011
2237.23776	0.02004
2235.95199	0.02029
2234.66622	0.02061
2233.38045	0.02067
2232.09468	0.02057
2230.80891	0.02054
2229.52315	0.02042
2228.23738	0.01984
2226.95161	0.01892
2225.66584	0.01825
2224.38007	0.01817
2223.09430	0.01845
2221.80853	0.01852
2220.52276	0.01810
2219.23700	0.01739
2217.95123	0.01692
2216.66546	0.01719
2215.37969	0.01827
2214.09392	0.01963
2212.80815	0.02045
2211.52238	0.02031
2210.23661	0.01955
2208.95084	0.01891
2207.66508	0.01878
2206.37931	0.01894
2205.09354	0.01896
2203.80777	0.01859
2202.52200	0.01784
2201.23623	0.01694
2199.95046	0.01625
2198.66469	0.01609
2197.37893	0.01653
2196.09316	0.01729
2194.80739	0.01800
2193.52162	0.01830
2192.23585	0.01810
2190.95008	0.01768
2189.66431	0.01747
2188.37854	0.01759
2187.09277	0.01769
2185.80701	0.01745
2184.52124	0.01691
2183.23547	0.01640
2181.94970	0.01606
2180.66393	0.01577
2179.37816	0.01532
2178.09239	0.01471
2176.80662	0.01427
2175.52085	0.01437
2174.23509	0.01496
2172.94932	0.01549
2171.66355	0.01552
2170.37778	0.01529
2169.09201	0.01533
2167.80624	0.01580
2166.52047	0.01630
2165.23470	0.01637
2163.94894	0.01595
2162.66317	0.01523
2161.37740	0.01434
2160.09163	0.01333
2158.80586	0.01222
2157.52009	0.01115
2156.23432	0.01030
2154.94855	0.00981
2153.66278	0.00973
2152.37702	0.01015
2151.09125	0.01105
2149.80548	0.01205
2148.51971	0.01265
2147.23394	0.01283
2145.94817	0.01316
2144.66240	0.01401
2143.37663	0.01497
2142.09087	0.01545
2140.80510	0.01549
2139.51933	0.01562
2138.23356	0.01598
2136.94779	0.01623
2135.66202	0.01603
2134.37625	0.01551
2133.09048	0.01497
2131.80471	0.01463
2130.51895	0.01460
2129.23318	0.01496
2127.94741	0.01566
2126.66164	0.01644
2125.37587	0.01693
2124.09010	0.01703
2122.80433	0.01697
2121.51856	0.01712
2120.23280	0.01755
2118.94703	0.01797
2117.66126	0.01805
2116.37549	0.01772
2115.08972	0.01720
2113.80395	0.01677
2112.51818	0.01661
2111.23241	0.01673
2109.94664	0.01691
2108.66088	0.01697
2107.37511	0.01689
2106.08934	0.01687
2104.80357	0.01694
2103.51780	0.01686
2102.23203	0.01637
2100.94626	0.01569
2099.66049	0.01674
2098.37473	0.01736
2097.08896	0.01740
2095.80319	0.01723
2094.51742	0.01706
2093.23165	0.01703
2091.94588	0.01711
2090.66011	0.01706
2089.37434	0.01678
2088.08857	0.01638
2086.80281	0.01605
2085.51704	0.01587
2084.23127	0.01579
2082.94550	0.01571
2081.65973	0.01560
2080.37396	0.01559
2079.08819	0.01582
2077.80242	0.01633
2076.51666	0.01692
2075.23089	0.01738
2073.94512	0.01766
2072.65935	0.01785
2071.37358	0.01801
2070.08781	0.01804
2068.80204	0.01775
2067.51627	0.01710
2066.23050	0.01632
2064.94474	0.01580
2063.65897	0.01576
2062.37320	0.01606
2061.08743	0.01627
2059.80166	0.01606
2058.51589	0.01541
2057.23012	0.01463
2055.94435	0.01406
2054.65859	0.01401
2053.37282	0.01457
2052.08705	0.01552
2050.80128	0.01633
2049.51551	0.01648
2048.22974	0.01585
2046.94397	0.01485
2045.65820	0.01403
2044.37243	0.01376
2043.08667	0.01396
2041.80090	0.01435
2040.51513	0.01474
2039.22936	0.01518
2037.94359	0.01569
2036.65782	0.01607
2035.37205	0.01609
2034.08628	0.01566
2032.80052	0.01502
2031.51475	0.01463
2030.22898	0.01478
2028.94321	0.01532
2027.65744	0.01575
2026.37167	0.01569
2025.08590	0.01514
2023.80013	0.01435
2022.51436	0.01364
2021.22860	0.01330
2019.94283	0.01346
2018.65706	0.01390
2017.37129	0.01415
2016.08552	0.01392
2014.79975	0.01331
2013.51398	0.01285
2012.22821	0.01314
2010.94245	0.01432
2009.65668	0.01574
2008.37091	0.01645
2007.08514	0.01612
2005.79937	0.01519
2004.51360	0.01430
2003.22783	0.01363
2001.94206	0.01303
2000.65629	0.01240
1999.37053	0.01173
1998.08476	0.01114
1996.79899	0.01077
1995.51322	0.01062
1994.22745	0.01050
1992.94168	0.01025
1991.65591	0.00987
1990.37014	0.00958
1989.08438	0.00961
1987.79861	0.01020
1986.51284	0.01150
1985.22707	0.01330
1983.94130	0.01497
1982.65553	0.01595
1981.36976	0.01633
1980.08399	0.01659
1978.79822	0.01698
1977.51246	0.01730
1976.22669	0.01724
1974.94092	0.01680
1973.65515	0.01609
1972.36938	0.01513
1971.08361	0.01403
1969.79784	0.01306
1968.51207	0.01256
1967.22631	0.01265
1965.94054	0.01322
1964.65477	0.01395
1963.36900	0.01445
1962.08323	0.01443
1960.79746	0.01388
1959.51169	0.01315
1958.22592	0.01271
1956.94015	0.01280
1955.65439	0.01326
1954.36862	0.01381
1953.08285	0.01425
1951.79708	0.01460
1950.51131	0.01488
1949.22554	0.01500
1947.93977	0.01481
1946.65400	0.01433
1945.36823	0.01383
1944.08247	0.01371
1942.79670	0.01413
1941.51093	0.01483
1940.22516	0.01537
1938.93939	0.01550
1937.65362	0.01544
1936.36785	0.01552
1935.08208	0.01584
1933.79632	0.01621
1932.51055	0.01640
1931.22478	0.01632
1929.93901	0.01611
1928.65324	0.01593
1927.36747	0.01579
1926.08170	0.01557
1924.79593	0.01527
1923.51016	0.01504
1922.22440	0.01505
1920.93863	0.01535
1919.65286	0.01581
1918.36709	0.01620
1917.08132	0.01630
1915.79555	0.01606
1914.50978	0.01560
1913.22401	0.01520
1911.93825	0.01509
1910.65248	0.01530
1909.36671	0.01570
1908.08094	0.01607
1906.79517	0.01621
1905.50940	0.01606
1904.22363	0.01570
1902.93786	0.01532
1901.65209	0.01502
1900.36633	0.01487
1899.08056	0.01487
1897.79479	0.01499
1896.50902	0.01515
1895.22325	0.01521
1893.93748	0.01512
1892.65171	0.01502
1891.36594	0.01511
1890.08018	0.01541
1888.79441	0.01582
1887.50864	0.01611
1886.22287	0.01616
1884.93710	0.01595
1883.65133	0.01560
1882.36556	0.01532
1881.07979	0.01527
1879.79402	0.01547
1878.50826	0.01580
1877.22249	0.01609
1875.93672	0.01617
1874.65095	0.01601
1873.36518	0.01574
1872.07941	0.01556
1870.79364	0.01559
1869.50787	0.01578
1868.22211	0.01590
1866.93634	0.01581
1865.65057	0.01553
1864.36480	0.01522
1863.07903	0.01503
1861.79326	0.01498
1860.50749	0.01504
1859.22172	0.01520
1857.93595	0.01540
1856.65019	0.01557
1855.36442	0.01559
1854.07865	0.01543
1852.79288	0.01515
1851.50711	0.01491
1850.22134	0.01478
1848.93557	0.01480
1847.64980	0.01492
1846.36404	0.01504
1845.07827	0.01501
1843.79250	0.01475
1842.50673	0.01439
1841.22096	0.01413
1839.93519	0.01411
1838.64942	0.01428
1837.36365	0.01447
1836.07788	0.01456
1834.79212	0.01456
1833.50635	0.01452
1832.22058	0.01454
1830.93481	0.01464
1829.64904	0.01485
1828.36327	0.01511
1827.07750	0.01537
1825.79173	0.01558
1824.50597	0.01576
1823.22020	0.01596
1821.93443	0.01618
1820.64866	0.01633
1819.36289	0.01629
1818.07712	0.01601
1816.79135	0.01555
1815.50558	0.01506
1814.21981	0.01464
1812.93405	0.01436
1811.64828	0.01421
1810.36251	0.01418
1809.07674	0.01422
1807.79097	0.01426
1806.50520	0.01425
1805.21943	0.01417
1803.93366	0.01409
1802.64790	0.01411
1801.36213	0.01422
1800.07636	0.01433
1798.79059	0.01436
1797.50482	0.01432
1796.21905	0.01431
1794.93328	0.01437
1793.64751	0.01450
1792.36174	0.01463
1791.07598	0.01473
1789.79021	0.01479
1788.50444	0.01480
1787.21867	0.01476
1785.93290	0.01466
1784.64713	0.01455
1783.36136	0.01447
1782.07559	0.01443
1780.78983	0.01443
1779.50406	0.01447
1778.21829	0.01448
1776.93252	0.01438
1775.64675	0.01415
1774.36098	0.01388
1773.07521	0.01369
1771.78944	0.01362
1770.50367	0.01364
1769.21791	0.01366
1767.93214	0.01364
1766.64637	0.01360
1765.36060	0.01361
1764.07483	0.01370
1762.78906	0.01383
1761.50329	0.01394
1760.21752	0.01399
1758.93176	0.01399
1757.64599	0.01397
1756.36022	0.01395
1755.07445	0.01397
1753.78868	0.01403
1752.50291	0.01413
1751.21714	0.01423
1749.93137	0.01429
1748.64560	0.01433
1747.35984	0.01440
1746.07407	0.01453
1744.78830	0.01469
1743.50253	0.01485
1742.21676	0.01497
1740.93099	0.01508
1739.64522	0.01524
1738.35945	0.01543
1737.07369	0.01563
1735.78792	0.01583
1734.50215	0.01603
1733.21638	0.01625
1731.93061	0.01647
1730.64484	0.01665
1729.35907	0.01677
1728.07330	0.01686
1726.78753	0.01696
1725.50177	0.01710
1724.21600	0.01725
1722.93023	0.01738
1721.64446	0.01753
1720.35869	0.01772
1719.07292	0.01795
1717.78715	0.01819
1716.50138	0.01844
1715.21561	0.01873
1713.92985	0.01905
1712.64408	0.01938
1711.35831	0.01970
1710.07254	0.02003
1708.78677	0.02044
1707.50100	0.02094
1706.21523	0.02155
1704.92946	0.02222
1703.64370	0.02296
1702.35793	0.02374
1701.07216	0.02461
1699.78639	0.02557
1698.50062	0.02665
1697.21485	0.02786
1695.92908	0.02912
1694.64331	0.03032
1693.35754	0.03139
1692.07178	0.03235
1690.78601	0.03331
1689.50024	0.03434
1688.21447	0.03546
1686.92870	0.03669
1685.64293	0.03801
1684.35716	0.03939
1683.07139	0.04078
1681.78563	0.04214
1680.49986	0.04349
1679.21409	0.04484
1677.92832	0.04621
1676.64255	0.04760
1675.35678	0.04903
1674.07101	0.05052
1672.78524	0.05206
1671.49947	0.05365
1670.21371	0.05529
1668.92794	0.05694
1667.64217	0.05858
1666.35640	0.06018
1665.07063	0.06173
1663.78486	0.06321
1662.49909	0.06460
1661.21332	0.06592
1659.92756	0.06721
1658.64179	0.06851
1657.35602	0.06979
1656.07025	0.07101
1654.78448	0.07217
1653.49871	0.07326
1652.21294	0.07423
1650.92717	0.07505
1649.64140	0.07572
1648.35564	0.07630
1647.06987	0.07687
1645.78410	0.07746
1644.49833	0.07805
1643.21256	0.07862
1641.92679	0.07913
1640.64102	0.07954
1639.35525	0.07985
1638.06949	0.08009
1636.78372	0.08030
1635.49795	0.08054
1634.21218	0.08079
1632.92641	0.08101
1631.64064	0.08111
1630.35487	0.08106
1629.06910	0.08082
1627.78333	0.08036
1626.49757	0.07970
1625.21180	0.07888
1623.92603	0.07796
1622.64026	0.07698
1621.35449	0.07596
1620.06872	0.07484
1618.78295	0.07361
1617.49718	0.07225
1616.21142	0.07081
1614.92565	0.06933
1613.63988	0.06785
1612.35411	0.06640
1611.06834	0.06496
1609.78257	0.06351
1608.49680	0.06202
1607.21103	0.06050
1605.92526	0.05901
1604.63950	0.05761
1603.35373	0.05634
1602.06796	0.05517
1600.78219	0.05411
1599.49642	0.05311
1598.21065	0.05218
1596.92488	0.05128
1595.63911	0.05040
1594.35335	0.04954
1593.06758	0.04873
1591.78181	0.04801
1590.49604	0.04738
1589.21027	0.04686
1587.92450	0.04647
1586.63873	0.04619
1585.35296	0.04597
1584.06719	0.04579
1582.78143	0.04567
1581.49566	0.04564
1580.20989	0.04574
1578.92412	0.04592
1577.63835	0.04614
1576.35258	0.04636
1575.06681	0.04662
1573.78104	0.04695
1572.49528	0.04736
1571.20951	0.04790
1569.92374	0.04856
1568.63797	0.04933
1567.35220	0.05015
1566.06643	0.05100
1564.78066	0.05186
1563.49489	0.05274
1562.20912	0.05366
1560.92336	0.05459
1559.63759	0.05552
1558.35182	0.05644
1557.06605	0.05734
1555.78028	0.05825
1554.49451	0.05918
1553.20874	0.06014
1551.92297	0.06109
1550.63721	0.06199
1549.35144	0.06280
1548.06567	0.06350
1546.77990	0.06414
1545.49413	0.06473
1544.20836	0.06528
1542.92259	0.06578
1541.63682	0.06624
1540.35105	0.06666
1539.06529	0.06704
1537.77952	0.06734
1536.49375	0.06756
1535.20798	0.06773
1533.92221	0.06788
1532.63644	0.06801
1531.35067	0.06808
1530.06490	0.06809
1528.77914	0.06807
1527.49337	0.06803
1526.20760	0.06797
1524.92183	0.06789
1523.63606	0.06779
1522.35029	0.06772
1521.06452	0.06766
1519.77875	0.06759
1518.49298	0.06743
1517.20722	0.06719
1515.92145	0.06686
1514.63568	0.06646
1513.34991	0.06597
1512.06414	0.06536
1510.77837	0.06464
1509.49260	0.06383
1508.20683	0.06298
1506.92107	0.06210
1505.63530	0.06121
1504.34953	0.06030
1503.06376	0.05934
1501.77799	0.05835
1500.49222	0.05733
1499.20645	0.05628
1497.92068	0.05517
1496.63491	0.05403
1495.34915	0.05289
1494.06338	0.05180
1492.77761	0.05079
1491.49184	0.04980
1490.20607	0.04882
1488.92030	0.04783
1487.63453	0.04689
1486.34876	0.04603
1485.06299	0.04524
1483.77723	0.04452
1482.49146	0.04386
1481.20569	0.04330
1479.91992	0.04287
1478.63415	0.04260
1477.34838	0.04249
1476.06261	0.04249
1474.77684	0.04257
1473.49108	0.04274
1472.20531	0.04300
1470.91954	0.04335
1469.63377	0.04373
1468.34800	0.04408
1467.06223	0.04438
1465.77646	0.04467
1464.49069	0.04499
1463.20492	0.04536
1461.91916	0.04577
1460.63339	0.04621
1459.34762	0.04670
1458.06185	0.04725
1456.77608	0.04779
1455.49031	0.04827
1454.20454	0.04862
1452.91877	0.04886
1451.63301	0.04905
1450.34724	0.04921
1449.06147	0.04934
1447.77570	0.04942
1446.48993	0.04943
1445.20416	0.04936
1443.91839	0.04918
1442.63262	0.04890
1441.34685	0.04850
1440.06109	0.04804
1438.77532	0.04755
1437.48955	0.04710
1436.20378	0.04668
1434.91801	0.04628
1433.63224	0.04587
1432.34647	0.04544
1431.06070	0.04499
1429.77494	0.04456
1428.48917	0.04421
1427.20340	0.04396
1425.91763	0.04381
1424.63186	0.04372
1423.34609	0.04366
1422.06032	0.04362
1420.77455	0.04363
1419.48878	0.04367
1418.20302	0.04371
1416.91725	0.04371
1415.63148	0.04370
1414.34571	0.04370
1413.05994	0.04372
1411.77417	0.04377
1410.48840	0.04382
1409.20263	0.04386
1407.91687	0.04386
1406.63110	0.04380
1405.34533	0.04372
1404.05956	0.04369
1402.77379	0.04372
1401.48802	0.04379
1400.20225	0.04384
1398.91648	0.04384
1397.63071	0.04379
1396.34495	0.04375
1395.05918	0.04374
1393.77341	0.04377
1392.48764	0.04383
1391.20187	0.04388
1389.91610	0.04391
1388.63033	0.04393
1387.34456	0.04394
1386.05880	0.04392
1384.77303	0.04380
1383.48726	0.04360
1382.20149	0.04335
1380.91572	0.04313
1379.62995	0.04298
1378.34418	0.04288
1377.05841	0.04279
1375.77264	0.04264
1374.48688	0.04242
1373.20111	0.04215
1371.91534	0.04186
1370.62957	0.04163
1369.34380	0.04142
1368.05803	0.04118
1366.77226	0.04085
1365.48649	0.04043
1364.20073	0.03999
1362.91496	0.03960
1361.62919	0.03931
1360.34342	0.03908
1359.05765	0.03889
1357.77188	0.03871
1356.48611	0.03853
1355.20034	0.03838
1353.91457	0.03831
1352.62881	0.03836
1351.34304	0.03849
1350.05727	0.03862
1348.77150	0.03871
1347.48573	0.03872
1346.19996	0.03868
1344.91419	0.03867
1343.62842	0.03874
1342.34266	0.03890
1341.05689	0.03910
1339.77112	0.03926
1338.48535	0.03937
1337.19958	0.03945
1335.91381	0.03949
1334.62804	0.03947
1333.34227	0.03939
1332.05650	0.03927
1330.77074	0.03912
1329.48497	0.03896
1328.19920	0.03877
1326.91343	0.03855
1325.62766	0.03834
1324.34189	0.03816
1323.05612	0.03805
1321.77035	0.03801
1320.48459	0.03801
1319.19882	0.03804
1317.91305	0.03805
1316.62728	0.03802
1315.34151	0.03796
1314.05574	0.03787
1312.76997	0.03779
1311.48420	0.03772
1310.19843	0.03764
1308.91267	0.03753
1307.62690	0.03742
1306.34113	0.03734
1305.05536	0.03731
1303.76959	0.03728
1302.48382	0.03724
1301.19805	0.03718
1299.91228	0.03712
1298.62652	0.03707
1297.34075	0.03705
1296.05498	0.03705
1294.76921	0.03706
1293.48344	0.03707
1292.19767	0.03711
1290.91190	0.03720
1289.62613	0.03733
1288.34036	0.03749
1287.05460	0.03767
1285.76883	0.03785
1284.48306	0.03802
1283.19729	0.03816
1281.91152	0.03828
1280.62575	0.03838
1279.33998	0.03848
1278.05421	0.03858
1276.76845	0.03865
1275.48268	0.03868
1274.19691	0.03868
1272.91114	0.03869
1271.62537	0.03873
1270.33960	0.03883
1269.05383	0.03900
1267.76806	0.03922
1266.48229	0.03945
1265.19653	0.03966
1263.91076	0.03985
1262.62499	0.04003
1261.33922	0.04025
1260.05345	0.04049
1258.76768	0.04073
1257.48191	0.04093
1256.19614	0.04113
1254.91037	0.04136
1253.62461	0.04163
1252.33884	0.04196
1251.05307	0.04231
1249.76730	0.04269
1248.48153	0.04308
1247.19576	0.04350
1245.90999	0.04394
1244.62422	0.04439
1243.33846	0.04480
1242.05269	0.04518
1240.76692	0.04551
1239.48115	0.04582
1238.19538	0.04612
1236.90961	0.04636
1235.62384	0.04652
1234.33807	0.04661
1233.05230	0.04665
1231.76654	0.04666
1230.48077	0.04662
1229.19500	0.04650
1227.90923	0.04629
1226.62346	0.04604
1225.33769	0.04578
1224.05192	0.04552
1222.76615	0.04527
1221.48039	0.04501
1220.19462	0.04475
1218.90885	0.04447
1217.62308	0.04417
1216.33731	0.04387
1215.05154	0.04361
1213.76577	0.04343
1212.48000	0.04331
1211.19423	0.04325
1209.90847	0.04322
1208.62270	0.04320
1207.33693	0.04316
1206.05116	0.04310
1204.76539	0.04304
1203.47962	0.04304
1202.19385	0.04307
1200.90808	0.04298
1199.62232	0.04268
1198.33655	0.04252
1197.05078	0.04236
1195.76501	0.04220
1194.47924	0.04201
1193.19347	0.04179
1191.90770	0.04154
1190.62193	0.04133
1189.33616	0.04116
1188.05040	0.04102
1186.76463	0.04087
1185.47886	0.04069
1184.19309	0.04051
1182.90732	0.04039
1181.62155	0.04035
1180.33578	0.04040
1179.05001	0.04049
1177.76425	0.04056
1176.47848	0.04059
1175.19271	0.04062
1173.90694	0.04067
1172.62117	0.04076
1171.33540	0.04087
1170.04963	0.04099
1168.76386	0.04112
1167.47809	0.04122
1166.19233	0.04130
1164.90656	0.04137
1163.62079	0.04144
1162.33502	0.04150
1161.04925	0.04154
1159.76348	0.04153
1158.47771	0.04146
1157.19194	0.04133
1155.90618	0.04117
1154.62041	0.04102
1153.33464	0.04086
1152.04887	0.04066
1150.76310	0.04041
1149.47733	0.04014
1148.19156	0.03989
1146.90579	0.03971
1145.62002	0.03960
1144.33426	0.03953
1143.04849	0.03945
1141.76272	0.03938
1140.47695	0.03934
1139.19118	0.03932
1137.90541	0.03927
1136.61964	0.03917
1135.33387	0.03906
1134.04811	0.03899
1132.76234	0.03899
1131.47657	0.03904
1130.19080	0.03912
1128.90503	0.03921
1127.61926	0.03933
1126.33349	0.03948
1125.04772	0.03960
1123.76195	0.03968
1122.47619	0.03972
1121.19042	0.03976
1119.90465	0.03984
1118.61888	0.03993
1117.33311	0.04005
1116.04734	0.04024
1114.76157	0.04051
1113.47580	0.04080
1112.19004	0.04102
1110.90427	0.04119
1109.61850	0.04136
1108.33273	0.04159
1107.04696	0.04187
1105.76119	0.04214
1104.47542	0.04239
1103.18965	0.04258
1101.90388	0.04272
1100.61812	0.04285
1099.33235	0.04301
1098.04658	0.04320
1096.76081	0.04342
1095.47504	0.04365
1094.18927	0.04388
1092.90350	0.04413
1091.61773	0.04435
1090.33197	0.04453
1089.04620	0.04468
1087.76043	0.04488
1086.47466	0.04516
1085.18889	0.04548
1083.90312	0.04575
1082.61735	0.04595
1081.33158	0.04614
1080.04581	0.04637
1078.76005	0.04665
1077.47428	0.04691
1076.18851	0.04711
1074.90274	0.04723
1073.61697	0.04732
1072.33120	0.04739
1071.04543	0.04745
1069.75966	0.04746
1068.47390	0.04740
1067.18813	0.04729
1065.90236	0.04717
1064.61659	0.04712
1063.33082	0.04718
1062.04505	0.04729
1060.75928	0.04740
1059.47351	0.04747
1058.18774	0.04754
1056.90198	0.04767
1055.61621	0.04783
1054.33044	0.04796
1053.04467	0.04808
1051.75890	0.04821
1050.47313	0.04837
1049.18736	0.04855
1047.90159	0.04876
1046.61583	0.04902
1045.33006	0.04929
1044.04429	0.04956
1042.75852	0.04983
1041.47275	0.05013
1040.18698	0.05049
1038.90121	0.05085
1037.61544	0.05103
1036.32967	0.05087
1035.04391	0.05042
1033.75814	0.05002
1032.47237	0.05003
1031.18660	0.05048
1029.90083	0.05103
1028.61506	0.05136
1027.32929	0.05135
1026.04352	0.05108
1024.75775	0.05066
1023.47199	0.05016
1022.18622	0.04963
1020.90045	0.04910
1019.61468	0.04856
1018.32891	0.04804
1017.04314	0.04754
1015.75737	0.04709
1014.47160	0.04665
1013.18584	0.04619
1011.90007	0.04573
1010.61430	0.04535
1009.32853	0.04508
1008.04276	0.04489
1006.75699	0.04466
1005.47122	0.04431
1004.18545	0.04384
1002.89968	0.04333
1001.61392	0.04289
1000.32815	0.04261
999.04238	0.04244
997.75661	0.04232
996.47084	0.04216
995.18507	0.04198
993.89930	0.04183
992.61353	0.04172
991.32777	0.04163
990.04200	0.04150
988.75623	0.04130
987.47046	0.04102
986.18469	0.04069
984.89892	0.04041
983.61315	0.04024
982.32738	0.04016
981.04161	0.04012
979.75585	0.04009
978.47008	0.04009
977.18431	0.04014
975.89854	0.04018
974.61277	0.04015
973.32700	0.04004
972.04123	0.03988
970.75546	0.03975
969.46970	0.03967
968.18393	0.03961
966.89816	0.03950
965.61239	0.03929
964.32662	0.03906
963.04085	0.03886
961.75508	0.03870
960.46931	0.03853
959.18354	0.03835
957.89778	0.03815
956.61201	0.03793
955.32624	0.03768
954.04047	0.03743
952.75470	0.03716
951.46893	0.03690
950.18316	0.03666
948.89739	0.03647
947.61163	0.03637
946.32586	0.03631
945.04009	0.03628
943.75432	0.03621
942.46855	0.03610
941.18278	0.03591
939.89701	0.03569
938.61124	0.03545
937.32547	0.03523
936.03971	0.03501
934.75394	0.03481
933.46817	0.03463
932.18240	0.03447
930.89663	0.03433
929.61086	0.03423
928.32509	0.03417
927.03932	0.03412
925.75356	0.03404
924.46779	0.03393
923.18202	0.03378
921.89625	0.03360
920.61048	0.03336
919.32471	0.03309
918.03894	0.03282
916.75317	0.03257
915.46740	0.03232
914.18164	0.03207
912.89587	0.03186
911.61010	0.03170
910.32433	0.03157
909.03856	0.03140
907.75279	0.03118
906.46702	0.03095
905.18125	0.03077
903.89549	0.03066
902.60972	0.03055
901.32395	0.03039
900.03818	0.03018
898.75241	0.02997
897.46664	0.02979
896.18087	0.02968
894.89510	0.02963
893.60933	0.02960
892.32357	0.02950
891.03780	0.02934
889.75203	0.02916
888.46626	0.02901
887.18049	0.02891
885.89472	0.02882
884.60895	0.02871
883.32318	0.02859
882.03742	0.02850
880.75165	0.02851
879.46588	0.02862
878.18011	0.02870
876.89434	0.02859
875.60857	0.02825
874.32280	0.02786
873.03703	0.02761
871.75126	0.02757
870.46550	0.02768
869.17973	0.02781
867.89396	0.02785
866.60819	0.02776
865.32242	0.02760
864.03665	0.02744
862.75088	0.02735
861.46511	0.02733
860.17935	0.02727
858.89358	0.02712
857.60781	0.02693
856.32204	0.02677
855.03627	0.02667
853.75050	0.02661
852.46473	0.02656
851.17896	0.02649
849.89319	0.02640
848.60743	0.02629
847.32166	0.02615
846.03589	0.02599
844.75012	0.02584
843.46435	0.02571
842.17858	0.02561
840.89281	0.02554
839.60704	0.02547
838.32128	0.02540
837.03551	0.02535
835.74974	0.02532
834.46397	0.02529
833.17820	0.02524
831.89243	0.02515
830.60666	0.02502
829.32089	0.02486
828.03512	0.02469
826.74936	0.02456
825.46359	0.02452
824.17782	0.02458
822.89205	0.02469
821.60628	0.02481
820.32051	0.02490
819.03474	0.02496
817.74897	0.02496
816.46321	0.02493
815.17744	0.02488
813.89167	0.02485
812.60590	0.02485
811.32013	0.02487
810.03436	0.02490
808.74859	0.02494
807.46282	0.02499
806.17705	0.02507
804.89129	0.02521
803.60552	0.02540
802.31975	0.02558
801.03398	0.02568
799.74821	0.02570
798.46244	0.02574
797.17667	0.02584
795.89090	0.02601
794.60513	0.02623
793.31937	0.02646
792.03360	0.02664
790.74783	0.02671
789.46206	0.02669
788.17629	0.02665
786.89052	0.02669
785.60475	0.02682
784.31898	0.02696
783.03322	0.02700
781.74745	0.02692
780.46168	0.02680
779.17591	0.02676
777.89014	0.02681
776.60437	0.02685
775.31860	0.02677
774.03283	0.02661
772.74706	0.02645
771.46130	0.02637
770.17553	0.02642
768.88976	0.02657
767.60399	0.02675
766.31822	0.02688
765.03245	0.02692
763.74668	0.02694
762.46091	0.02704
761.17515	0.02723
759.88938	0.02745
758.60361	0.02764
757.31784	0.02776
756.03207	0.02783
754.74630	0.02788
753.46053	0.02789
752.17476	0.02788
750.88899	0.02788
749.60323	0.02789
748.31746	0.02790
747.03169	0.02793
745.74592	0.02797
744.46015	0.02801
743.17438	0.02804
741.88861	0.02807
740.60284	0.02812
739.31708	0.02821
738.03131	0.02831
736.74554	0.02841
735.45977	0.02851
734.17400	0.02862
732.88823	0.02871
731.60246	0.02882
730.31669	0.02898
729.03092	0.02916
727.74516	0.02927
726.45939	0.02928
725.17362	0.02925
723.88785	0.02924
722.60208	0.02940
721.31631	0.02963
720.03054	0.02981
718.74477	0.02989
717.45901	0.02984
716.17324	0.02969
714.88747	0.02952
713.60170	0.02941
712.31593	0.02937
711.03016	0.02939
709.74439	0.02944
708.45862	0.02950
707.17285	0.02962
705.88709	0.02978
704.60132	0.03000
703.31555	0.03021
702.02978	0.03039
700.74401	0.03049
699.45824	0.03054
698.17247	0.03057
696.88670	0.03063
695.60094	0.03071
694.31517	0.03080
693.02940	0.03088
691.74363	0.03092
690.45786	0.03093
689.17209	0.03092
687.88632	0.03089
686.60055	0.03088
685.31478	0.03091
684.02902	0.03096
682.74325	0.03098
681.45748	0.03095
680.17171	0.03093
678.88594	0.03095
677.60017	0.03101
676.31440	0.03108
675.02863	0.03116
673.74287	0.03126
672.45710	0.03140
671.17133	0.03155
669.88556	0.03166
668.59979	0.03172
667.31402	0.03177
666.02825	0.03172
664.74248	0.03170
663.45671	0.03174
662.17095	0.03185
660.88518	0.03201
659.59941	0.03221
658.31364	0.03238
657.02787	0.03250
655.74210	0.03257
654.45633	0.03260
653.17056	0.03264
651.88480	0.03270
650.59903	0.03279
649.31326	0.03295
648.02749	0.03317
646.74172	0.03340
645.45595	0.03352
644.17018	0.03350
642.88441	0.03340
641.59864	0.03330
640.31288	0.03324
639.02711	0.03320
637.74134	0.03312
636.45557	0.03298
635.16980	0.03284
633.88403	0.03275
632.59826	0.03271
631.31249	0.03291
630.02673	0.03417
628.74096	0.03599
627.45519	0.03493
626.16942	0.03703
624.88365	0.04141
623.59788	0.04582
622.31211	0.04925
621.02634	0.05097
619.74057	0.05058
618.45481	0.04838
617.16904	0.04519
615.88327	0.04193
614.59750	0.03950
613.31173	0.03855
612.02596	0.03914
610.74019	0.04068
609.45442	0.04234
608.16866	0.04350
606.88289	0.04384
605.59712	0.04348
604.31135	0.04280
603.02558	0.04212
601.73981	0.04140
600.45404	0.04055
599.16827	0.03968
597.88250	0.03899
596.59674	0.03855
595.31097	0.03828
594.02520	0.03809
592.73943	0.03798
591.45366	0.03800
590.16789	0.03814
588.88212	0.03832
587.59635	0.03849
586.31059	0.03862
585.02482	0.03862
583.73905	0.03847
582.45328	0.03823
581.16751	0.03809
579.88174	0.03819
578.59597	0.03846
577.31020	0.03872
576.02443	0.03892
574.73867	0.03914
573.45290	0.03947
572.16713	0.03990
570.88136	0.04026
569.59559	0.04044
568.30982	0.04044
567.02405	0.04041
565.73828	0.04046
564.45251	0.04054
563.16675	0.04052
561.88098	0.04031
560.59521	0.03998
559.30944	0.03965
558.02367	0.03937
556.73790	0.03916
555.45213	0.03899
554.16636	0.03890
552.88060	0.03891
551.59483	0.03899
550.30906	0.03904
549.02329	0.03897
547.73752	0.03879
546.45175	0.03863
545.16598	0.03854
543.88021	0.03854
542.59444	0.03851
541.30868	0.03838
540.02291	0.03819
538.73714	0.03806
537.45137	0.03807
536.16560	0.03821
534.87983	0.03837
533.59406	0.03845
532.30829	0.03845
531.02253	0.03842
529.73676	0.03842
528.45099	0.03845
527.16522	0.03847
525.87945	0.03842
524.59368	0.03832
523.30791	0.03821
522.02214	0.03815
520.73637	0.03814
519.45061	0.03814
518.16484	0.03814
516.87907	0.03810
515.59330	0.03801
514.30753	0.03784
513.02176	0.03763
511.73599	0.03746
510.45022	0.03738
509.16446	0.03734
507.87869	0.03729
506.59292	0.03720
505.30715	0.03704
504.02138	0.03677
502.73561	0.03644
501.44984	0.03615
500.16407	0.03600
498.87830	0.03596
497.59254	0.03594
496.30677	0.03589
495.02100	0.03579
493.73523	0.03564
492.44946	0.03545
491.16369	0.03527
489.87792	0.03512
488.59215	0.03499
487.30639	0.03485
486.02062	0.03467
484.73485	0.03447
483.44908	0.03429
482.16331	0.03419
480.87754	0.03415
479.59177	0.03416
478.30600	0.03422
477.02023	0.03432
475.73447	0.03445
474.44870	0.03457
473.16293	0.03463
471.87716	0.03460
470.59139	0.03447
469.30562	0.03430
468.01985	0.03416
466.73408	0.03409
465.44832	0.03409
464.16255	0.03411
462.87678	0.03408
461.59101	0.03400
460.30524	0.03387
459.01947	0.03371
457.73370	0.03356
456.44793	0.03339
455.16216	0.03319
453.87640	0.03293
452.59063	0.03265
451.30486	0.03243
450.01909	0.03229
448.73332	0.03220
447.44755	0.03207
446.16178	0.03187
444.87601	0.03169
443.59025	0.03158
442.30448	0.03157
441.01871	0.03163
439.73294	0.03170
438.44717	0.03177
437.16140	0.03179
435.87563	0.03173
434.58986	0.03157
433.30409	0.03138
432.01833	0.03123
430.73256	0.03119
429.44679	0.03127
428.16102	0.03139
426.87525	0.03147
425.58948	0.03144
424.30371	0.03129
423.01794	0.03106
421.73218	0.03083
420.44641	0.03068
419.16064	0.03063
417.87487	0.03061
416.58910	0.03054
415.30333	0.03038
414.01756	0.03013
412.73179	0.02985
411.44602	0.02961
410.16026	0.02945
408.87449	0.02939
407.58872	0.02937
406.30295	0.02930
405.01718	0.02918
403.73141	0.02902
402.44564	0.02893
401.15987	0.02897
399.87411	0.02910
