3997.45528	0.04817
3996.16951	0.04810
3994.88374	0.04830
3993.59798	0.04879
3992.31221	0.04928
3991.02644	0.04949
3989.74067	0.04941
3988.45490	0.04920
3987.16913	0.04905
3985.88336	0.04903
3984.59759	0.04910
3983.31183	0.04918
3982.02606	0.04924
3980.74029	0.04933
3979.45452	0.04946
3978.16875	0.04951
3976.88298	0.04932
3975.59721	0.04888
3974.31144	0.04829
3973.02567	0.04759
3971.73991	0.04696
3970.45414	0.04665
3969.16837	0.04681
3967.88260	0.04718
3966.59683	0.04737
3965.31106	0.04721
3964.02529	0.04686
3962.73952	0.04656
3961.45376	0.04645
3960.16799	0.04651
3958.88222	0.04658
3957.59645	0.04650
3956.31068	0.04629
3955.02491	0.04614
3953.73914	0.04633
3952.45337	0.04693
3951.16760	0.04773
3949.88184	0.04830
3948.59607	0.04839
3947.31030	0.04810
3946.02453	0.04776
3944.73876	0.04758
3943.45299	0.04755
3942.16722	0.04759
3940.88145	0.04766
3939.59569	0.04772
3938.30992	0.04766
3937.02415	0.04742
3935.73838	0.04709
3934.45261	0.04684
3933.16684	0.04680
3931.88107	0.04697
3930.59530	0.04726
3929.30953	0.04755
3928.02377	0.04766
3926.73800	0.04747
3925.45223	0.04702
3924.16646	0.04661
3922.88069	0.04642
3921.59492	0.04635
3920.30915	0.04612
3919.02338	0.04564
3917.73762	0.04516
3916.45185	0.04508
3915.16608	0.04560
3913.88031	0.04646
3912.59454	0.04721
3911.30877	0.04749
3910.02300	0.04732
3908.73723	0.04697
3907.45146	0.04665
3906.16570	0.04632
3904.87993	0.04588
3903.59416	0.04534
3902.30839	0.04477
3901.02262	0.04432
3899.73685	0.04410
3898.45108	0.04422
3897.16531	0.04459
3895.87955	0.04499
3894.59378	0.04525
3893.30801	0.04540
3892.02224	0.04570
3890.73647	0.04642
3889.45070	0.04739
3888.16493	0.04801
3886.87916	0.04788
3885.59339	0.04716
3884.30763	0.04639
3883.02186	0.04596
3881.73609	0.04587
3880.45032	0.04599
3879.16455	0.04616
3877.87878	0.04636
3876.59301	0.04670
3875.30724	0.04733
3874.02148	0.04810
3872.73571	0.04858
3871.44994	0.04843
3870.16417	0.04779
3868.87840	0.04703
3867.59263	0.04630
3866.30686	0.04574
3865.02109	0.04568
3863.73532	0.04619
3862.44956	0.04680
3861.16379	0.04697
3859.87802	0.04670
3858.59225	0.04636
3857.30648	0.04613
3856.02071	0.04585
3854.73494	0.04537
3853.44917	0.04492
3852.16341	0.04470
3850.87764	0.04462
3849.59187	0.04462
3848.30610	0.04482
3847.02033	0.04529
3845.73456	0.04576
3844.44879	0.04588
3843.16302	0.04563
3841.87725	0.04527
3840.59149	0.04501
3839.30572	0.04487
3838.01995	0.04484
3836.73418	0.04486
3835.44841	0.04482
3834.16264	0.04462
3832.87687	0.04430
3831.59110	0.04402
3830.30534	0.04378
3829.01957	0.04349
3827.73380	0.04310
3826.44803	0.04274
3825.16226	0.04253
3823.87649	0.04240
3822.59072	0.04227
3821.30495	0.04232
3820.01918	0.04274
3818.73342	0.04327
3817.44765	0.04356
3816.16188	0.04359
3814.87611	0.04358
3813.59034	0.04360
3812.30457	0.04362
3811.01880	0.04369
3809.73303	0.04380
3808.44726	0.04391
3807.16150	0.04413
3805.87573	0.04451
3804.58996	0.04480
3803.30419	0.04475
3802.01842	0.04446
3800.73265	0.04414
3799.44688	0.04375
3798.16111	0.04318
3796.87535	0.04263
3795.58958	0.04243
3794.30381	0.04254
3793.01804	0.04269
3791.73227	0.04271
3790.44650	0.04264
3789.16073	0.04263
3787.87496	0.04281
3786.58919	0.04311
3785.30343	0.04333
3784.01766	0.04336
3782.73189	0.04326
3781.44612	0.04324
3780.16035	0.04344
3778.87458	0.04386
3777.58881	0.04436
3776.30304	0.04478
3775.01728	0.04503
3773.73151	0.04500
3772.44574	0.04450
3771.15997	0.04355
3769.87420	0.04251
3768.58843	0.04186
3767.30266	0.04184
3766.01689	0.04225
3764.73112	0.04262
3763.44536	0.04259
3762.15959	0.04215
3760.87382	0.04160
3759.58805	0.04129
3758.30228	0.04126
3757.01651	0.04136
3755.73074	0.04137
3754.44497	0.04107
3753.15921	0.04046
3751.87344	0.03971
3750.58767	0.03903
3749.30190	0.03866
3748.01613	0.03872
3746.73036	0.03902
3745.44459	0.03940
3744.15882	0.03996
3742.87305	0.04051
3741.58729	0.04060
3740.30152	0.04015
3739.01575	0.03949
3737.72998	0.03892
3736.44421	0.03866
3735.15844	0.03874
3733.87267	0.03885
3732.58690	0.03872
3731.30114	0.03844
3730.01537	0.03832
3728.72960	0.03849
3727.44383	0.03885
3726.15806	0.03930
3724.87229	0.03969
3723.58652	0.03989
3722.30075	0.03977
3721.01498	0.03933
3719.72922	0.03870
3718.44345	0.03815
3717.15768	0.03785
3715.87191	0.03778
3714.58614	0.03780
3713.30037	0.03780
3712.01460	0.03777
3710.72883	0.03762
3709.44307	0.03727
3708.15730	0.03684
3706.87153	0.03657
3705.58576	0.03650
3704.29999	0.03648
3703.01422	0.03639
3701.72845	0.03627
3700.44268	0.03624
3699.15691	0.03632
3697.87115	0.03648
3696.58538	0.03671
3695.29961	0.03703
3694.01384	0.03750
3692.72807	0.03814
3691.44230	0.03878
3690.15653	0.03906
3688.87076	0.03874
3687.58500	0.03790
3686.29923	0.03683
3685.01346	0.03582
3683.72769	0.03522
3682.44192	0.03527
3681.15615	0.03593
3679.87038	0.03693
3678.58461	0.03788
3677.29884	0.03852
3676.01308	0.03886
3674.72731	0.03901
3673.44154	0.03887
3672.15577	0.03842
3670.87000	0.03814
3669.58423	0.03841
3668.29846	0.03900
3667.01269	0.03946
3665.72693	0.03968
3664.44116	0.03978
3663.15539	0.03978
3661.86962	0.03970
3660.58385	0.03963
3659.29808	0.03957
3658.01231	0.03938
3656.72654	0.03907
3655.44077	0.03884
3654.15501	0.03879
3652.86924	0.03886
3651.58347	0.03907
3650.29770	0.03963
3649.01193	0.04059
3647.72616	0.04180
3646.44039	0.04293
3645.15462	0.04364
3643.86886	0.04375
3642.58309	0.04334
3641.29732	0.04277
3640.01155	0.04237
3638.72578	0.04224
3637.44001	0.04234
3636.15424	0.04260
3634.86847	0.04306
3633.58270	0.04370
3632.29694	0.04437
3631.01117	0.04490
3629.72540	0.04536
3628.43963	0.04597
3627.15386	0.04674
3625.86809	0.04748
3624.58232	0.04812
3623.29655	0.04866
3622.01079	0.04903
3620.72502	0.04922
3619.43925	0.04939
3618.15348	0.04963
3616.86771	0.04974
3615.58194	0.04955
3614.29617	0.04923
3613.01040	0.04927
3611.72463	0.05000
3610.43887	0.05131
3609.15310	0.05272
3607.86733	0.05358
3606.58156	0.05352
3605.29579	0.05277
3604.01002	0.05201
3602.72425	0.05173
3601.43848	0.05189
3600.15272	0.05223
3598.86695	0.05272
3597.58118	0.05348
3596.29541	0.05445
3595.00964	0.05536
3593.72387	0.05597
3592.43810	0.05627
3591.15233	0.05648
3589.86656	0.05685
3588.58080	0.05743
3587.29503	0.05802
3586.00926	0.05845
3584.72349	0.05875
3583.43772	0.05907
3582.15195	0.05943
3580.86618	0.05967
3579.58041	0.05966
3578.29464	0.05953
3577.00888	0.05950
3575.72311	0.05965
3574.43734	0.05992
3573.15157	0.06017
3571.86580	0.06037
3570.58003	0.06057
3569.29426	0.06094
3568.00849	0.06159
3566.72273	0.06250
3565.43696	0.06353
3564.15119	0.06456
3562.86542	0.06548
3561.57965	0.06623
3560.29388	0.06672
3559.00811	0.06700
3557.72234	0.06725
3556.43657	0.06759
3555.15081	0.06796
3553.86504	0.06822
3552.57927	0.06835
3551.29350	0.06847
3550.00773	0.06868
3548.72196	0.06901
3547.43619	0.06947
3546.15042	0.07006
3544.86466	0.07069
3543.57889	0.07120
3542.29312	0.07146
3541.00735	0.07159
3539.72158	0.07185
3538.43581	0.07243
3537.15004	0.07326
3535.86427	0.07409
3534.57850	0.07475
3533.29274	0.07522
3532.00697	0.07556
3530.72120	0.07592
3529.43543	0.07638
3528.14966	0.07696
3526.86389	0.07755
3525.57812	0.07801
3524.29235	0.07829
3523.00659	0.07843
3521.72082	0.07864
3520.43505	0.07922
3519.14928	0.08028
3517.86351	0.08158
3516.57774	0.08253
3515.29197	0.08270
3514.00620	0.08221
3512.72043	0.08163
3511.43467	0.08145
3510.14890	0.08177
3508.86313	0.08235
3507.57736	0.08296
3506.29159	0.08354
3505.00582	0.08407
3503.72005	0.08441
3502.43428	0.08447
3501.14852	0.08440
3499.86275	0.08456
3498.57698	0.08519
3497.29121	0.08617
3496.00544	0.08716
3494.71967	0.08780
3493.43390	0.08800
3492.14813	0.08791
3490.86236	0.08790
3489.57660	0.08828
3488.29083	0.08919
3487.00506	0.09034
3485.71929	0.09125
3484.43352	0.09155
3483.14775	0.09136
3481.86198	0.09106
3480.57621	0.09096
3479.29045	0.09103
3478.00468	0.09113
3476.71891	0.09125
3475.43314	0.09144
3474.14737	0.09174
3472.86160	0.09208
3471.57583	0.09239
3470.29006	0.09270
3469.00429	0.09317
3467.71853	0.09392
3466.43276	0.09483
3465.14699	0.09557
3463.86122	0.09592
3462.57545	0.09595
3461.28968	0.09591
3460.00391	0.09594
3458.71814	0.09607
3457.43238	0.09634
3456.14661	0.09678
3454.86084	0.09728
3453.57507	0.09754
3452.28930	0.09741
3451.00353	0.09704
3449.71776	0.09687
3448.43199	0.09733
3447.14622	0.09841
3445.86046	0.09966
3444.57469	0.10049
3443.28892	0.10069
3442.00315	0.10055
3440.71738	0.10034
3439.43161	0.10003
3438.14584	0.09954
3436.86007	0.09912
3435.57431	0.09923
3434.28854	0.10002
3433.00277	0.10121
3431.71700	0.10238
3430.43123	0.10335
3429.14546	0.10420
3427.85969	0.10499
3426.57392	0.10562
3425.28815	0.10595
3424.00239	0.10602
3422.71662	0.10612
3421.43085	0.10643
3420.14508	0.10690
3418.85931	0.10729
3417.57354	0.10751
3416.28777	0.10764
3415.00200	0.10785
3413.71624	0.10815
3412.43047	0.10841
3411.14470	0.10852
3409.85893	0.10847
3408.57316	0.10846
3407.28739	0.10866
3406.00162	0.10914
3404.71585	0.10981
3403.43008	0.11052
3402.14432	0.11117
3400.85855	0.11182
3399.57278	0.11254
3398.28701	0.11314
3397.00124	0.11360
3395.71547	0.11386
3394.42970	0.11392
3393.14393	0.11392
3391.85817	0.11402
3390.57240	0.11419
3389.28663	0.11436
3388.00086	0.11450
3386.71509	0.11469
3385.42932	0.11496
3384.14355	0.11533
3382.85778	0.11579
3381.57201	0.11629
3380.28625	0.11680
3379.00048	0.11730
3377.71471	0.11779
3376.42894	0.11825
3375.14317	0.11870
3373.85740	0.11923
3372.57163	0.11990
3371.28586	0.12054
3370.00010	0.12092
3368.71433	0.12100
3367.42856	0.12102
3366.14279	0.12123
3364.85702	0.12168
3363.57125	0.12223
3362.28548	0.12272
3360.99971	0.12311
3359.71394	0.12350
3358.42818	0.12396
3357.14241	0.12441
3355.85664	0.12469
3354.57087	0.12476
3353.28510	0.12482
3351.99933	0.12516
3350.71356	0.12592
3349.42779	0.12701
3348.14202	0.12814
3346.85626	0.12902
3345.57049	0.12959
3344.28472	0.13000
3342.99895	0.13053
3341.71318	0.13126
3340.42741	0.13203
3339.14164	0.13261
3337.85587	0.13294
3336.57011	0.13319
3335.28434	0.13356
3333.99857	0.13414
3332.71280	0.13485
3331.42703	0.13558
3330.14126	0.13629
3328.85549	0.13691
3327.56972	0.13737
3326.28395	0.13769
3324.99819	0.13801
3323.71242	0.13847
3322.42665	0.13904
3321.14088	0.13954
3319.85511	0.13989
3318.56934	0.14013
3317.28357	0.14044
3315.99780	0.14093
3314.71204	0.14158
3313.42627	0.14219
3312.14050	0.14262
3310.85473	0.14284
3309.56896	0.14292
3308.28319	0.14297
3306.99742	0.14309
3305.71165	0.14338
3304.42588	0.14386
3303.14012	0.14444
3301.85435	0.14497
3300.56858	0.14535
3299.28281	0.14563
3297.99704	0.14587
3296.71127	0.14610
3295.42550	0.14624
3294.13973	0.14620
3292.85397	0.14598
3291.56820	0.14570
3290.28243	0.14552
3288.99666	0.14554
3287.71089	0.14579
3286.42512	0.14620
3285.13935	0.14665
3283.85358	0.14702
3282.56781	0.14717
3281.28205	0.14698
3279.99628	0.14648
3278.71051	0.14592
3277.42474	0.14569
3276.13897	0.14598
3274.85320	0.14655
3273.56743	0.14693
3272.28166	0.14682
3270.99590	0.14629
3269.71013	0.14566
3268.42436	0.14519
3267.13859	0.14501
3265.85282	0.14514
3264.56705	0.14549
3263.28128	0.14578
3261.99551	0.14572
3260.70974	0.14525
3259.42398	0.14454
3258.13821	0.14382
3256.85244	0.14321
3255.56667	0.14278
3254.28090	0.14251
3252.99513	0.14229
3251.70936	0.14200
3250.42359	0.14158
3249.13783	0.14105
3247.85206	0.14047
3246.56629	0.13993
3245.28052	0.13953
3243.99475	0.13930
3242.70898	0.13911
3241.42321	0.13874
3240.13744	0.13814
3238.85167	0.13749
3237.56591	0.13708
3236.28014	0.13697
3234.99437	0.13697
3233.70860	0.13685
3232.42283	0.13653
3231.13706	0.13613
3229.85129	0.13573
3228.56552	0.13538
3227.27976	0.13511
3225.99399	0.13493
3224.70822	0.13476
3223.42245	0.13445
3222.13668	0.13397
3220.85091	0.13340
3219.56514	0.13290
3218.27937	0.13256
3216.99360	0.13234
3215.70784	0.13218
3214.42207	0.13203
3213.13630	0.13183
3211.85053	0.13149
3210.56476	0.13099
3209.27899	0.13046
3207.99322	0.13010
3206.70745	0.13002
3205.42169	0.13015
3204.13592	0.13035
3202.85015	0.13051
3201.56438	0.13059
3200.27861	0.13049
3198.99284	0.13013
3197.70707	0.12951
3196.42130	0.12886
3195.13553	0.12848
3193.84977	0.12848
3192.56400	0.12867
3191.27823	0.12877
3189.99246	0.12853
3188.70669	0.12795
3187.42092	0.12723
3186.13515	0.12654
3184.84938	0.12591
3183.56362	0.12522
3182.27785	0.12444
3180.99208	0.12374
3179.70631	0.12329
3178.42054	0.12307
3177.13477	0.12294
3175.84900	0.12274
3174.56323	0.12236
3173.27746	0.12179
3171.99170	0.12112
3170.70593	0.12056
3169.42016	0.12028
3168.13439	0.12023
3166.84862	0.12020
3165.56285	0.11997
3164.27708	0.11937
3162.99131	0.11839
3161.70555	0.11722
3160.41978	0.11624
3159.13401	0.11574
3157.84824	0.11565
3156.56247	0.11565
3155.27670	0.11547
3153.99093	0.11513
3152.70516	0.11475
3151.41939	0.11437
3150.13363	0.11390
3148.84786	0.11333
3147.56209	0.11273
3146.27632	0.11217
3144.99055	0.11158
3143.70478	0.11091
3142.41901	0.11018
3141.13324	0.10960
3139.84748	0.10928
3138.56171	0.10915
3137.27594	0.10903
3135.99017	0.10883
3134.70440	0.10863
3133.41863	0.10856
3132.13286	0.10867
3130.84709	0.10888
3129.56132	0.10903
3128.27556	0.10898
3126.98979	0.10874
3125.70402	0.10843
3124.41825	0.10818
3123.13248	0.10797
3121.84671	0.10768
3120.56094	0.10731
3119.27517	0.10696
3117.98940	0.10674
3116.70364	0.10666
3115.41787	0.10663
3114.13210	0.10651
3112.84633	0.10620
3111.56056	0.10575
3110.27479	0.10538
3108.98902	0.10535
3107.70325	0.10566
3106.41749	0.10606
3105.13172	0.10628
3103.84595	0.10624
3102.56018	0.10607
3101.27441	0.10596
3099.98864	0.10596
3098.70287	0.10599
3097.41710	0.10601
3096.13133	0.10608
3094.84557	0.10628
3093.55980	0.10660
3092.27403	0.10693
3090.98826	0.10718
3089.70249	0.10731
3088.41672	0.10738
3087.13095	0.10744
3085.84518	0.10741
3084.55942	0.10719
3083.27365	0.10681
3081.98788	0.10658
3080.70211	0.10678
3079.41634	0.10737
3078.13057	0.10802
3076.84480	0.10838
3075.55903	0.10835
3074.27326	0.10809
3072.98750	0.10786
3071.70173	0.10779
3070.41596	0.10787
3069.13019	0.10798
3067.84442	0.10799
3066.55865	0.10784
3065.27288	0.10753
3063.98711	0.10715
3062.70135	0.10681
3061.41558	0.10659
3060.12981	0.10647
3058.84404	0.10642
3057.55827	0.10635
3056.27250	0.10621
3054.98673	0.10598
3053.70096	0.10573
3052.41519	0.10545
3051.12943	0.10512
3049.84366	0.10472
3048.55789	0.10428
3047.27212	0.10384
3045.98635	0.10336
3044.70058	0.10279
3043.41481	0.10213
3042.12904	0.10141
3040.84328	0.10074
3039.55751	0.10017
3038.27174	0.09970
3036.98597	0.09921
3035.70020	0.09864
3034.41443	0.09806
3033.12866	0.09762
3031.84289	0.09733
3030.55712	0.09702
3029.27136	0.09650
3027.98559	0.09578
3026.69982	0.09503
3025.41405	0.09446
3024.12828	0.09413
3022.84251	0.09401
3021.55674	0.09400
3020.27097	0.09397
3018.98521	0.09382
3017.69944	0.09346
3016.41367	0.09298
3015.12790	0.09246
3013.84213	0.09203
3012.55636	0.09173
3011.27059	0.09158
3009.98482	0.09157
3008.69905	0.09160
3007.41329	0.09153
3006.12752	0.09128
3004.84175	0.09088
3003.55598	0.09043
3002.27021	0.09004
3000.98444	0.08976
2999.69867	0.08964
2998.41290	0.08980
2997.12714	0.09004
2995.84137	0.09019
2994.55560	0.09018
2993.26983	0.09007
2991.98406	0.08997
2990.69829	0.09000
2989.41252	0.09015
2988.12675	0.09034
2986.84098	0.09045
2985.55522	0.09050
2984.26945	0.09061
2982.98368	0.09093
2981.69791	0.09143
2980.41214	0.09197
2979.12637	0.09251
2977.84060	0.09309
2976.55483	0.09364
2975.26907	0.09408
2973.98330	0.09447
2972.69753	0.09504
2971.41176	0.09582
2970.12599	0.09657
2968.84022	0.09702
2967.55445	0.09727
2966.26868	0.09758
2964.98291	0.09811
2963.69715	0.09875
2962.41138	0.09933
2961.12561	0.09974
2959.83984	0.09997
2958.55407	0.10013
2957.26830	0.10030
2955.98253	0.10045
2954.69676	0.10048
2953.41100	0.10035
2952.12523	0.10014
2950.83946	0.09992
2949.55369	0.09975
2948.26792	0.09970
2946.98215	0.09987
2945.69638	0.10018
2944.41061	0.10052
2943.12484	0.10079
2941.83908	0.10100
2940.55331	0.10120
2939.26754	0.10147
2937.98177	0.10189
2936.69600	0.10249
2935.41023	0.10318
2934.12446	0.10387
2932.83869	0.10454
2931.55293	0.10521
2930.26716	0.10576
2928.98139	0.10604
2927.69562	0.10600
2926.40985	0.10574
2925.12408	0.10545
2923.83831	0.10521
2922.55254	0.10500
2921.26677	0.10475
2919.98101	0.10438
2918.69524	0.10395
2917.40947	0.10357
2916.12370	0.10324
2914.83793	0.10278
2913.55216	0.10199
2912.26639	0.10092
2910.98062	0.09975
2909.69486	0.09870
2908.40909	0.09792
2907.12332	0.09750
2905.83755	0.09736
2904.55178	0.09717
2903.26601	0.09671
2901.98024	0.09603
2900.69447	0.09538
2899.40870	0.09490
2898.12294	0.09462
2896.83717	0.09449
2895.55140	0.09442
2894.26563	0.09435
2892.97986	0.09422
2891.69409	0.09398
2890.40832	0.09364
2889.12255	0.09325
2887.83678	0.09292
2886.55102	0.09276
2885.26525	0.09272
2883.97948	0.09266
2882.69371	0.09254
2881.40794	0.09244
2880.12217	0.09245
2878.83640	0.09253
2877.55063	0.09254
2876.26487	0.09237
2874.97910	0.09206
2873.69333	0.09173
2872.40756	0.09152
2871.12179	0.09137
2869.83602	0.09120
2868.55025	0.09097
2867.26448	0.09069
2865.97871	0.09037
2864.69295	0.08996
2863.40718	0.08951
2862.12141	0.08918
2860.83564	0.08912
2859.54987	0.08932
2858.26410	0.08962
2856.97833	0.08990
2855.69256	0.09016
2854.40680	0.09043
2853.12103	0.09063
2851.83526	0.09056
2850.54949	0.09012
2849.26372	0.08933
2847.97795	0.08828
2846.69218	0.08707
2845.40641	0.08588
2844.12064	0.08496
2842.83488	0.08444
2841.54911	0.08418
2840.26334	0.08391
2838.97757	0.08346
2837.69180	0.08286
2836.40603	0.08229
2835.12026	0.08188
2833.83449	0.08164
2832.54873	0.08142
2831.26296	0.08107
2829.97719	0.08053
2828.69142	0.07995
2827.40565	0.07962
2826.11988	0.07964
2824.83411	0.07989
2823.54834	0.08007
2822.26257	0.07996
2820.97681	0.07949
2819.69104	0.07882
2818.40527	0.07825
2817.11950	0.07798
2815.83373	0.07802
2814.54796	0.07817
2813.26219	0.07820
2811.97642	0.07799
2810.69066	0.07762
2809.40489	0.07725
2808.11912	0.07704
2806.83335	0.07706
2805.54758	0.07728
2804.26181	0.07756
2802.97604	0.07770
2801.69027	0.07757
2800.40450	0.07726
2799.11874	0.07693
2797.83297	0.07669
2796.54720	0.07652
2795.26143	0.07634
2793.97566	0.07611
2792.68989	0.07585
2791.40412	0.07561
2790.11835	0.07543
2788.83259	0.07533
2787.54682	0.07524
2786.26105	0.07516
2784.97528	0.07507
2783.68951	0.07501
2782.40374	0.07499
2781.11797	0.07499
2779.83220	0.07502
2778.54643	0.07501
2777.26067	0.07489
2775.97490	0.07458
2774.68913	0.07411
2773.40336	0.07357
2772.11759	0.07314
2770.83182	0.07288
2769.54605	0.07277
2768.26028	0.07274
2766.97452	0.07272
2765.68875	0.07265
2764.40298	0.07245
2763.11721	0.07214
2761.83144	0.07184
2760.54567	0.07170
2759.25990	0.07173
2757.97413	0.07181
2756.68836	0.07173
2755.40260	0.07148
2754.11683	0.07120
2752.83106	0.07104
2751.54529	0.07103
2750.25952	0.07109
2748.97375	0.07116
2747.68798	0.07121
2746.40221	0.07119
2745.11645	0.07106
2743.83068	0.07078
2742.54491	0.07045
2741.25914	0.07020
2739.97337	0.07007
2738.68760	0.06998
2737.40183	0.06983
2736.11606	0.06963
2734.83029	0.06947
2733.54453	0.06938
2732.25876	0.06925
2730.97299	0.06900
2729.68722	0.06869
2728.40145	0.06846
2727.11568	0.06836
2725.82991	0.06835
2724.54414	0.06838
2723.25838	0.06839
2721.97261	0.06834
2720.68684	0.06819
2719.40107	0.06799
2718.11530	0.06777
2716.82953	0.06758
2715.54376	0.06740
2714.25799	0.06724
2712.97222	0.06711
2711.68646	0.06702
2710.40069	0.06693
2709.11492	0.06681
2707.82915	0.06668
2706.54338	0.06659
2705.25761	0.06656
2703.97184	0.06648
2702.68607	0.06628
2701.40031	0.06600
2700.11454	0.06575
2698.82877	0.06561
2697.54300	0.06552
2696.25723	0.06540
2694.97146	0.06519
2693.68569	0.06494
2692.39992	0.06472
2691.11415	0.06462
2689.82839	0.06467
2688.54262	0.06477
2687.25685	0.06480
2685.97108	0.06468
2684.68531	0.06449
2683.39954	0.06436
2682.11377	0.06432
2680.82800	0.06428
2679.54224	0.06416
2678.25647	0.06398
2676.97070	0.06379
2675.68493	0.06362
2674.39916	0.06344
2673.11339	0.06328
2671.82762	0.06319
2670.54185	0.06314
2669.25608	0.06310
2667.97032	0.06309
2666.68455	0.06321
2665.39878	0.06345
2664.11301	0.06374
2662.82724	0.06394
2661.54147	0.06392
2660.25570	0.06368
2658.96993	0.06334
2657.68417	0.06302
2656.39840	0.06278
2655.11263	0.06256
2653.82686	0.06235
2652.54109	0.06222
2651.25532	0.06222
2649.96955	0.06227
2648.68378	0.06220
2647.39801	0.06193
2646.11225	0.06149
2644.82648	0.06103
2643.54071	0.06065
2642.25494	0.06037
2640.96917	0.06017
2639.68340	0.06006
2638.39763	0.06005
2637.11186	0.06005
2635.82609	0.05993
2634.54033	0.05962
2633.25456	0.05922
2631.96879	0.05887
2630.68302	0.05863
2629.39725	0.05849
2628.11148	0.05838
2626.82571	0.05829
2625.53994	0.05818
2624.25418	0.05797
2622.96841	0.05765
2621.68264	0.05731
2620.39687	0.05713
2619.11110	0.05712
2617.82533	0.05716
2616.53956	0.05704
2615.25379	0.05670
2613.96802	0.05625
2612.68226	0.05590
2611.39649	0.05572
2610.11072	0.05561
2608.82495	0.05546
2607.53918	0.05527
2606.25341	0.05510
2604.96764	0.05491
2603.68187	0.05463
2602.39611	0.05426
2601.11034	0.05389
2599.82457	0.05362
2598.53880	0.05345
2597.25303	0.05332
2595.96726	0.05321
2594.68149	0.05312
2593.39572	0.05306
2592.10995	0.05294
2590.82419	0.05273
2589.53842	0.05251
2588.25265	0.05239
2586.96688	0.05235
2585.68111	0.05228
2584.39534	0.05216
2583.10957	0.05206
2581.82380	0.05202
2580.53804	0.05200
2579.25227	0.05192
2577.96650	0.05182
2576.68073	0.05174
2575.39496	0.05169
2574.10919	0.05164
2572.82342	0.05155
2571.53765	0.05139
2570.25188	0.05122
2568.96612	0.05113
2567.68035	0.05109
2566.39458	0.05088
2565.10881	0.05031
2563.82304	0.04953
2562.53727	0.04896
2561.25150	0.04886
2559.96573	0.04904
2558.67997	0.04912
2557.39420	0.04901
2556.10843	0.04880
2554.82266	0.04859
2553.53689	0.04834
2552.25112	0.04812
2550.96535	0.04809
2549.67958	0.04830
2548.39381	0.04858
2547.10805	0.04881
2545.82228	0.04896
2544.53651	0.04908
2543.25074	0.04910
2541.96497	0.04896
2540.67920	0.04872
2539.39343	0.04852
2538.10766	0.04841
2536.82190	0.04832
2535.53613	0.04819
2534.25036	0.04798
2532.96459	0.04770
2531.67882	0.04737
2530.39305	0.04706
2529.10728	0.04688
2527.82151	0.04683
2526.53574	0.04678
2525.24998	0.04657
2523.96421	0.04620
2522.67844	0.04585
2521.39267	0.04580
2520.10690	0.04617
2518.82113	0.04672
2517.53536	0.04708
2516.24959	0.04708
2514.96383	0.04687
2513.67806	0.04670
2512.39229	0.04660
2511.10652	0.04644
2509.82075	0.04617
2508.53498	0.04590
2507.24921	0.04568
2505.96344	0.04554
2504.67767	0.04549
2503.39191	0.04557
2502.10614	0.04565
2500.82037	0.04554
2499.53460	0.04522
2498.24883	0.04495
2496.96306	0.04497
2495.67729	0.04528
2494.39152	0.04565
2493.10576	0.04589
2491.81999	0.04595
2490.53422	0.04584
2489.24845	0.04558
2487.96268	0.04525
2486.67691	0.04498
2485.39114	0.04488
2484.10537	0.04493
2482.81960	0.04498
2481.53384	0.04492
2480.24807	0.04486
2478.96230	0.04498
2477.67653	0.04536
2476.39076	0.04579
2475.10499	0.04594
2473.81922	0.04559
2472.53345	0.04487
2471.24769	0.04415
2469.96192	0.04374
2468.67615	0.04372
2467.39038	0.04394
2466.10461	0.04413
2464.81884	0.04418
2463.53307	0.04412
2462.24730	0.04406
2460.96153	0.04408
2459.67577	0.04415
2458.39000	0.04416
2457.10423	0.04403
2455.81846	0.04379
2454.53269	0.04370
2453.24692	0.04392
2451.96115	0.04434
2450.67538	0.04463
2449.38962	0.04462
2448.10385	0.04439
2446.81808	0.04413
2445.53231	0.04385
2444.24654	0.04346
2442.96077	0.04298
2441.67500	0.04263
2440.38923	0.04265
2439.10346	0.04305
2437.81770	0.04351
2436.53193	0.04380
2435.24616	0.04396
2433.96039	0.04419
2432.67462	0.04455
2431.38885	0.04486
2430.10308	0.04495
2428.81731	0.04476
2427.53155	0.04438
2426.24578	0.04391
2424.96001	0.04348
2423.67424	0.04322
2422.38847	0.04311
2421.10270	0.04301
2419.81693	0.04279
2418.53116	0.04246
2417.24539	0.04220
2415.95963	0.04213
2414.67386	0.04222
2413.38809	0.04240
2412.10232	0.04259
2410.81655	0.04273
2409.53078	0.04278
2408.24501	0.04274
2406.95924	0.04274
2405.67347	0.04289
2404.38771	0.04317
2403.10194	0.04336
2401.81617	0.04330
2400.53040	0.04304
2399.24463	0.04270
2397.95886	0.04248
2396.67309	0.04238
2395.38732	0.04235
2394.10156	0.04240
2392.81579	0.04253
2391.53002	0.04272
2390.24425	0.04295
2388.95848	0.04322
2387.67271	0.04343
2386.38694	0.04349
2385.10117	0.04342
2383.81540	0.04337
2382.52964	0.04348
2381.24387	0.04370
2379.95810	0.04392
2378.67233	0.04406
2377.38656	0.04415
2376.10079	0.04431
2374.81502	0.04454
2373.52925	0.04483
2372.24349	0.04516
2370.95772	0.04547
2369.67195	0.04580
2368.38618	0.04615
2367.10041	0.04657
2365.81464	0.04708
2364.52887	0.04764
2363.24310	0.04803
2361.95733	0.04812
2360.67157	0.04794
2359.38580	0.04769
2358.10003	0.04748
2356.81426	0.04732
2355.52849	0.04714
2354.24272	0.04687
2352.95695	0.04646
2351.67118	0.04586
2350.38542	0.04525
2349.09965	0.04490
2347.81388	0.04501
2346.52811	0.04545
2345.24234	0.04595
2343.95657	0.04637
2342.67080	0.04668
2341.38503	0.04682
2340.09926	0.04681
2338.81350	0.04675
2337.52773	0.04671
2336.24196	0.04667
2334.95619	0.04663
2333.67042	0.04659
2332.38465	0.04654
2331.09888	0.04634
2329.81311	0.04612
2328.52735	0.04611
2327.24158	0.04619
2325.95581	0.04639
2324.67004	0.04674
2323.38427	0.04689
2322.09850	0.04674
2320.81273	0.04640
2319.52696	0.04580
2318.24119	0.04507
2316.95543	0.04449
2315.66966	0.04402
2314.38389	0.04363
2313.09812	0.04326
2311.81235	0.04284
2310.52658	0.04246
2309.24081	0.04207
2307.95504	0.04156
2306.66928	0.04103
2305.38351	0.04059
2304.09774	0.04041
2302.81197	0.04044
2301.52620	0.04052
2300.24043	0.04057
2298.95466	0.04051
2297.66889	0.04034
2296.38312	0.04011
2295.09736	0.03990
2293.81159	0.03972
2292.52582	0.03951
2291.24005	0.03924
2289.95428	0.03897
2288.66851	0.03872
2287.38274	0.03848
2286.09697	0.03819
2284.81121	0.03791
2283.52544	0.03775
2282.23967	0.03776
2280.95390	0.03785
2279.66813	0.03791
2278.38236	0.03792
2277.09659	0.03786
2275.81082	0.03769
2274.52505	0.03737
2273.23929	0.03694
2271.95352	0.03654
2270.66775	0.03618
2269.38198	0.03574
2268.09621	0.03516
2266.81044	0.03449
2265.52467	0.03392
2264.23890	0.03357
2262.95314	0.03344
2261.66737	0.03348
2260.38160	0.03364
2259.09583	0.03395
2257.81006	0.03435
2256.52429	0.03457
2255.23852	0.03429
2253.95275	0.03339
2252.66698	0.03218
2251.38122	0.03126
2250.09545	0.03125
2248.80968	0.03217
2247.52391	0.03296
2246.23814	0.03307
2244.95237	0.03240
2243.66660	0.03155
2242.38083	0.03110
2241.09507	0.03106
2239.80930	0.03106
2238.52353	0.03097
2237.23776	0.03102
2235.95199	0.03122
2234.66622	0.03120
2233.38045	0.03081
2232.09468	0.03049
2230.80891	0.03068
2229.52315	0.03113
2228.23738	0.03112
2226.95161	0.03031
2225.66584	0.02915
2224.38007	0.02839
2223.09430	0.02843
2221.80853	0.02910
2220.52276	0.02976
2219.23700	0.02982
2217.95123	0.02915
2216.66546	0.02822
2215.37969	0.02759
2214.09392	0.02745
2212.80815	0.02763
2211.52238	0.02788
2210.23661	0.02816
2208.95084	0.02859
2207.66508	0.02918
2206.37931	0.02984
2205.09354	0.03041
2203.80777	0.03068
2202.52200	0.03040
2201.23623	0.02949
2199.95046	0.02833
2198.66469	0.02757
2197.37893	0.02757
2196.09316	0.02795
2194.80739	0.02808
2193.52162	0.02771
2192.23585	0.02706
2190.95008	0.02657
2189.66431	0.02652
2188.37854	0.02688
2187.09277	0.02736
2185.80701	0.02754
2184.52124	0.02719
2183.23547	0.02639
2181.94970	0.02534
2180.66393	0.02421
2179.37816	0.02313
2178.09239	0.02238
2176.80662	0.02225
2175.52085	0.02281
2174.23509	0.02361
2172.94932	0.02389
2171.66355	0.02319
2170.37778	0.02195
2169.09201	0.02126
2167.80624	0.02185
2166.52047	0.02335
2165.23470	0.02473
2163.94894	0.02518
2162.66317	0.02454
2161.37740	0.02308
2160.09163	0.02126
2158.80586	0.01970
2157.52009	0.01877
2156.23432	0.01825
2154.94855	0.01776
2153.66278	0.01742
2152.37702	0.01780
2151.09125	0.01903
2149.80548	0.02050
2148.51971	0.02143
2147.23394	0.02174
2145.94817	0.02190
2144.66240	0.02217
2143.37663	0.02239
2142.09087	0.02237
2140.80510	0.02224
2139.51933	0.02225
2138.23356	0.02254
2136.94779	0.02311
2135.66202	0.02384
2134.37625	0.02447
2133.09048	0.02473
2131.80471	0.02471
2130.51895	0.02477
2129.23318	0.02526
2127.94741	0.02608
2126.66164	0.02679
2125.37587	0.02704
2124.09010	0.02697
2122.80433	0.02707
2121.51856	0.02769
2120.23280	0.02867
2118.94703	0.02953
2117.66126	0.02990
2116.37549	0.02975
2115.08972	0.02933
2113.80395	0.02891
2112.51818	0.02866
2111.23241	0.02860
2109.94664	0.02870
2108.66088	0.02884
2107.37511	0.02892
2106.08934	0.02884
2104.80357	0.02852
2103.51780	0.02790
2102.23203	0.02698
2100.94626	0.02618
2099.66049	0.02881
2098.37473	0.03025
2097.08896	0.03032
2095.80319	0.02993
2094.51742	0.02919
2093.23165	0.02811
2091.94588	0.02692
2090.66011	0.02594
2089.37434	0.02548
2088.08857	0.02559
2086.80281	0.02604
2085.51704	0.02648
2084.23127	0.02667
2082.94550	0.02652
2081.65973	0.02620
2080.37396	0.02605
2079.08819	0.02632
2077.80242	0.02703
2076.51666	0.02795
2075.23089	0.02876
2073.94512	0.02923
2072.65935	0.02929
2071.37358	0.02907
2070.08781	0.02878
2068.80204	0.02854
2067.51627	0.02830
2066.23050	0.02801
2064.94474	0.02773
2063.65897	0.02747
2062.37320	0.02708
2061.08743	0.02643
2059.80166	0.02565
2058.51589	0.02500
2057.23012	0.02456
2055.94435	0.02415
2054.65859	0.02377
2053.37282	0.02379
2052.08705	0.02465
2050.80128	0.02614
2049.51551	0.02742
2048.22974	0.02782
2046.94397	0.02732
2045.65820	0.02641
2044.37243	0.02553
2043.08667	0.02485
2041.80090	0.02437
2040.51513	0.02408
2039.22936	0.02400
2037.94359	0.02415
2036.65782	0.02438
2035.37205	0.02445
2034.08628	0.02416
2032.80052	0.02363
2031.51475	0.02315
2030.22898	0.02290
2028.94321	0.02273
2027.65744	0.02235
2026.37167	0.02165
2025.08590	0.02084
2023.80013	0.02026
2022.51436	0.02014
2021.22860	0.02049
2019.94283	0.02110
2018.65706	0.02168
2017.37129	0.02198
2016.08552	0.02195
2014.79975	0.02183
2013.51398	0.02204
2012.22821	0.02288
2010.94245	0.02425
2009.65668	0.02572
2008.37091	0.02673
2007.08514	0.02695
2005.79937	0.02642
2004.51360	0.02539
2003.22783	0.02412
2001.94206	0.02278
2000.65629	0.02157
1999.37053	0.02081
1998.08476	0.02068
1996.79899	0.02102
1995.51322	0.02131
1994.22745	0.02108
1992.94168	0.02032
1991.65591	0.01933
1990.37014	0.01850
1989.08438	0.01820
1987.79861	0.01865
1986.51284	0.01981
1985.22707	0.02134
1983.94130	0.02291
1982.65553	0.02444
1981.36976	0.02596
1980.08399	0.02734
1978.79822	0.02830
1977.51246	0.02868
1976.22669	0.02856
1974.94092	0.02807
1973.65515	0.02728
1972.36938	0.02623
1971.08361	0.02504
1969.79784	0.02394
1968.51207	0.02308
1967.22631	0.02253
1965.94054	0.02228
1964.65477	0.02230
1963.36900	0.02253
1962.08323	0.02271
1960.79746	0.02251
1959.51169	0.02184
1958.22592	0.02099
1956.94015	0.02040
1955.65439	0.02029
1954.36862	0.02063
1953.08285	0.02133
1951.79708	0.02224
1950.51131	0.02314
1949.22554	0.02375
1947.93977	0.02394
1946.65400	0.02386
1945.36823	0.02372
1944.08247	0.02370
1942.79670	0.02388
1941.51093	0.02425
1940.22516	0.02464
1938.93939	0.02484
1937.65362	0.02474
1936.36785	0.02446
1935.08208	0.02431
1933.79632	0.02449
1932.51055	0.02493
1931.22478	0.02533
1929.93901	0.02542
1928.65324	0.02521
1927.36747	0.02489
1926.08170	0.02464
1924.79593	0.02449
1923.51016	0.02443
1922.22440	0.02446
1920.93863	0.02462
1919.65286	0.02493
1918.36709	0.02535
1917.08132	0.02571
1915.79555	0.02579
1914.50978	0.02556
1913.22401	0.02528
1911.93825	0.02528
1910.65248	0.02566
1909.36671	0.02622
1908.08094	0.02665
1906.79517	0.02679
1905.50940	0.02664
1904.22363	0.02631
1902.93786	0.02592
1901.65209	0.02558
1900.36633	0.02536
1899.08056	0.02532
1897.79479	0.02544
1896.50902	0.02561
1895.22325	0.02568
1893.93748	0.02559
1892.65171	0.02539
1891.36594	0.02519
1890.08018	0.02508
1888.79441	0.02507
1887.50864	0.02509
1886.22287	0.02503
1884.93710	0.02483
1883.65133	0.02456
1882.36556	0.02442
1881.07979	0.02451
1879.79402	0.02481
1878.50826	0.02521
1877.22249	0.02553
1875.93672	0.02565
1874.65095	0.02555
1873.36518	0.02536
1872.07941	0.02524
1870.79364	0.02527
1869.50787	0.02538
1868.22211	0.02542
1866.93634	0.02531
1865.65057	0.02508
1864.36480	0.02486
1863.07903	0.02474
1861.79326	0.02471
1860.50749	0.02468
1859.22172	0.02468
1857.93595	0.02475
1856.65019	0.02491
1855.36442	0.02504
1854.07865	0.02501
1852.79288	0.02484
1851.50711	0.02461
1850.22134	0.02445
1848.93557	0.02445
1847.64980	0.02462
1846.36404	0.02482
1845.07827	0.02485
1843.79250	0.02464
1842.50673	0.02428
1841.22096	0.02392
1839.93519	0.02370
1838.64942	0.02363
1837.36365	0.02367
1836.07788	0.02376
1834.79212	0.02383
1833.50635	0.02385
1832.22058	0.02377
1830.93481	0.02367
1829.64904	0.02370
1828.36327	0.02399
1827.07750	0.02449
1825.79173	0.02508
1824.50597	0.02565
1823.22020	0.02615
1821.93443	0.02656
1820.64866	0.02678
1819.36289	0.02670
1818.07712	0.02622
1816.79135	0.02545
1815.50558	0.02461
1814.21981	0.02387
1812.93405	0.02332
1811.64828	0.02297
1810.36251	0.02281
1809.07674	0.02280
1807.79097	0.02287
1806.50520	0.02295
1805.21943	0.02303
1803.93366	0.02310
1802.64790	0.02317
1801.36213	0.02326
1800.07636	0.02336
1798.79059	0.02343
1797.50482	0.02344
1796.21905	0.02344
1794.93328	0.02346
1793.64751	0.02355
1792.36174	0.02369
1791.07598	0.02387
1789.79021	0.02401
1788.50444	0.02409
1787.21867	0.02410
1785.93290	0.02405
1784.64713	0.02399
1783.36136	0.02394
1782.07559	0.02392
1780.78983	0.02393
1779.50406	0.02393
1778.21829	0.02386
1776.93252	0.02368
1775.64675	0.02338
1774.36098	0.02305
1773.07521	0.02280
1771.78944	0.02273
1770.50367	0.02277
1769.21791	0.02280
1767.93214	0.02275
1766.64637	0.02268
1765.36060	0.02259
1764.07483	0.02249
1762.78906	0.02245
1761.50329	0.02253
1760.21752	0.02270
1758.93176	0.02284
1757.64599	0.02287
1756.36022	0.02285
1755.07445	0.02287
1753.78868	0.02294
1752.50291	0.02306
1751.21714	0.02323
1749.93137	0.02346
1748.64560	0.02370
1747.35984	0.02392
1746.07407	0.02410
1744.78830	0.02427
1743.50253	0.02442
1742.21676	0.02457
1740.93099	0.02473
1739.64522	0.02496
1738.35945	0.02527
1737.07369	0.02562
1735.78792	0.02589
1734.50215	0.02613
1733.21638	0.02639
1731.93061	0.02665
1730.64484	0.02684
1729.35907	0.02696
1728.07330	0.02710
1726.78753	0.02727
1725.50177	0.02747
1724.21600	0.02768
1722.93023	0.02795
1721.64446	0.02828
1720.35869	0.02865
1719.07292	0.02903
1717.78715	0.02945
1716.50138	0.02994
1715.21561	0.03047
1713.92985	0.03101
1712.64408	0.03161
1711.35831	0.03235
1710.07254	0.03327
1708.78677	0.03440
1707.50100	0.03573
1706.21523	0.03723
1704.92946	0.03888
1703.64370	0.04065
1702.35793	0.04247
1701.07216	0.04440
1699.78639	0.04654
1698.50062	0.04878
1697.21485	0.05094
1695.92908	0.05307
1694.64331	0.05527
1693.35754	0.05751
1692.07178	0.05964
1690.78601	0.06170
1689.50024	0.06381
1688.21447	0.06598
1686.92870	0.06820
1685.64293	0.07053
1684.35716	0.07309
1683.07139	0.07581
1681.78563	0.07848
1680.49986	0.08105
1679.21409	0.08365
1677.92832	0.08634
1676.64255	0.08910
1675.35678	0.09192
1674.07101	0.09480
1672.78524	0.09769
1671.49947	0.10053
1670.21371	0.10338
1668.92794	0.10633
1667.64217	0.10936
1666.35640	0.11236
1665.07063	0.11524
1663.78486	0.11801
1662.49909	0.12072
1661.21332	0.12340
1659.92756	0.12601
1658.64179	0.12852
1657.35602	0.13092
1656.07025	0.13317
1654.78448	0.13519
1653.49871	0.13707
1652.21294	0.13890
1650.92717	0.14062
1649.64140	0.14208
1648.35564	0.14330
1647.06987	0.14446
1645.78410	0.14566
1644.49833	0.14683
1643.21256	0.14786
1641.92679	0.14875
1640.64102	0.14955
1639.35525	0.15033
1638.06949	0.15104
1636.78372	0.15168
1635.49795	0.15226
1634.21218	0.15273
1632.92641	0.15297
1631.64064	0.15291
1630.35487	0.15257
1629.06910	0.15202
1627.78333	0.15124
1626.49757	0.15017
1625.21180	0.14875
1623.92603	0.14703
1622.64026	0.14510
1621.35449	0.14302
1620.06872	0.14073
1618.78295	0.13817
1617.49718	0.13546
1616.21142	0.13276
1614.92565	0.13012
1613.63988	0.12741
1612.35411	0.12456
1611.06834	0.12166
1609.78257	0.11879
1608.49680	0.11598
1607.21103	0.11325
1605.92526	0.11061
1604.63950	0.10812
1603.35373	0.10583
1602.06796	0.10373
1600.78219	0.10180
1599.49642	0.09999
1598.21065	0.09829
1596.92488	0.09670
1595.63911	0.09522
1594.35335	0.09388
1593.06758	0.09270
1591.78181	0.09169
1590.49604	0.09085
1589.21027	0.09014
1587.92450	0.08955
1586.63873	0.08906
1585.35296	0.08869
1584.06719	0.08847
1582.78143	0.08843
1581.49566	0.08859
1580.20989	0.08893
1578.92412	0.08937
1577.63835	0.08985
1576.35258	0.09043
1575.06681	0.09121
1573.78104	0.09215
1572.49528	0.09316
1571.20951	0.09426
1569.92374	0.09555
1568.63797	0.09699
1567.35220	0.09849
1566.06643	0.09997
1564.78066	0.10148
1563.49489	0.10308
1562.20912	0.10475
1560.92336	0.10640
1559.63759	0.10807
1558.35182	0.10983
1557.06605	0.11159
1555.78028	0.11323
1554.49451	0.11478
1553.20874	0.11632
1551.92297	0.11784
1550.63721	0.11927
1549.35144	0.12059
1548.06567	0.12181
1546.77990	0.12294
1545.49413	0.12398
1544.20836	0.12495
1542.92259	0.12584
1541.63682	0.12659
1540.35105	0.12722
1539.06529	0.12781
1537.77952	0.12838
1536.49375	0.12884
1535.20798	0.12915
1533.92221	0.12937
1532.63644	0.12958
1531.35067	0.12972
1530.06490	0.12976
1528.77914	0.12971
1527.49337	0.12962
1526.20760	0.12950
1524.92183	0.12936
1523.63606	0.12917
1522.35029	0.12893
1521.06452	0.12870
1519.77875	0.12845
1518.49298	0.12806
1517.20722	0.12751
1515.92145	0.12685
1514.63568	0.12607
1513.34991	0.12510
1512.06414	0.12390
1510.77837	0.12251
1509.49260	0.12097
1508.20683	0.11931
1506.92107	0.11760
1505.63530	0.11590
1504.34953	0.11415
1503.06376	0.11225
1501.77799	0.11024
1500.49222	0.10820
1499.20645	0.10614
1497.92068	0.10401
1496.63491	0.10183
1495.34915	0.09967
1494.06338	0.09759
1492.77761	0.09553
1491.49184	0.09347
1490.20607	0.09142
1488.92030	0.08942
1487.63453	0.08753
1486.34876	0.08578
1485.06299	0.08420
1483.77723	0.08278
1482.49146	0.08150
1481.20569	0.08040
1479.91992	0.07954
1478.63415	0.07897
1477.34838	0.07870
1476.06261	0.07869
1474.77684	0.07891
1473.49108	0.07930
1472.20531	0.07989
1470.91954	0.08063
1469.63377	0.08140
1468.34800	0.08210
1467.06223	0.08272
1465.77646	0.08334
1464.49069	0.08405
1463.20492	0.08488
1461.91916	0.08582
1460.63339	0.08683
1459.34762	0.08786
1458.06185	0.08888
1456.77608	0.08988
1455.49031	0.09080
1454.20454	0.09155
1452.91877	0.09211
1451.63301	0.09253
1450.34724	0.09284
1449.06147	0.09302
1447.77570	0.09306
1446.48993	0.09296
1445.20416	0.09276
1443.91839	0.09242
1442.63262	0.09194
1441.34685	0.09135
1440.06109	0.09066
1438.77532	0.08991
1437.48955	0.08914
1436.20378	0.08837
1434.91801	0.08757
1433.63224	0.08669
1432.34647	0.08576
1431.06070	0.08488
1429.77494	0.08413
1428.48917	0.08353
1427.20340	0.08306
1425.91763	0.08270
1424.63186	0.08244
1423.34609	0.08229
1422.06032	0.08222
1420.77455	0.08217
1419.48878	0.08214
1418.20302	0.08215
1416.91725	0.08217
1415.63148	0.08219
1414.34571	0.08223
1413.05994	0.08229
1411.77417	0.08236
1410.48840	0.08246
1409.20263	0.08262
1407.91687	0.08282
1406.63110	0.08304
1405.34533	0.08328
1404.05956	0.08354
1402.77379	0.08381
1401.48802	0.08402
1400.20225	0.08410
1398.91648	0.08407
1397.63071	0.08397
1396.34495	0.08386
1395.05918	0.08379
1393.77341	0.08378
1392.48764	0.08377
1391.20187	0.08370
1389.91610	0.08356
1388.63033	0.08340
1387.34456	0.08327
1386.05880	0.08317
1384.77303	0.08302
1383.48726	0.08276
1382.20149	0.08240
1380.91572	0.08197
1379.62995	0.08153
1378.34418	0.08109
1377.05841	0.08066
1375.77264	0.08019
1374.48688	0.07965
1373.20111	0.07905
1371.91534	0.07840
1370.62957	0.07773
1369.34380	0.07704
1368.05803	0.07634
1366.77226	0.07563
1365.48649	0.07488
1364.20073	0.07411
1362.91496	0.07337
1361.62919	0.07267
1360.34342	0.07204
1359.05765	0.07150
1357.77188	0.07108
1356.48611	0.07076
1355.20034	0.07054
1353.91457	0.07038
1352.62881	0.07030
1351.34304	0.07031
1350.05727	0.07041
1348.77150	0.07060
1347.48573	0.07080
1346.19996	0.07098
1344.91419	0.07115
1343.62842	0.07138
1342.34266	0.07168
1341.05689	0.07203
1339.77112	0.07237
1338.48535	0.07265
1337.19958	0.07283
1335.91381	0.07288
1334.62804	0.07278
1333.34227	0.07257
1332.05650	0.07232
1330.77074	0.07204
1329.48497	0.07175
1328.19920	0.07146
1326.91343	0.07116
1325.62766	0.07090
1324.34189	0.07068
1323.05612	0.07052
1321.77035	0.07041
1320.48459	0.07034
1319.19882	0.07028
1317.91305	0.07021
1316.62728	0.07013
1315.34151	0.07005
1314.05574	0.06997
1312.76997	0.06988
1311.48420	0.06978
1310.19843	0.06969
1308.91267	0.06961
1307.62690	0.06950
1306.34113	0.06935
1305.05536	0.06915
1303.76959	0.06893
1302.48382	0.06871
1301.19805	0.06849
1299.91228	0.06828
1298.62652	0.06810
1297.34075	0.06798
1296.05498	0.06789
1294.76921	0.06782
1293.48344	0.06780
1292.19767	0.06788
1290.91190	0.06809
1289.62613	0.06843
1288.34036	0.06886
1287.05460	0.06930
1285.76883	0.06970
1284.48306	0.07002
1283.19729	0.07026
1281.91152	0.07046
1280.62575	0.07064
1279.33998	0.07085
1278.05421	0.07107
1276.76845	0.07125
1275.48268	0.07137
1274.19691	0.07147
1272.91114	0.07161
1271.62537	0.07179
1270.33960	0.07203
1269.05383	0.07232
1267.76806	0.07263
1266.48229	0.07297
1265.19653	0.07336
1263.91076	0.07383
1262.62499	0.07437
1261.33922	0.07493
1260.05345	0.07545
1258.76768	0.07590
1257.48191	0.07631
1256.19614	0.07674
1254.91037	0.07723
1253.62461	0.07783
1252.33884	0.07853
1251.05307	0.07929
1249.76730	0.08006
1248.48153	0.08082
1247.19576	0.08159
1245.90999	0.08238
1244.62422	0.08318
1243.33846	0.08393
1242.05269	0.08461
1240.76692	0.08524
1239.48115	0.08584
1238.19538	0.08639
1236.90961	0.08687
1235.62384	0.08723
1234.33807	0.08745
1233.05230	0.08751
1231.76654	0.08743
1230.48077	0.08724
1229.19500	0.08694
1227.90923	0.08655
1226.62346	0.08606
1225.33769	0.08550
1224.05192	0.08487
1222.76615	0.08421
1221.48039	0.08354
1220.19462	0.08289
1218.90885	0.08224
1217.62308	0.08159
1216.33731	0.08093
1215.05154	0.08031
1213.76577	0.07981
1212.48000	0.07946
1211.19423	0.07926
1209.90847	0.07916
1208.62270	0.07910
1207.33693	0.07904
1206.05116	0.07895
1204.76539	0.07882
1203.47962	0.07869
1202.19385	0.07852
1200.90808	0.07810
1199.62232	0.07730
1198.33655	0.07685
1197.05078	0.07634
1195.76501	0.07577
1194.47924	0.07517
1193.19347	0.07453
1191.90770	0.07387
1190.62193	0.07323
1189.33616	0.07264
1188.05040	0.07210
1186.76463	0.07154
1185.47886	0.07097
1184.19309	0.07043
1182.90732	0.07003
1181.62155	0.06981
1180.33578	0.06974
1179.05001	0.06976
1177.76425	0.06978
1176.47848	0.06975
1175.19271	0.06967
1173.90694	0.06957
1172.62117	0.06949
1171.33540	0.06945
1170.04963	0.06946
1168.76386	0.06953
1167.47809	0.06964
1166.19233	0.06975
1164.90656	0.06984
1163.62079	0.06992
1162.33502	0.06998
1161.04925	0.07001
1159.76348	0.06999
1158.47771	0.06990
1157.19194	0.06972
1155.90618	0.06948
1154.62041	0.06922
1153.33464	0.06896
1152.04887	0.06867
1150.76310	0.06832
1149.47733	0.06790
1148.19156	0.06744
1146.90579	0.06700
1145.62002	0.06665
1144.33426	0.06638
1143.04849	0.06616
1141.76272	0.06595
1140.47695	0.06576
1139.19118	0.06563
1137.90541	0.06557
1136.61964	0.06558
1135.33387	0.06561
1134.04811	0.06565
1132.76234	0.06573
1131.47657	0.06591
1130.19080	0.06618
1128.90503	0.06650
1127.61926	0.06677
1126.33349	0.06697
1125.04772	0.06711
1123.76195	0.06723
1122.47619	0.06737
1121.19042	0.06758
1119.90465	0.06786
1118.61888	0.06821
1117.33311	0.06860
1116.04734	0.06904
1114.76157	0.06950
1113.47580	0.06995
1112.19004	0.07039
1110.90427	0.07083
1109.61850	0.07134
1108.33273	0.07191
1107.04696	0.07247
1105.76119	0.07299
1104.47542	0.07348
1103.18965	0.07393
1101.90388	0.07433
1100.61812	0.07467
1099.33235	0.07496
1098.04658	0.07520
1096.76081	0.07544
1095.47504	0.07575
1094.18927	0.07617
1092.90350	0.07665
1091.61773	0.07707
1090.33197	0.07741
1089.04620	0.07775
1087.76043	0.07816
1086.47466	0.07869
1085.18889	0.07927
1083.90312	0.07987
1082.61735	0.08042
1081.33158	0.08091
1080.04581	0.08132
1078.76005	0.08163
1077.47428	0.08180
1076.18851	0.08180
1074.90274	0.08166
1073.61697	0.08145
1072.33120	0.08124
1071.04543	0.08104
1069.75966	0.08086
1068.47390	0.08066
1067.18813	0.08043
1065.90236	0.08017
1064.61659	0.07987
1063.33082	0.07958
1062.04505	0.07931
1060.75928	0.07909
1059.47351	0.07893
1058.18774	0.07883
1056.90198	0.07876
1055.61621	0.07868
1054.33044	0.07857
1053.04467	0.07847
1051.75890	0.07843
1050.47313	0.07848
1049.18736	0.07867
1047.90159	0.07898
1046.61583	0.07939
1045.33006	0.07984
1044.04429	0.08030
1042.75852	0.08076
1041.47275	0.08120
1040.18698	0.08163
1038.90121	0.08197
1037.61544	0.08192
1036.32967	0.08118
1035.04391	0.07995
1033.75814	0.07906
1032.47237	0.07927
1031.18660	0.08053
1029.90083	0.08199
1028.61506	0.08281
1027.32929	0.08280
1026.04352	0.08222
1024.75775	0.08137
1023.47199	0.08042
1022.18622	0.07940
1020.90045	0.07832
1019.61468	0.07720
1018.32891	0.07607
1017.04314	0.07499
1015.75737	0.07395
1014.47160	0.07296
1013.18584	0.07204
1011.90007	0.07119
1010.61430	0.07044
1009.32853	0.06979
1008.04276	0.06919
1006.75699	0.06858
1005.47122	0.06792
1004.18545	0.06723
1002.89968	0.06655
1001.61392	0.06593
1000.32815	0.06541
999.04238	0.06500
997.75661	0.06467
996.47084	0.06442
995.18507	0.06419
993.89930	0.06394
992.61353	0.06367
991.32777	0.06344
990.04200	0.06330
988.75623	0.06319
987.47046	0.06306
986.18469	0.06287
984.89892	0.06268
983.61315	0.06256
982.32738	0.06251
981.04161	0.06248
979.75585	0.06242
978.47008	0.06239
977.18431	0.06247
975.89854	0.06265
974.61277	0.06278
973.32700	0.06274
972.04123	0.06256
970.75546	0.06236
969.46970	0.06227
968.18393	0.06229
966.89816	0.06231
965.61239	0.06224
964.32662	0.06206
963.04085	0.06181
961.75508	0.06157
960.46931	0.06140
959.18354	0.06127
957.89778	0.06110
956.61201	0.06084
955.32624	0.06047
954.04047	0.05998
952.75470	0.05941
951.46893	0.05880
950.18316	0.05819
948.89739	0.05766
947.61163	0.05728
946.32586	0.05706
945.04009	0.05694
943.75432	0.05680
942.46855	0.05656
941.18278	0.05623
939.89701	0.05584
938.61124	0.05543
937.32547	0.05502
936.03971	0.05462
934.75394	0.05425
933.46817	0.05391
932.18240	0.05361
930.89663	0.05334
929.61086	0.05311
928.32509	0.05291
927.03932	0.05269
925.75356	0.05242
924.46779	0.05210
923.18202	0.05180
921.89625	0.05153
920.61048	0.05127
919.32471	0.05100
918.03894	0.05067
916.75317	0.05028
915.46740	0.04989
914.18164	0.04957
912.89587	0.04936
911.61010	0.04921
910.32433	0.04901
909.03856	0.04873
907.75279	0.04845
906.46702	0.04825
905.18125	0.04812
903.89549	0.04796
902.60972	0.04771
901.32395	0.04742
900.03818	0.04721
898.75241	0.04710
897.46664	0.04704
896.18087	0.04696
894.89510	0.04685
893.60933	0.04672
892.32357	0.04658
891.03780	0.04644
889.75203	0.04628
888.46626	0.04611
887.18049	0.04594
885.89472	0.04580
884.60895	0.04570
883.32318	0.04564
882.03742	0.04561
880.75165	0.04567
879.46588	0.04580
878.18011	0.04590
876.89434	0.04584
875.60857	0.04562
874.32280	0.04539
873.03703	0.04526
871.75126	0.04521
870.46550	0.04516
869.17973	0.04507
867.89396	0.04494
866.60819	0.04479
865.32242	0.04463
864.03665	0.04447
862.75088	0.04433
861.46511	0.04420
860.17935	0.04407
858.89358	0.04393
857.60781	0.04382
856.32204	0.04376
855.03627	0.04373
853.75050	0.04370
852.46473	0.04365
851.17896	0.04357
849.89319	0.04348
848.60743	0.04335
847.32166	0.04315
846.03589	0.04291
844.75012	0.04264
843.46435	0.04242
842.17858	0.04227
840.89281	0.04217
839.60704	0.04209
838.32128	0.04201
837.03551	0.04193
835.74974	0.04190
834.46397	0.04188
833.17820	0.04188
831.89243	0.04185
830.60666	0.04180
829.32089	0.04173
828.03512	0.04166
826.74936	0.04165
825.46359	0.04172
824.17782	0.04184
822.89205	0.04198
821.60628	0.04215
820.32051	0.04241
819.03474	0.04273
817.74897	0.04301
816.46321	0.04312
815.17744	0.04311
813.89167	0.04306
812.60590	0.04306
811.32013	0.04309
810.03436	0.04310
808.74859	0.04308
807.46282	0.04306
806.17705	0.04301
804.89129	0.04297
803.60552	0.04299
802.31975	0.04308
801.03398	0.04319
799.74821	0.04324
798.46244	0.04320
797.17667	0.04313
795.89090	0.04313
794.60513	0.04325
793.31937	0.04346
792.03360	0.04369
790.74783	0.04387
789.46206	0.04402
788.17629	0.04418
786.89052	0.04434
785.60475	0.04444
784.31898	0.04445
783.03322	0.04434
781.74745	0.04417
780.46168	0.04405
779.17591	0.04408
777.89014	0.04428
776.60437	0.04452
775.31860	0.04466
774.03283	0.04467
772.74706	0.04462
771.46130	0.04466
770.17553	0.04484
768.88976	0.04510
767.60399	0.04533
766.31822	0.04544
765.03245	0.04542
763.74668	0.04539
762.46091	0.04547
761.17515	0.04569
759.88938	0.04596
758.60361	0.04618
757.31784	0.04631
756.03207	0.04640
754.74630	0.04653
753.46053	0.04667
752.17476	0.04679
750.88899	0.04685
749.60323	0.04692
748.31746	0.04706
747.03169	0.04725
745.74592	0.04747
744.46015	0.04764
743.17438	0.04774
741.88861	0.04775
740.60284	0.04770
739.31708	0.04765
738.03131	0.04770
736.74554	0.04786
735.45977	0.04811
734.17400	0.04836
732.88823	0.04855
731.60246	0.04870
730.31669	0.04887
729.03092	0.04907
727.74516	0.04926
726.45939	0.04942
725.17362	0.04956
723.88785	0.04961
722.60208	0.04981
721.31631	0.05008
720.03054	0.05032
718.74477	0.05050
717.45901	0.05061
716.17324	0.05068
714.88747	0.05076
713.60170	0.05088
712.31593	0.05105
711.03016	0.05124
709.74439	0.05143
708.45862	0.05164
707.17285	0.05188
705.88709	0.05212
704.60132	0.05237
703.31555	0.05261
702.02978	0.05283
700.74401	0.05301
699.45824	0.05314
698.17247	0.05322
696.88670	0.05328
695.60094	0.05334
694.31517	0.05343
693.02940	0.05353
691.74363	0.05361
690.45786	0.05365
689.17209	0.05365
687.88632	0.05365
686.60055	0.05370
685.31478	0.05383
684.02902	0.05401
682.74325	0.05417
681.45748	0.05427
680.17171	0.05432
678.88594	0.05439
677.60017	0.05449
676.31440	0.05463
675.02863	0.05477
673.74287	0.05489
672.45710	0.05503
671.17133	0.05522
669.88556	0.05545
668.59979	0.05568
667.31402	0.05579
666.02825	0.05574
664.74248	0.05572
663.45671	0.05574
662.17095	0.05578
660.88518	0.05585
659.59941	0.05596
658.31364	0.05611
657.02787	0.05624
655.74210	0.05628
654.45633	0.05624
653.17056	0.05616
651.88480	0.05610
650.59903	0.05611
649.31326	0.05619
648.02749	0.05633
646.74172	0.05646
645.45595	0.05654
644.17018	0.05654
642.88441	0.05652
641.59864	0.05653
640.31288	0.05657
639.02711	0.05658
637.74134	0.05653
636.45557	0.05645
635.16980	0.05637
633.88403	0.05628
632.59826	0.05609
631.31249	0.05619
630.02673	0.05836
628.74096	0.06180
627.45519	0.05947
626.16942	0.06347
624.88365	0.07151
623.59788	0.07862
622.31211	0.08288
621.02634	0.08371
619.74057	0.08121
618.45481	0.07639
617.16904	0.07093
615.88327	0.06641
614.59750	0.06384
613.31173	0.06348
612.02596	0.06479
610.74019	0.06666
609.45442	0.06834
608.16866	0.07003
606.88289	0.07220
605.59712	0.07456
604.31135	0.07617
603.02558	0.07627
601.73981	0.07489
600.45404	0.07268
599.16827	0.07038
597.88250	0.06845
596.59674	0.06704
595.31097	0.06607
594.02520	0.06543
592.73943	0.06503
591.45366	0.06480
590.16789	0.06472
588.88212	0.06475
587.59635	0.06485
586.31059	0.06496
585.02482	0.06503
583.73905	0.06502
582.45328	0.06503
581.16751	0.06514
579.88174	0.06544
578.59597	0.06584
577.31020	0.06625
576.02443	0.06661
574.73867	0.06702
573.45290	0.06760
572.16713	0.06841
570.88136	0.06933
569.59559	0.07016
568.30982	0.07076
567.02405	0.07109
565.73828	0.07122
564.45251	0.07119
563.16675	0.07101
561.88098	0.07068
560.59521	0.07026
559.30944	0.06981
558.02367	0.06935
556.73790	0.06890
555.45213	0.06851
554.16636	0.06824
552.88060	0.06809
551.59483	0.06801
550.30906	0.06787
549.02329	0.06761
547.73752	0.06724
546.45175	0.06689
545.16598	0.06666
543.88021	0.06657
542.59444	0.06653
541.30868	0.06645
540.02291	0.06631
538.73714	0.06612
537.45137	0.06591
536.16560	0.06569
534.87983	0.06547
533.59406	0.06531
532.30829	0.06524
531.02253	0.06525
529.73676	0.06529
528.45099	0.06535
527.16522	0.06538
525.87945	0.06536
524.59368	0.06531
523.30791	0.06525
522.02214	0.06521
520.73637	0.06515
519.45061	0.06503
518.16484	0.06487
516.87907	0.06478
515.59330	0.06481
514.30753	0.06493
513.02176	0.06502
511.73599	0.06503
510.45022	0.06491
509.16446	0.06470
507.87869	0.06443
506.59292	0.06415
505.30715	0.06387
504.02138	0.06358
502.73561	0.06326
501.44984	0.06293
500.16407	0.06265
498.87830	0.06244
497.59254	0.06224
496.30677	0.06200
495.02100	0.06171
493.73523	0.06140
492.44946	0.06111
491.16369	0.06087
489.87792	0.06062
488.59215	0.06032
487.30639	0.05996
486.02062	0.05957
484.73485	0.05920
483.44908	0.05880
482.16331	0.05830
480.87754	0.05774
479.59177	0.05720
478.30600	0.05679
477.02023	0.05651
475.73447	0.05627
474.44870	0.05603
473.16293	0.05582
471.87716	0.05572
470.59139	0.05568
469.30562	0.05563
468.01985	0.05548
466.73408	0.05525
465.44832	0.05496
464.16255	0.05463
462.87678	0.05428
461.59101	0.05391
460.30524	0.05354
459.01947	0.05322
457.73370	0.05300
456.44793	0.05289
455.16216	0.05279
453.87640	0.05258
452.59063	0.05225
451.30486	0.05189
450.01909	0.05157
448.73332	0.05132
447.44755	0.05105
446.16178	0.05076
444.87601	0.05046
443.59025	0.05022
442.30448	0.05005
441.01871	0.04988
439.73294	0.04970
438.44717	0.04952
437.16140	0.04937
435.87563	0.04923
434.58986	0.04905
433.30409	0.04883
432.01833	0.04860
430.73256	0.04838
429.44679	0.04819
428.16102	0.04804
426.87525	0.04789
425.58948	0.04774
424.30371	0.04758
423.01794	0.04741
421.73218	0.04723
420.44641	0.04706
419.16064	0.04692
417.87487	0.04678
416.58910	0.04663
415.30333	0.04642
414.01756	0.04618
412.73179	0.04592
411.44602	0.04566
410.16026	0.04544
408.87449	0.04526
407.58872	0.04511
406.30295	0.04495
405.01718	0.04477
403.73141	0.04461
402.44564	0.04444
401.15987	0.04426
399.87411	0.04407
