3997.45528	0.00932
3996.16951	0.00867
3994.88374	0.00829
3993.59798	0.00840
3992.31221	0.00896
3991.02644	0.00970
3989.74067	0.01036
3988.45490	0.01075
3987.16913	0.01090
3985.88336	0.01094
3984.59759	0.01088
3983.31183	0.01063
3982.02606	0.01019
3980.74029	0.00982
3979.45452	0.00974
3978.16875	0.00988
3976.88298	0.00998
3975.59721	0.00996
3974.31144	0.00988
3973.02567	0.00982
3971.73991	0.00983
3970.45414	0.01006
3969.16837	0.01067
3967.88260	0.01149
3966.59683	0.01195
3965.31106	0.01157
3964.02529	0.01042
3962.73952	0.00916
3961.45376	0.00842
3960.16799	0.00838
3958.88222	0.00881
3957.59645	0.00935
3956.31068	0.00970
3955.02491	0.00958
3953.73914	0.00890
3952.45337	0.00790
3951.16760	0.00712
3949.88184	0.00704
3948.59607	0.00771
3947.31030	0.00870
3946.02453	0.00957
3944.73876	0.01021
3943.45299	0.01077
3942.16722	0.01125
3940.88145	0.01142
3939.59569	0.01109
3938.30992	0.01038
3937.02415	0.00964
3935.73838	0.00921
3934.45261	0.00916
3933.16684	0.00931
3931.88107	0.00939
3930.59530	0.00928
3929.30953	0.00911
3928.02377	0.00907
3926.73800	0.00922
3925.45223	0.00943
3924.16646	0.00950
3922.88069	0.00945
3921.59492	0.00949
3920.30915	0.00975
3919.02338	0.01011
3917.73762	0.01025
3916.45185	0.00995
3915.16608	0.00935
3913.88031	0.00882
3912.59454	0.00859
3911.30877	0.00854
3910.02300	0.00849
3908.73723	0.00839
3907.45146	0.00842
3906.16570	0.00874
3904.87993	0.00919
3903.59416	0.00945
3902.30839	0.00935
3901.02262	0.00906
3899.73685	0.00892
3898.45108	0.00908
3897.16531	0.00939
3895.87955	0.00964
3894.59378	0.00982
3893.30801	0.01014
3892.02224	0.01059
3890.73647	0.01085
3889.45070	0.01064
3888.16493	0.01007
3886.87916	0.00943
3885.59339	0.00887
3884.30763	0.00851
3883.02186	0.00851
3881.73609	0.00884
3880.45032	0.00915
3879.16455	0.00915
3877.87878	0.00890
3876.59301	0.00879
3875.30724	0.00913
3874.02148	0.00993
3872.73571	0.01084
3871.44994	0.01141
3870.16417	0.01132
3868.87840	0.01064
3867.59263	0.00982
3866.30686	0.00915
3865.02109	0.00866
3863.73532	0.00840
3862.44956	0.00861
3861.16379	0.00926
3859.87802	0.00993
3858.59225	0.01013
3857.30648	0.00979
3856.02071	0.00922
3854.73494	0.00868
3853.44917	0.00816
3852.16341	0.00769
3850.87764	0.00751
3849.59187	0.00776
3848.30610	0.00832
3847.02033	0.00894
3845.73456	0.00943
3844.44879	0.00974
3843.16302	0.00986
3841.87725	0.00977
3840.59149	0.00960
3839.30572	0.00947
3838.01995	0.00946
3836.73418	0.00961
3835.44841	0.00993
3834.16264	0.01037
3832.87687	0.01069
3831.59110	0.01063
3830.30534	0.01017
3829.01957	0.00958
3827.73380	0.00913
3826.44803	0.00889
3825.16226	0.00879
3823.87649	0.00888
3822.59072	0.00919
3821.30495	0.00951
3820.01918	0.00961
3818.73342	0.00952
3817.44765	0.00947
3816.16188	0.00950
3814.87611	0.00955
3813.59034	0.00958
3812.30457	0.00948
3811.01880	0.00907
3809.73303	0.00832
3808.44726	0.00748
3807.16150	0.00676
3805.87573	0.00637
3804.58996	0.00664
3803.30419	0.00768
3802.01842	0.00907
3800.73265	0.01001
3799.44688	0.01012
3798.16111	0.00971
3796.87535	0.00929
3795.58958	0.00923
3794.30381	0.00953
3793.01804	0.00992
3791.73227	0.01010
3790.44650	0.00997
3789.16073	0.00965
3787.87496	0.00936
3786.58919	0.00920
3785.30343	0.00910
3784.01766	0.00891
3782.73189	0.00868
3781.44612	0.00854
3780.16035	0.00858
3778.87458	0.00877
3777.58881	0.00913
3776.30304	0.00964
3775.01728	0.01011
3773.73151	0.01023
3772.44574	0.00987
3771.15997	0.00912
3769.87420	0.00823
3768.58843	0.00756
3767.30266	0.00743
3766.01689	0.00786
3764.73112	0.00854
3763.44536	0.00918
3762.15959	0.00967
3760.87382	0.00996
3759.58805	0.00994
3758.30228	0.00954
3757.01651	0.00882
3755.73074	0.00805
3754.44497	0.00771
3753.15921	0.00809
3751.87344	0.00901
3750.58767	0.00993
3749.30190	0.01026
3748.01613	0.00987
3746.73036	0.00921
3745.44459	0.00870
3744.15882	0.00832
3742.87305	0.00795
3741.58729	0.00763
3740.30152	0.00735
3739.01575	0.00717
3737.72998	0.00726
3736.44421	0.00767
3735.15844	0.00816
3733.87267	0.00859
3732.58690	0.00890
3731.30114	0.00909
3730.01537	0.00913
3728.72960	0.00905
3727.44383	0.00894
3726.15806	0.00888
3724.87229	0.00890
3723.58652	0.00884
3722.30075	0.00845
3721.01498	0.00776
3719.72922	0.00720
3718.44345	0.00722
3717.15768	0.00791
3715.87191	0.00889
3714.58614	0.00970
3713.30037	0.01017
3712.01460	0.01040
3710.72883	0.01063
3709.44307	0.01090
3708.15730	0.01093
3706.87153	0.01045
3705.58576	0.00961
3704.29999	0.00889
3703.01422	0.00871
3701.72845	0.00902
3700.44268	0.00945
3699.15691	0.00962
3697.87115	0.00949
3696.58538	0.00921
3695.29961	0.00890
3694.01384	0.00856
3692.72807	0.00821
3691.44230	0.00805
3690.15653	0.00826
3688.87076	0.00863
3687.58500	0.00876
3686.29923	0.00862
3685.01346	0.00859
3683.72769	0.00889
3682.44192	0.00934
3681.15615	0.00955
3679.87038	0.00933
3678.58461	0.00893
3677.29884	0.00880
3676.01308	0.00906
3674.72731	0.00947
3673.44154	0.00978
3672.15577	0.00995
3670.87000	0.00994
3669.58423	0.00970
3668.29846	0.00942
3667.01269	0.00927
3665.72693	0.00924
3664.44116	0.00923
3663.15539	0.00917
3661.86962	0.00904
3660.58385	0.00895
3659.29808	0.00906
3658.01231	0.00935
3656.72654	0.00959
3655.44077	0.00949
3654.15501	0.00908
3652.86924	0.00857
3651.58347	0.00813
3650.29770	0.00783
3649.01193	0.00773
3647.72616	0.00791
3646.44039	0.00835
3645.15462	0.00899
3643.86886	0.00974
3642.58309	0.01038
3641.29732	0.01065
3640.01155	0.01042
3638.72578	0.00987
3637.44001	0.00934
3636.15424	0.00911
3634.86847	0.00924
3633.58270	0.00956
3632.29694	0.00995
3631.01117	0.01034
3629.72540	0.01064
3628.43963	0.01076
3627.15386	0.01081
3625.86809	0.01099
3624.58232	0.01128
3623.29655	0.01150
3622.01079	0.01157
3620.72502	0.01156
3619.43925	0.01157
3618.15348	0.01164
3616.86771	0.01179
3615.58194	0.01200
3614.29617	0.01206
3613.01040	0.01173
3611.72463	0.01103
3610.43887	0.01033
3609.15310	0.01002
3607.86733	0.01017
3606.58156	0.01059
3605.29579	0.01107
3604.01002	0.01149
3602.72425	0.01178
3601.43848	0.01188
3600.15272	0.01174
3598.86695	0.01140
3597.58118	0.01099
3596.29541	0.01076
3595.00964	0.01088
3593.72387	0.01135
3592.43810	0.01195
3591.15233	0.01239
3589.86656	0.01253
3588.58080	0.01244
3587.29503	0.01234
3586.00926	0.01245
3584.72349	0.01279
3583.43772	0.01316
3582.15195	0.01329
3580.86618	0.01304
3579.58041	0.01246
3578.29464	0.01182
3577.00888	0.01148
3575.72311	0.01164
3574.43734	0.01215
3573.15157	0.01267
3571.86580	0.01294
3570.58003	0.01302
3569.29426	0.01313
3568.00849	0.01344
3566.72273	0.01384
3565.43696	0.01418
3564.15119	0.01433
3562.86542	0.01426
3561.57965	0.01403
3560.29388	0.01375
3559.00811	0.01352
3557.72234	0.01337
3556.43657	0.01326
3555.15081	0.01320
3553.86504	0.01315
3552.57927	0.01296
3551.29350	0.01254
3550.00773	0.01213
3548.72196	0.01212
3547.43619	0.01266
3546.15042	0.01347
3544.86466	0.01420
3543.57889	0.01466
3542.29312	0.01486
3541.00735	0.01480
3539.72158	0.01452
3538.43581	0.01416
3537.15004	0.01390
3535.86427	0.01382
3534.57850	0.01388
3533.29274	0.01397
3532.00697	0.01405
3530.72120	0.01408
3529.43543	0.01402
3528.14966	0.01391
3526.86389	0.01392
3525.57812	0.01420
3524.29235	0.01471
3523.00659	0.01529
3521.72082	0.01576
3520.43505	0.01608
3519.14928	0.01622
3517.86351	0.01614
3516.57774	0.01588
3515.29197	0.01561
3514.00620	0.01558
3512.72043	0.01592
3511.43467	0.01648
3510.14890	0.01696
3508.86313	0.01711
3507.57736	0.01691
3506.29159	0.01656
3505.00582	0.01629
3503.72005	0.01627
3502.43428	0.01645
3501.14852	0.01668
3499.86275	0.01680
3498.57698	0.01682
3497.29121	0.01689
3496.00544	0.01709
3494.71967	0.01736
3493.43390	0.01756
3492.14813	0.01765
3490.86236	0.01767
3489.57660	0.01770
3488.29083	0.01776
3487.00506	0.01781
3485.71929	0.01779
3484.43352	0.01771
3483.14775	0.01761
3481.86198	0.01760
3480.57621	0.01778
3479.29045	0.01817
3478.00468	0.01859
3476.71891	0.01877
3475.43314	0.01865
3474.14737	0.01842
3472.86160	0.01827
3471.57583	0.01815
3470.29006	0.01797
3469.00429	0.01773
3467.71853	0.01751
3466.43276	0.01729
3465.14699	0.01706
3463.86122	0.01691
3462.57545	0.01704
3461.28968	0.01751
3460.00391	0.01816
3458.71814	0.01873
3457.43238	0.01906
3456.14661	0.01916
3454.86084	0.01913
3453.57507	0.01903
3452.28930	0.01888
3451.00353	0.01872
3449.71776	0.01863
3448.43199	0.01867
3447.14622	0.01875
3445.86046	0.01872
3444.57469	0.01859
3443.28892	0.01855
3442.00315	0.01873
3440.71738	0.01907
3439.43161	0.01940
3438.14584	0.01957
3436.86007	0.01956
3435.57431	0.01941
3434.28854	0.01925
3433.00277	0.01915
3431.71700	0.01907
3430.43123	0.01892
3429.14546	0.01873
3427.85969	0.01868
3426.57392	0.01893
3425.28815	0.01942
3424.00239	0.01996
3422.71662	0.02030
3421.43085	0.02037
3420.14508	0.02032
3418.85931	0.02037
3417.57354	0.02058
3416.28777	0.02078
3415.00200	0.02076
3413.71624	0.02049
3412.43047	0.02012
3411.14470	0.01977
3409.85893	0.01949
3408.57316	0.01933
3407.28739	0.01938
3406.00162	0.01967
3404.71585	0.02018
3403.43008	0.02078
3402.14432	0.02128
3400.85855	0.02153
3399.57278	0.02150
3398.28701	0.02130
3397.00124	0.02118
3395.71547	0.02127
3394.42970	0.02157
3393.14393	0.02195
3391.85817	0.02230
3390.57240	0.02255
3389.28663	0.02272
3388.00086	0.02286
3386.71509	0.02297
3385.42932	0.02294
3384.14355	0.02264
3382.85778	0.02213
3381.57201	0.02170
3380.28625	0.02162
3379.00048	0.02186
3377.71471	0.02212
3376.42894	0.02221
3375.14317	0.02223
3373.85740	0.02234
3372.57163	0.02255
3371.28586	0.02277
3370.00010	0.02297
3368.71433	0.02317
3367.42856	0.02334
3366.14279	0.02344
3364.85702	0.02351
3363.57125	0.02367
3362.28548	0.02391
3360.99971	0.02406
3359.71394	0.02406
3358.42818	0.02405
3357.14241	0.02415
3355.85664	0.02434
3354.57087	0.02451
3353.28510	0.02462
3351.99933	0.02467
3350.71356	0.02456
3349.42779	0.02427
3348.14202	0.02399
3346.85626	0.02397
3345.57049	0.02425
3344.28472	0.02456
3342.99895	0.02462
3341.71318	0.02441
3340.42741	0.02417
3339.14164	0.02415
3337.85587	0.02442
3336.57011	0.02489
3335.28434	0.02536
3333.99857	0.02568
3332.71280	0.02575
3331.42703	0.02560
3330.14126	0.02533
3328.85549	0.02508
3327.56972	0.02496
3326.28395	0.02502
3324.99819	0.02521
3323.71242	0.02542
3322.42665	0.02556
3321.14088	0.02566
3319.85511	0.02574
3318.56934	0.02579
3317.28357	0.02576
3315.99780	0.02568
3314.71204	0.02563
3313.42627	0.02574
3312.14050	0.02604
3310.85473	0.02647
3309.56896	0.02689
3308.28319	0.02718
3306.99742	0.02734
3305.71165	0.02744
3304.42588	0.02760
3303.14012	0.02789
3301.85435	0.02833
3300.56858	0.02879
3299.28281	0.02908
3297.99704	0.02905
3296.71127	0.02876
3295.42550	0.02835
3294.13973	0.02799
3292.85397	0.02775
3291.56820	0.02764
3290.28243	0.02767
3288.99666	0.02784
3287.71089	0.02814
3286.42512	0.02853
3285.13935	0.02887
3283.85358	0.02904
3282.56781	0.02900
3281.28205	0.02883
3279.99628	0.02867
3278.71051	0.02854
3277.42474	0.02841
3276.13897	0.02826
3274.85320	0.02820
3273.56743	0.02824
3272.28166	0.02820
3270.99590	0.02786
3269.71013	0.02717
3268.42436	0.02640
3267.13859	0.02587
3265.85282	0.02565
3264.56705	0.02563
3263.28128	0.02570
3261.99551	0.02578
3260.70974	0.02580
3259.42398	0.02571
3258.13821	0.02561
3256.85244	0.02572
3255.56667	0.02611
3254.28090	0.02662
3252.99513	0.02706
3251.70936	0.02737
3250.42359	0.02757
3249.13783	0.02759
3247.85206	0.02733
3246.56629	0.02680
3245.28052	0.02625
3243.99475	0.02596
3242.70898	0.02601
3241.42321	0.02621
3240.13744	0.02628
3238.85167	0.02609
3237.56591	0.02573
3236.28014	0.02547
3234.99437	0.02549
3233.70860	0.02573
3232.42283	0.02589
3231.13706	0.02570
3229.85129	0.02521
3228.56552	0.02475
3227.27976	0.02461
3225.99399	0.02480
3224.70822	0.02508
3223.42245	0.02521
3222.13668	0.02519
3220.85091	0.02520
3219.56514	0.02535
3218.27937	0.02556
3216.99360	0.02564
3215.70784	0.02552
3214.42207	0.02531
3213.13630	0.02521
3211.85053	0.02527
3210.56476	0.02538
3209.27899	0.02533
3207.99322	0.02499
3206.70745	0.02442
3205.42169	0.02390
3204.13592	0.02373
3202.85015	0.02395
3201.56438	0.02430
3200.27861	0.02452
3198.99284	0.02455
3197.70707	0.02451
3196.42130	0.02443
3195.13553	0.02425
3193.84977	0.02404
3192.56400	0.02400
3191.27823	0.02424
3189.99246	0.02461
3188.70669	0.02483
3187.42092	0.02476
3186.13515	0.02443
3184.84938	0.02394
3183.56362	0.02346
3182.27785	0.02313
3180.99208	0.02303
3179.70631	0.02310
3178.42054	0.02325
3177.13477	0.02342
3175.84900	0.02356
3174.56323	0.02368
3173.27746	0.02379
3171.99170	0.02392
3170.70593	0.02398
3169.42016	0.02388
3168.13439	0.02357
3166.84862	0.02316
3165.56285	0.02279
3164.27708	0.02248
3162.99131	0.02215
3161.70555	0.02181
3160.41978	0.02161
3159.13401	0.02170
3157.84824	0.02198
3156.56247	0.02224
3155.27670	0.02235
3153.99093	0.02239
3152.70516	0.02244
3151.41939	0.02247
3150.13363	0.02240
3148.84786	0.02225
3147.56209	0.02215
3146.27632	0.02215
3144.99055	0.02214
3143.70478	0.02207
3142.41901	0.02202
3141.13324	0.02214
3139.84748	0.02238
3138.56171	0.02250
3137.27594	0.02233
3135.99017	0.02192
3134.70440	0.02151
3133.41863	0.02131
3132.13286	0.02142
3130.84709	0.02175
3129.56132	0.02215
3128.27556	0.02247
3126.98979	0.02261
3125.70402	0.02248
3124.41825	0.02205
3123.13248	0.02146
3121.84671	0.02093
3120.56094	0.02056
3119.27517	0.02028
3117.98940	0.02006
3116.70364	0.01996
3115.41787	0.02011
3114.13210	0.02045
3112.84633	0.02075
3111.56056	0.02090
3110.27479	0.02097
3108.98902	0.02111
3107.70325	0.02137
3106.41749	0.02160
3105.13172	0.02166
3103.84595	0.02152
3102.56018	0.02127
3101.27441	0.02108
3099.98864	0.02108
3098.70287	0.02131
3097.41710	0.02163
3096.13133	0.02186
3094.84557	0.02194
3093.55980	0.02196
3092.27403	0.02199
3090.98826	0.02207
3089.70249	0.02215
3088.41672	0.02211
3087.13095	0.02183
3085.84518	0.02135
3084.55942	0.02088
3083.27365	0.02067
3081.98788	0.02076
3080.70211	0.02100
3079.41634	0.02124
3078.13057	0.02139
3076.84480	0.02141
3075.55903	0.02136
3074.27326	0.02128
3072.98750	0.02124
3071.70173	0.02123
3070.41596	0.02120
3069.13019	0.02108
3067.84442	0.02085
3066.55865	0.02058
3065.27288	0.02039
3063.98711	0.02039
3062.70135	0.02061
3061.41558	0.02101
3060.12981	0.02149
3058.84404	0.02189
3057.55827	0.02204
3056.27250	0.02192
3054.98673	0.02170
3053.70096	0.02156
3052.41519	0.02154
3051.12943	0.02147
3049.84366	0.02121
3048.55789	0.02081
3047.27212	0.02045
3045.98635	0.02031
3044.70058	0.02042
3043.41481	0.02070
3042.12904	0.02101
3040.84328	0.02126
3039.55751	0.02141
3038.27174	0.02145
3036.98597	0.02140
3035.70020	0.02136
3034.41443	0.02136
3033.12866	0.02132
3031.84289	0.02108
3030.55712	0.02057
3029.27136	0.01994
3027.98559	0.01946
3026.69982	0.01930
3025.41405	0.01941
3024.12828	0.01955
3022.84251	0.01955
3021.55674	0.01939
3020.27097	0.01920
3018.98521	0.01908
3017.69944	0.01910
3016.41367	0.01926
3015.12790	0.01952
3013.84213	0.01983
3012.55636	0.02012
3011.27059	0.02030
3009.98482	0.02029
3008.69905	0.02006
3007.41329	0.01966
3006.12752	0.01925
3004.84175	0.01895
3003.55598	0.01878
3002.27021	0.01867
3000.98444	0.01859
2999.69867	0.01856
2998.41290	0.01868
2997.12714	0.01891
2995.84137	0.01916
2994.55560	0.01937
2993.26983	0.01948
2991.98406	0.01944
2990.69829	0.01924
2989.41252	0.01895
2988.12675	0.01872
2986.84098	0.01867
2985.55522	0.01877
2984.26945	0.01893
2982.98368	0.01906
2981.69791	0.01918
2980.41214	0.01933
2979.12637	0.01947
2977.84060	0.01951
2976.55483	0.01950
2975.26907	0.01954
2973.98330	0.01964
2972.69753	0.01971
2971.41176	0.01973
2970.12599	0.01973
2968.84022	0.01978
2967.55445	0.01988
2966.26868	0.02005
2964.98291	0.02033
2963.69715	0.02065
2962.41138	0.02089
2961.12561	0.02095
2959.83984	0.02087
2958.55407	0.02075
2957.26830	0.02062
2955.98253	0.02045
2954.69676	0.02016
2953.41100	0.01981
2952.12523	0.01958
2950.83946	0.01959
2949.55369	0.01980
2948.26792	0.02003
2946.98215	0.02016
2945.69638	0.02016
2944.41061	0.02005
2943.12484	0.01991
2941.83908	0.01981
2940.55331	0.01978
2939.26754	0.01982
2937.98177	0.01988
2936.69600	0.01996
2935.41023	0.02007
2934.12446	0.02022
2932.83869	0.02042
2931.55293	0.02063
2930.26716	0.02078
2928.98139	0.02083
2927.69562	0.02083
2926.40985	0.02077
2925.12408	0.02067
2923.83831	0.02052
2922.55254	0.02040
2921.26677	0.02037
2919.98101	0.02042
2918.69524	0.02037
2917.40947	0.02013
2916.12370	0.01982
2914.83793	0.01963
2913.55216	0.01961
2912.26639	0.01967
2910.98062	0.01965
2909.69486	0.01954
2908.40909	0.01936
2907.12332	0.01908
2905.83755	0.01873
2904.55178	0.01842
2903.26601	0.01831
2901.98024	0.01845
2900.69447	0.01874
2899.40870	0.01898
2898.12294	0.01904
2896.83717	0.01891
2895.55140	0.01864
2894.26563	0.01832
2892.97986	0.01806
2891.69409	0.01793
2890.40832	0.01796
2889.12255	0.01812
2887.83678	0.01832
2886.55102	0.01850
2885.26525	0.01864
2883.97948	0.01874
2882.69371	0.01878
2881.40794	0.01870
2880.12217	0.01855
2878.83640	0.01844
2877.55063	0.01848
2876.26487	0.01863
2874.97910	0.01878
2873.69333	0.01882
2872.40756	0.01878
2871.12179	0.01873
2869.83602	0.01873
2868.55025	0.01873
2867.26448	0.01864
2865.97871	0.01849
2864.69295	0.01842
2863.40718	0.01854
2862.12141	0.01870
2860.83564	0.01868
2859.54987	0.01841
2858.26410	0.01805
2856.97833	0.01780
2855.69256	0.01773
2854.40680	0.01775
2853.12103	0.01772
2851.83526	0.01760
2850.54949	0.01741
2849.26372	0.01729
2847.97795	0.01730
2846.69218	0.01742
2845.40641	0.01752
2844.12064	0.01750
2842.83488	0.01737
2841.54911	0.01725
2840.26334	0.01727
2838.97757	0.01745
2837.69180	0.01761
2836.40603	0.01757
2835.12026	0.01730
2833.83449	0.01693
2832.54873	0.01662
2831.26296	0.01642
2829.97719	0.01636
2828.69142	0.01638
2827.40565	0.01641
2826.11988	0.01631
2824.83411	0.01611
2823.54834	0.01592
2822.26257	0.01591
2820.97681	0.01616
2819.69104	0.01654
2818.40527	0.01686
2817.11950	0.01696
2815.83373	0.01680
2814.54796	0.01647
2813.26219	0.01608
2811.97642	0.01580
2810.69066	0.01575
2809.40489	0.01591
2808.11912	0.01611
2806.83335	0.01618
2805.54758	0.01614
2804.26181	0.01610
2802.97604	0.01615
2801.69027	0.01622
2800.40450	0.01625
2799.11874	0.01619
2797.83297	0.01604
2796.54720	0.01588
2795.26143	0.01574
2793.97566	0.01569
2792.68989	0.01574
2791.40412	0.01587
2790.11835	0.01598
2788.83259	0.01600
2787.54682	0.01593
2786.26105	0.01582
2784.97528	0.01574
2783.68951	0.01572
2782.40374	0.01581
2781.11797	0.01598
2779.83220	0.01613
2778.54643	0.01615
2777.26067	0.01603
2775.97490	0.01586
2774.68913	0.01572
2773.40336	0.01564
2772.11759	0.01560
2770.83182	0.01558
2769.54605	0.01556
2768.26028	0.01549
2766.97452	0.01537
2765.68875	0.01523
2764.40298	0.01513
2763.11721	0.01503
2761.83144	0.01491
2760.54567	0.01477
2759.25990	0.01472
2757.97413	0.01479
2756.68836	0.01491
2755.40260	0.01500
2754.11683	0.01506
2752.83106	0.01515
2751.54529	0.01529
2750.25952	0.01544
2748.97375	0.01553
2747.68798	0.01551
2746.40221	0.01541
2745.11645	0.01525
2743.83068	0.01504
2742.54491	0.01481
2741.25914	0.01458
2739.97337	0.01434
2738.68760	0.01413
2737.40183	0.01398
2736.11606	0.01397
2734.83029	0.01414
2733.54453	0.01446
2732.25876	0.01481
2730.97299	0.01505
2729.68722	0.01508
2728.40145	0.01490
2727.11568	0.01460
2725.82991	0.01426
2724.54414	0.01402
2723.25838	0.01400
2721.97261	0.01422
2720.68684	0.01455
2719.40107	0.01477
2718.11530	0.01476
2716.82953	0.01459
2715.54376	0.01444
2714.25799	0.01441
2712.97222	0.01442
2711.68646	0.01436
2710.40069	0.01420
2709.11492	0.01404
2707.82915	0.01400
2706.54338	0.01410
2705.25761	0.01427
2703.97184	0.01440
2702.68607	0.01447
2701.40031	0.01446
2700.11454	0.01437
2698.82877	0.01421
2697.54300	0.01400
2696.25723	0.01379
2694.97146	0.01365
2693.68569	0.01360
2692.39992	0.01364
2691.11415	0.01369
2689.82839	0.01369
2688.54262	0.01367
2687.25685	0.01367
2685.97108	0.01371
2684.68531	0.01374
2683.39954	0.01374
2682.11377	0.01371
2680.82800	0.01365
2679.54224	0.01360
2678.25647	0.01361
2676.97070	0.01370
2675.68493	0.01381
2674.39916	0.01383
2673.11339	0.01373
2671.82762	0.01359
2670.54185	0.01347
2669.25608	0.01343
2667.97032	0.01344
2666.68455	0.01349
2665.39878	0.01351
2664.11301	0.01351
2662.82724	0.01351
2661.54147	0.01359
2660.25570	0.01378
2658.96993	0.01402
2657.68417	0.01424
2656.39840	0.01435
2655.11263	0.01430
2653.82686	0.01412
2652.54109	0.01393
2651.25532	0.01380
2649.96955	0.01377
2648.68378	0.01376
2647.39801	0.01374
2646.11225	0.01378
2644.82648	0.01391
2643.54071	0.01404
2642.25494	0.01407
2640.96917	0.01394
2639.68340	0.01375
2638.39763	0.01362
2637.11186	0.01362
2635.82609	0.01369
2634.54033	0.01367
2633.25456	0.01344
2631.96879	0.01303
2630.68302	0.01260
2629.39725	0.01234
2628.11148	0.01230
2626.82571	0.01246
2625.53994	0.01268
2624.25418	0.01286
2622.96841	0.01301
2621.68264	0.01315
2620.39687	0.01324
2619.11110	0.01320
2617.82533	0.01306
2616.53956	0.01292
2615.25379	0.01288
2613.96802	0.01284
2612.68226	0.01262
2611.39649	0.01222
2610.11072	0.01178
2608.82495	0.01147
2607.53918	0.01134
2606.25341	0.01134
2604.96764	0.01140
2603.68187	0.01148
2602.39611	0.01157
2601.11034	0.01166
2599.82457	0.01171
2598.53880	0.01166
2597.25303	0.01147
2595.96726	0.01118
2594.68149	0.01091
2593.39572	0.01082
2592.10995	0.01099
2590.82419	0.01134
2589.53842	0.01165
2588.25265	0.01173
2586.96688	0.01158
2585.68111	0.01138
2584.39534	0.01125
2583.10957	0.01120
2581.82380	0.01122
2580.53804	0.01134
2579.25227	0.01158
2577.96650	0.01189
2576.68073	0.01215
2575.39496	0.01226
2574.10919	0.01218
2572.82342	0.01192
2571.53765	0.01156
2570.25188	0.01128
2568.96612	0.01120
2567.68035	0.01122
2566.39458	0.01119
2565.10881	0.01108
2563.82304	0.01097
2562.53727	0.01091
2561.25150	0.01088
2559.96573	0.01085
2558.67997	0.01084
2557.39420	0.01093
2556.10843	0.01110
2554.82266	0.01123
2553.53689	0.01117
2552.25112	0.01088
2550.96535	0.01052
2549.67958	0.01030
2548.39381	0.01027
2547.10805	0.01030
2545.82228	0.01021
2544.53651	0.01002
2543.25074	0.00993
2541.96497	0.01005
2540.67920	0.01028
2539.39343	0.01045
2538.10766	0.01053
2536.82190	0.01058
2535.53613	0.01058
2534.25036	0.01048
2532.96459	0.01024
2531.67882	0.00998
2530.39305	0.00982
2529.10728	0.00975
2527.82151	0.00962
2526.53574	0.00939
2525.24998	0.00919
2523.96421	0.00926
2522.67844	0.00959
2521.39267	0.01001
2520.10690	0.01031
2518.82113	0.01049
2517.53536	0.01071
2516.24959	0.01104
2514.96383	0.01133
2513.67806	0.01132
2512.39229	0.01094
2511.10652	0.01044
2509.82075	0.01010
2508.53498	0.00995
2507.24921	0.00983
2505.96344	0.00965
2504.67767	0.00947
2503.39191	0.00944
2502.10614	0.00970
2500.82037	0.01016
2499.53460	0.01058
2498.24883	0.01069
2496.96306	0.01049
2495.67729	0.01018
2494.39152	0.00998
2493.10576	0.00991
2491.81999	0.00990
2490.53422	0.00981
2489.24845	0.00956
2487.96268	0.00912
2486.67691	0.00862
2485.39114	0.00825
2484.10537	0.00814
2482.81960	0.00825
2481.53384	0.00848
2480.24807	0.00871
2478.96230	0.00890
2477.67653	0.00901
2476.39076	0.00906
2475.10499	0.00916
2473.81922	0.00944
2472.53345	0.00983
2471.24769	0.01007
2469.96192	0.01000
2468.67615	0.00972
2467.39038	0.00949
2466.10461	0.00939
2464.81884	0.00929
2463.53307	0.00914
2462.24730	0.00911
2460.96153	0.00929
2459.67577	0.00952
2458.39000	0.00960
2457.10423	0.00958
2455.81846	0.00961
2454.53269	0.00974
2453.24692	0.00986
2451.96115	0.00990
2450.67538	0.00989
2449.38962	0.00990
2448.10385	0.00991
2446.81808	0.00989
2445.53231	0.00973
2444.24654	0.00943
2442.96077	0.00915
2441.67500	0.00912
2440.38923	0.00939
2439.10346	0.00978
2437.81770	0.01006
2436.53193	0.01017
2435.24616	0.01016
2433.96039	0.01012
2432.67462	0.01008
2431.38885	0.01003
2430.10308	0.01001
2428.81731	0.01003
2427.53155	0.01001
2426.24578	0.00981
2424.96001	0.00944
2423.67424	0.00912
2422.38847	0.00907
2421.10270	0.00923
2419.81693	0.00937
2418.53116	0.00934
2417.24539	0.00920
2415.95963	0.00902
2414.67386	0.00889
2413.38809	0.00884
2412.10232	0.00890
2410.81655	0.00905
2409.53078	0.00914
2408.24501	0.00904
2406.95924	0.00872
2405.67347	0.00835
2404.38771	0.00817
2403.10194	0.00830
2401.81617	0.00863
2400.53040	0.00890
2399.24463	0.00890
2397.95886	0.00870
2396.67309	0.00848
2395.38732	0.00840
2394.10156	0.00848
2392.81579	0.00861
2391.53002	0.00869
2390.24425	0.00872
2388.95848	0.00872
2387.67271	0.00871
2386.38694	0.00869
2385.10117	0.00868
2383.81540	0.00869
2382.52964	0.00874
2381.24387	0.00881
2379.95810	0.00887
2378.67233	0.00886
2377.38656	0.00879
2376.10079	0.00870
2374.81502	0.00864
2373.52925	0.00865
2372.24349	0.00871
2370.95772	0.00876
2369.67195	0.00878
2368.38618	0.00882
2367.10041	0.00897
2365.81464	0.00920
2364.52887	0.00944
2363.24310	0.00958
2361.95733	0.00965
2360.67157	0.00976
2359.38580	0.00997
2358.10003	0.01019
2356.81426	0.01029
2355.52849	0.01021
2354.24272	0.01004
2352.95695	0.00988
2351.67118	0.00982
2350.38542	0.00983
2349.09965	0.00988
2347.81388	0.00991
2346.52811	0.00992
2345.24234	0.00998
2343.95657	0.01009
2342.67080	0.01020
2341.38503	0.01022
2340.09926	0.01010
2338.81350	0.00989
2337.52773	0.00970
2336.24196	0.00958
2334.95619	0.00956
2333.67042	0.00960
2332.38465	0.00965
2331.09888	0.00968
2329.81311	0.00974
2328.52735	0.00988
2327.24158	0.01016
2325.95581	0.01051
2324.67004	0.01075
2323.38427	0.01073
2322.09850	0.01046
2320.81273	0.01011
2319.52696	0.00984
2318.24119	0.00965
2316.95543	0.00949
2315.66966	0.00934
2314.38389	0.00927
2313.09812	0.00936
2311.81235	0.00956
2310.52658	0.00974
2309.24081	0.00980
2307.95504	0.00970
2306.66928	0.00947
2305.38351	0.00921
2304.09774	0.00899
2302.81197	0.00890
2301.52620	0.00893
2300.24043	0.00905
2298.95466	0.00917
2297.66889	0.00924
2296.38312	0.00922
2295.09736	0.00912
2293.81159	0.00893
2292.52582	0.00872
2291.24005	0.00861
2289.95428	0.00865
2288.66851	0.00881
2287.38274	0.00902
2286.09697	0.00922
2284.81121	0.00937
2283.52544	0.00939
2282.23967	0.00930
2280.95390	0.00925
2279.66813	0.00928
2278.38236	0.00928
2277.09659	0.00913
2275.81082	0.00892
2274.52505	0.00882
2273.23929	0.00887
2271.95352	0.00894
2270.66775	0.00887
2269.38198	0.00854
2268.09621	0.00796
2266.81044	0.00728
2265.52467	0.00680
2264.23890	0.00672
2262.95314	0.00700
2261.66737	0.00742
2260.38160	0.00776
2259.09583	0.00783
2257.81006	0.00759
2256.52429	0.00715
2255.23852	0.00674
2253.95275	0.00649
2252.66698	0.00635
2251.38122	0.00621
2250.09545	0.00608
2248.80968	0.00617
2247.52391	0.00653
2246.23814	0.00707
2244.95237	0.00750
2243.66660	0.00770
2242.38083	0.00783
2241.09507	0.00808
2239.80930	0.00831
2238.52353	0.00822
2237.23776	0.00781
2235.95199	0.00744
2234.66622	0.00736
2233.38045	0.00738
2232.09468	0.00712
2230.80891	0.00653
2229.52315	0.00589
2228.23738	0.00541
2226.95161	0.00506
2225.66584	0.00479
2224.38007	0.00475
2223.09430	0.00507
2221.80853	0.00565
2220.52276	0.00613
2219.23700	0.00617
2217.95123	0.00585
2216.66546	0.00560
2215.37969	0.00574
2214.09392	0.00615
2212.80815	0.00652
2211.52238	0.00673
2210.23661	0.00687
2208.95084	0.00693
2207.66508	0.00666
2206.37931	0.00571
2205.09354	0.00411
2203.80777	0.00244
2202.52200	0.00155
2201.23623	0.00182
2199.95046	0.00287
2198.66469	0.00407
2197.37893	0.00499
2196.09316	0.00545
2194.80739	0.00537
2193.52162	0.00483
2192.23585	0.00422
2190.95008	0.00392
2189.66431	0.00397
2188.37854	0.00409
2187.09277	0.00412
2185.80701	0.00423
2184.52124	0.00461
2183.23547	0.00514
2181.94970	0.00560
2180.66393	0.00608
2179.37816	0.00689
2178.09239	0.00788
2176.80662	0.00836
2175.52085	0.00795
2174.23509	0.00702
2172.94932	0.00608
2171.66355	0.00516
2170.37778	0.00405
2169.09201	0.00288
2167.80624	0.00209
2166.52047	0.00193
2165.23470	0.00231
2163.94894	0.00293
2162.66317	0.00341
2161.37740	0.00335
2160.09163	0.00273
2158.80586	0.00205
2157.52009	0.00181
2156.23432	0.00187
2154.94855	0.00176
2153.66278	0.00140
2152.37702	0.00113
2151.09125	0.00126
2149.80548	0.00168
2148.51971	0.00211
2147.23394	0.00236
2145.94817	0.00234
2144.66240	0.00202
2143.37663	0.00145
2142.09087	0.00093
2140.80510	0.00099
2139.51933	0.00191
2138.23356	0.00335
2136.94779	0.00455
2135.66202	0.00486
2134.37625	0.00432
2133.09048	0.00353
2131.80471	0.00313
2130.51895	0.00329
2129.23318	0.00377
2127.94741	0.00417
2126.66164	0.00431
2125.37587	0.00423
2124.09010	0.00409
2122.80433	0.00399
2121.51856	0.00400
2120.23280	0.00421
2118.94703	0.00474
2117.66126	0.00559
2116.37549	0.00646
2115.08972	0.00695
2113.80395	0.00686
2112.51818	0.00626
2111.23241	0.00546
2109.94664	0.00478
2108.66088	0.00443
2107.37511	0.00446
2106.08934	0.00472
2104.80357	0.00503
2103.51780	0.00525
2102.23203	0.00534
2100.94626	0.00543
2099.66049	0.00624
2098.37473	0.00674
2097.08896	0.00677
2095.80319	0.00647
2094.51742	0.00600
2093.23165	0.00566
2091.94588	0.00558
2090.66011	0.00562
2089.37434	0.00547
2088.08857	0.00511
2086.80281	0.00485
2085.51704	0.00498
2084.23127	0.00544
2082.94550	0.00587
2081.65973	0.00603
2080.37396	0.00593
2079.08819	0.00572
2077.80242	0.00553
2076.51666	0.00533
2075.23089	0.00507
2073.94512	0.00473
2072.65935	0.00441
2071.37358	0.00428
2070.08781	0.00437
2068.80204	0.00456
2067.51627	0.00469
2066.23050	0.00464
2064.94474	0.00440
2063.65897	0.00410
2062.37320	0.00396
2061.08743	0.00405
2059.80166	0.00409
2058.51589	0.00377
2057.23012	0.00308
2055.94435	0.00229
2054.65859	0.00174
2053.37282	0.00163
2052.08705	0.00198
2050.80128	0.00252
2049.51551	0.00282
2048.22974	0.00266
2046.94397	0.00243
2045.65820	0.00272
2044.37243	0.00370
2043.08667	0.00479
2041.80090	0.00534
2040.51513	0.00530
2039.22936	0.00513
2037.94359	0.00507
2036.65782	0.00485
2035.37205	0.00420
2034.08628	0.00341
2032.80052	0.00311
2031.51475	0.00354
2030.22898	0.00441
2028.94321	0.00524
2027.65744	0.00567
2026.37167	0.00553
2025.08590	0.00487
2023.80013	0.00400
2022.51436	0.00343
2021.22860	0.00333
2019.94283	0.00329
2018.65706	0.00277
2017.37129	0.00176
2016.08552	0.00081
2014.79975	0.00049
2013.51398	0.00085
2012.22821	0.00160
2010.94245	0.00239
2009.65668	0.00304
2008.37091	0.00351
2007.08514	0.00388
2005.79937	0.00421
2004.51360	0.00453
2003.22783	0.00469
2001.94206	0.00454
2000.65629	0.00412
1999.37053	0.00376
1998.08476	0.00390
1996.79899	0.00469
1995.51322	0.00569
1994.22745	0.00616
1992.94168	0.00567
1991.65591	0.00433
1990.37014	0.00270
1989.08438	0.00139
1987.79861	0.00092
1986.51284	0.00149
1985.22707	0.00289
1983.94130	0.00446
1982.65553	0.00550
1981.36976	0.00581
1980.08399	0.00581
1978.79822	0.00607
1977.51246	0.00652
1976.22669	0.00661
1974.94092	0.00605
1973.65515	0.00533
1972.36938	0.00509
1971.08361	0.00532
1969.79784	0.00534
1968.51207	0.00461
1967.22631	0.00341
1965.94054	0.00255
1964.65477	0.00254
1963.36900	0.00312
1962.08323	0.00364
1960.79746	0.00379
1959.51169	0.00373
1958.22592	0.00362
1956.94015	0.00338
1955.65439	0.00300
1954.36862	0.00276
1953.08285	0.00296
1951.79708	0.00355
1950.51131	0.00416
1949.22554	0.00465
1947.93977	0.00515
1946.65400	0.00576
1945.36823	0.00624
1944.08247	0.00633
1942.79670	0.00619
1941.51093	0.00618
1940.22516	0.00640
1938.93939	0.00652
1937.65362	0.00628
1936.36785	0.00587
1935.08208	0.00561
1933.79632	0.00556
1932.51055	0.00558
1931.22478	0.00551
1929.93901	0.00537
1928.65324	0.00519
1927.36747	0.00506
1926.08170	0.00506
1924.79593	0.00520
1923.51016	0.00536
1922.22440	0.00539
1920.93863	0.00526
1919.65286	0.00514
1918.36709	0.00518
1917.08132	0.00536
1915.79555	0.00555
1914.50978	0.00559
1913.22401	0.00549
1911.93825	0.00538
1910.65248	0.00535
1909.36671	0.00542
1908.08094	0.00556
1906.79517	0.00582
1905.50940	0.00618
1904.22363	0.00657
1902.93786	0.00688
1901.65209	0.00705
1900.36633	0.00707
1899.08056	0.00694
1897.79479	0.00666
1896.50902	0.00634
1895.22325	0.00611
1893.93748	0.00601
1892.65171	0.00600
1891.36594	0.00596
1890.08018	0.00584
1888.79441	0.00566
1887.50864	0.00555
1886.22287	0.00556
1884.93710	0.00563
1883.65133	0.00566
1882.36556	0.00561
1881.07979	0.00556
1879.79402	0.00561
1878.50826	0.00575
1877.22249	0.00591
1875.93672	0.00601
1874.65095	0.00605
1873.36518	0.00614
1872.07941	0.00633
1870.79364	0.00652
1869.50787	0.00654
1868.22211	0.00636
1866.93634	0.00611
1865.65057	0.00599
1864.36480	0.00604
1863.07903	0.00619
1861.79326	0.00631
1860.50749	0.00630
1859.22172	0.00612
1857.93595	0.00582
1856.65019	0.00552
1855.36442	0.00534
1854.07865	0.00530
1852.79288	0.00531
1851.50711	0.00524
1850.22134	0.00509
1848.93557	0.00494
1847.64980	0.00490
1846.36404	0.00500
1845.07827	0.00514
1843.79250	0.00518
1842.50673	0.00510
1841.22096	0.00503
1839.93519	0.00513
1838.64942	0.00536
1837.36365	0.00559
1836.07788	0.00569
1834.79212	0.00567
1833.50635	0.00556
1832.22058	0.00543
1830.93481	0.00531
1829.64904	0.00522
1828.36327	0.00518
1827.07750	0.00525
1825.79173	0.00542
1824.50597	0.00559
1823.22020	0.00567
1821.93443	0.00562
1820.64866	0.00551
1819.36289	0.00540
1818.07712	0.00531
1816.79135	0.00523
1815.50558	0.00516
1814.21981	0.00513
1812.93405	0.00515
1811.64828	0.00520
1810.36251	0.00524
1809.07674	0.00527
1807.79097	0.00528
1806.50520	0.00526
1805.21943	0.00522
1803.93366	0.00521
1802.64790	0.00530
1801.36213	0.00547
1800.07636	0.00567
1798.79059	0.00582
1797.50482	0.00586
1796.21905	0.00575
1794.93328	0.00556
1793.64751	0.00538
1792.36174	0.00530
1791.07598	0.00531
1789.79021	0.00540
1788.50444	0.00553
1787.21867	0.00568
1785.93290	0.00581
1784.64713	0.00588
1783.36136	0.00590
1782.07559	0.00591
1780.78983	0.00590
1779.50406	0.00585
1778.21829	0.00575
1776.93252	0.00563
1775.64675	0.00550
1774.36098	0.00536
1773.07521	0.00523
1771.78944	0.00511
1770.50367	0.00505
1769.21791	0.00507
1767.93214	0.00512
1766.64637	0.00511
1765.36060	0.00509
1764.07483	0.00515
1762.78906	0.00526
1761.50329	0.00537
1760.21752	0.00541
1758.93176	0.00543
1757.64599	0.00547
1756.36022	0.00549
1755.07445	0.00544
1753.78868	0.00535
1752.50291	0.00527
1751.21714	0.00523
1749.93137	0.00523
1748.64560	0.00527
1747.35984	0.00534
1746.07407	0.00549
1744.78830	0.00568
1743.50253	0.00585
1742.21676	0.00594
1740.93099	0.00593
1739.64522	0.00588
1738.35945	0.00581
1737.07369	0.00577
1735.78792	0.00582
1734.50215	0.00593
1733.21638	0.00603
1731.93061	0.00611
1730.64484	0.00617
1729.35907	0.00618
1728.07330	0.00616
1726.78753	0.00616
1725.50177	0.00626
1724.21600	0.00640
1722.93023	0.00651
1721.64446	0.00655
1720.35869	0.00656
1719.07292	0.00659
1717.78715	0.00664
1716.50138	0.00672
1715.21561	0.00688
1713.92985	0.00712
1712.64408	0.00740
1711.35831	0.00768
1710.07254	0.00795
1708.78677	0.00823
1707.50100	0.00851
1706.21523	0.00876
1704.92946	0.00892
1703.64370	0.00907
1702.35793	0.00940
1701.07216	0.00994
1699.78639	0.01052
1698.50062	0.01108
1697.21485	0.01167
1695.92908	0.01227
1694.64331	0.01278
1693.35754	0.01319
1692.07178	0.01360
1690.78601	0.01402
1689.50024	0.01440
1688.21447	0.01477
1686.92870	0.01518
1685.64293	0.01567
1684.35716	0.01614
1683.07139	0.01655
1681.78563	0.01700
1680.49986	0.01755
1679.21409	0.01818
1677.92832	0.01883
1676.64255	0.01948
1675.35678	0.02007
1674.07101	0.02058
1672.78524	0.02109
1671.49947	0.02166
1670.21371	0.02227
1668.92794	0.02286
1667.64217	0.02342
1666.35640	0.02398
1665.07063	0.02457
1663.78486	0.02516
1662.49909	0.02572
1661.21332	0.02621
1659.92756	0.02663
1658.64179	0.02693
1657.35602	0.02710
1656.07025	0.02725
1654.78448	0.02750
1653.49871	0.02784
1652.21294	0.02812
1650.92717	0.02833
1649.64140	0.02859
1648.35564	0.02894
1647.06987	0.02929
1645.78410	0.02955
1644.49833	0.02975
1643.21256	0.02993
1641.92679	0.03008
1640.64102	0.03015
1639.35525	0.03010
1638.06949	0.03002
1636.78372	0.02997
1635.49795	0.02996
1634.21218	0.02997
1632.92641	0.03002
1631.64064	0.03010
1630.35487	0.03013
1629.06910	0.03002
1627.78333	0.02978
1626.49757	0.02944
1625.21180	0.02909
1623.92603	0.02871
1622.64026	0.02827
1621.35449	0.02775
1620.06872	0.02723
1618.78295	0.02675
1617.49718	0.02628
1616.21142	0.02578
1614.92565	0.02528
1613.63988	0.02483
1612.35411	0.02442
1611.06834	0.02395
1609.78257	0.02342
1608.49680	0.02285
1607.21103	0.02231
1605.92526	0.02182
1604.63950	0.02137
1603.35373	0.02095
1602.06796	0.02053
1600.78219	0.02015
1599.49642	0.01982
1598.21065	0.01954
1596.92488	0.01929
1595.63911	0.01903
1594.35335	0.01881
1593.06758	0.01863
1591.78181	0.01850
1590.49604	0.01838
1589.21027	0.01826
1587.92450	0.01817
1586.63873	0.01813
1585.35296	0.01812
1584.06719	0.01810
1582.78143	0.01804
1581.49566	0.01795
1580.20989	0.01786
1578.92412	0.01782
1577.63835	0.01786
1576.35258	0.01795
1575.06681	0.01802
1573.78104	0.01814
1572.49528	0.01838
1571.20951	0.01873
1569.92374	0.01909
1568.63797	0.01941
1567.35220	0.01970
1566.06643	0.01998
1564.78066	0.02022
1563.49489	0.02037
1562.20912	0.02047
1560.92336	0.02062
1559.63759	0.02082
1558.35182	0.02105
1557.06605	0.02133
1555.78028	0.02172
1554.49451	0.02216
1553.20874	0.02253
1551.92297	0.02288
1550.63721	0.02323
1549.35144	0.02356
1548.06567	0.02381
1546.77990	0.02399
1545.49413	0.02414
1544.20836	0.02425
1542.92259	0.02434
1541.63682	0.02440
1540.35105	0.02445
1539.06529	0.02446
1537.77952	0.02448
1536.49375	0.02460
1535.20798	0.02481
1533.92221	0.02501
1532.63644	0.02512
1531.35067	0.02515
1530.06490	0.02516
1528.77914	0.02515
1527.49337	0.02511
1526.20760	0.02502
1524.92183	0.02489
1523.63606	0.02479
1522.35029	0.02475
1521.06452	0.02473
1519.77875	0.02471
1518.49298	0.02472
1517.20722	0.02475
1515.92145	0.02473
1514.63568	0.02463
1513.34991	0.02447
1512.06414	0.02426
1510.77837	0.02400
1509.49260	0.02372
1508.20683	0.02345
1506.92107	0.02317
1505.63530	0.02286
1504.34953	0.02254
1503.06376	0.02226
1501.77799	0.02199
1500.49222	0.02164
1499.20645	0.02121
1497.92068	0.02078
1496.63491	0.02038
1495.34915	0.02002
1494.06338	0.01969
1492.77761	0.01940
1491.49184	0.01912
1490.20607	0.01883
1488.92030	0.01853
1487.63453	0.01826
1486.34876	0.01801
1485.06299	0.01775
1483.77723	0.01750
1482.49146	0.01728
1481.20569	0.01713
1479.91992	0.01704
1478.63415	0.01703
1477.34838	0.01707
1476.06261	0.01714
1474.77684	0.01721
1473.49108	0.01725
1472.20531	0.01723
1470.91954	0.01719
1469.63377	0.01721
1468.34800	0.01734
1467.06223	0.01756
1465.77646	0.01783
1464.49069	0.01807
1463.20492	0.01826
1461.91916	0.01839
1460.63339	0.01850
1459.34762	0.01862
1458.06185	0.01877
1456.77608	0.01891
1455.49031	0.01901
1454.20454	0.01913
1452.91877	0.01932
1451.63301	0.01949
1450.34724	0.01960
1449.06147	0.01961
1447.77570	0.01954
1446.48993	0.01941
1445.20416	0.01930
1443.91839	0.01923
1442.63262	0.01919
1441.34685	0.01912
1440.06109	0.01902
1438.77532	0.01893
1437.48955	0.01884
1436.20378	0.01872
1434.91801	0.01858
1433.63224	0.01848
1432.34647	0.01845
1431.06070	0.01846
1429.77494	0.01846
1428.48917	0.01844
1427.20340	0.01840
1425.91763	0.01835
1424.63186	0.01825
1423.34609	0.01812
1422.06032	0.01801
1420.77455	0.01799
1419.48878	0.01802
1418.20302	0.01802
1416.91725	0.01800
1415.63148	0.01802
1414.34571	0.01808
1413.05994	0.01812
1411.77417	0.01808
1410.48840	0.01795
1409.20263	0.01778
1407.91687	0.01764
1406.63110	0.01757
1405.34533	0.01755
1404.05956	0.01752
1402.77379	0.01746
1401.48802	0.01737
1400.20225	0.01728
1398.91648	0.01721
1397.63071	0.01713
1396.34495	0.01704
1395.05918	0.01693
1393.77341	0.01680
1392.48764	0.01669
1391.20187	0.01663
1389.91610	0.01661
1388.63033	0.01657
1387.34456	0.01649
1386.05880	0.01639
1384.77303	0.01632
1383.48726	0.01630
1382.20149	0.01628
1380.91572	0.01620
1379.62995	0.01608
1378.34418	0.01593
1377.05841	0.01575
1375.77264	0.01558
1374.48688	0.01541
1373.20111	0.01526
1371.91534	0.01512
1370.62957	0.01498
1369.34380	0.01482
1368.05803	0.01463
1366.77226	0.01443
1365.48649	0.01426
1364.20073	0.01415
1362.91496	0.01407
1361.62919	0.01401
1360.34342	0.01397
1359.05765	0.01394
1357.77188	0.01391
1356.48611	0.01387
1355.20034	0.01383
1353.91457	0.01378
1352.62881	0.01373
1351.34304	0.01368
1350.05727	0.01364
1348.77150	0.01362
1347.48573	0.01364
1346.19996	0.01368
1344.91419	0.01373
1343.62842	0.01379
1342.34266	0.01389
1341.05689	0.01404
1339.77112	0.01419
1338.48535	0.01428
1337.19958	0.01427
1335.91381	0.01418
1334.62804	0.01407
1333.34227	0.01398
1332.05650	0.01393
1330.77074	0.01393
1329.48497	0.01395
1328.19920	0.01394
1326.91343	0.01386
1325.62766	0.01371
1324.34189	0.01353
1323.05612	0.01335
1321.77035	0.01320
1320.48459	0.01310
1319.19882	0.01308
1317.91305	0.01310
1316.62728	0.01313
1315.34151	0.01317
1314.05574	0.01318
1312.76997	0.01317
1311.48420	0.01315
1310.19843	0.01311
1308.91267	0.01305
1307.62690	0.01296
1306.34113	0.01285
1305.05536	0.01275
1303.76959	0.01269
1302.48382	0.01268
1301.19805	0.01270
1299.91228	0.01273
1298.62652	0.01275
1297.34075	0.01274
1296.05498	0.01272
1294.76921	0.01271
1293.48344	0.01269
1292.19767	0.01267
1290.91190	0.01264
1289.62613	0.01262
1288.34036	0.01262
1287.05460	0.01266
1285.76883	0.01271
1284.48306	0.01277
1283.19729	0.01284
1281.91152	0.01290
1280.62575	0.01295
1279.33998	0.01298
1278.05421	0.01299
1276.76845	0.01299
1275.48268	0.01299
1274.19691	0.01302
1272.91114	0.01308
1271.62537	0.01316
1270.33960	0.01323
1269.05383	0.01328
1267.76806	0.01332
1266.48229	0.01340
1265.19653	0.01352
1263.91076	0.01367
1262.62499	0.01379
1261.33922	0.01386
1260.05345	0.01388
1258.76768	0.01391
1257.48191	0.01394
1256.19614	0.01399
1254.91037	0.01403
1253.62461	0.01407
1252.33884	0.01412
1251.05307	0.01418
1249.76730	0.01423
1248.48153	0.01433
1247.19576	0.01448
1245.90999	0.01467
1244.62422	0.01485
1243.33846	0.01501
1242.05269	0.01510
1240.76692	0.01515
1239.48115	0.01517
1238.19538	0.01522
1236.90961	0.01531
1235.62384	0.01542
1234.33807	0.01550
1233.05230	0.01554
1231.76654	0.01559
1230.48077	0.01566
1229.19500	0.01574
1227.90923	0.01576
1226.62346	0.01566
1225.33769	0.01545
1224.05192	0.01520
1222.76615	0.01496
1221.48039	0.01476
1220.19462	0.01461
1218.90885	0.01447
1217.62308	0.01432
1216.33731	0.01416
1215.05154	0.01401
1213.76577	0.01388
1212.48000	0.01379
1211.19423	0.01374
1209.90847	0.01373
1208.62270	0.01377
1207.33693	0.01380
1206.05116	0.01379
1204.76539	0.01374
1203.47962	0.01368
1202.19385	0.01362
1200.90808	0.01354
1199.62232	0.01341
1198.33655	0.01334
1197.05078	0.01323
1195.76501	0.01308
1194.47924	0.01292
1193.19347	0.01277
1191.90770	0.01263
1190.62193	0.01248
1189.33616	0.01233
1188.05040	0.01221
1186.76463	0.01218
1185.47886	0.01219
1184.19309	0.01218
1182.90732	0.01212
1181.62155	0.01206
1180.33578	0.01206
1179.05001	0.01213
1177.76425	0.01223
1176.47848	0.01230
1175.19271	0.01234
1173.90694	0.01236
1172.62117	0.01236
1171.33540	0.01235
1170.04963	0.01234
1168.76386	0.01234
1167.47809	0.01239
1166.19233	0.01250
1164.90656	0.01264
1163.62079	0.01278
1162.33502	0.01291
1161.04925	0.01303
1159.76348	0.01313
1158.47771	0.01321
1157.19194	0.01326
1155.90618	0.01327
1154.62041	0.01328
1153.33464	0.01330
1152.04887	0.01334
1150.76310	0.01340
1149.47733	0.01348
1148.19156	0.01357
1146.90579	0.01362
1145.62002	0.01361
1144.33426	0.01356
1143.04849	0.01351
1141.76272	0.01349
1140.47695	0.01354
1139.19118	0.01365
1137.90541	0.01382
1136.61964	0.01400
1135.33387	0.01419
1134.04811	0.01440
1132.76234	0.01464
1131.47657	0.01490
1130.19080	0.01522
1128.90503	0.01565
1127.61926	0.01619
1126.33349	0.01681
1125.04772	0.01749
1123.76195	0.01824
1122.47619	0.01906
1121.19042	0.01991
1119.90465	0.02073
1118.61888	0.02152
1117.33311	0.02231
1116.04734	0.02313
1114.76157	0.02401
1113.47580	0.02491
1112.19004	0.02580
1110.90427	0.02664
1109.61850	0.02745
1108.33273	0.02824
1107.04696	0.02901
1105.76119	0.02977
1104.47542	0.03050
1103.18965	0.03117
1101.90388	0.03175
1100.61812	0.03229
1099.33235	0.03284
1098.04658	0.03341
1096.76081	0.03391
1095.47504	0.03428
1094.18927	0.03448
1092.90350	0.03454
1091.61773	0.03452
1090.33197	0.03442
1089.04620	0.03428
1087.76043	0.03412
1086.47466	0.03399
1085.18889	0.03396
1083.90312	0.03413
1082.61735	0.03457
1081.33158	0.03522
1080.04581	0.03593
1078.76005	0.03661
1077.47428	0.03727
1076.18851	0.03797
1074.90274	0.03870
1073.61697	0.03943
1072.33120	0.04014
1071.04543	0.04082
1069.75966	0.04145
1068.47390	0.04201
1067.18813	0.04252
1065.90236	0.04306
1064.61659	0.04365
1063.33082	0.04429
1062.04505	0.04495
1060.75928	0.04564
1059.47351	0.04638
1058.18774	0.04713
1056.90198	0.04788
1055.61621	0.04861
1054.33044	0.04933
1053.04467	0.04997
1051.75890	0.05052
1050.47313	0.05101
1049.18736	0.05156
1047.90159	0.05224
1046.61583	0.05305
1045.33006	0.05394
1044.04429	0.05484
1042.75852	0.05573
1041.47275	0.05661
1040.18698	0.05748
1038.90121	0.05832
1037.61544	0.05913
1036.32967	0.05994
1035.04391	0.06080
1033.75814	0.06171
1032.47237	0.06261
1031.18660	0.06340
1029.90083	0.06395
1028.61506	0.06420
1027.32929	0.06416
1026.04352	0.06387
1024.75775	0.06342
1023.47199	0.06288
1022.18622	0.06229
1020.90045	0.06160
1019.61468	0.06078
1018.32891	0.05981
1017.04314	0.05874
1015.75737	0.05763
1014.47160	0.05651
1013.18584	0.05539
1011.90007	0.05429
1010.61430	0.05322
1009.32853	0.05221
1008.04276	0.05126
1006.75699	0.05036
1005.47122	0.04949
1004.18545	0.04864
1002.89968	0.04783
1001.61392	0.04707
1000.32815	0.04630
999.04238	0.04547
997.75661	0.04459
996.47084	0.04370
995.18507	0.04288
993.89930	0.04216
992.61353	0.04153
991.32777	0.04094
990.04200	0.04036
988.75623	0.03981
987.47046	0.03928
986.18469	0.03874
984.89892	0.03814
983.61315	0.03749
982.32738	0.03687
981.04161	0.03631
979.75585	0.03582
978.47008	0.03533
977.18431	0.03481
975.89854	0.03426
974.61277	0.03371
973.32700	0.03324
972.04123	0.03292
970.75546	0.03282
969.46970	0.03294
968.18393	0.03318
966.89816	0.03339
965.61239	0.03343
964.32662	0.03328
963.04085	0.03304
961.75508	0.03279
960.46931	0.03255
959.18354	0.03225
957.89778	0.03183
956.61201	0.03133
955.32624	0.03081
954.04047	0.03038
952.75470	0.03003
951.46893	0.02972
950.18316	0.02939
948.89739	0.02902
947.61163	0.02868
946.32586	0.02840
945.04009	0.02811
943.75432	0.02778
942.46855	0.02741
941.18278	0.02710
939.89701	0.02690
938.61124	0.02676
937.32547	0.02660
936.03971	0.02639
934.75394	0.02614
933.46817	0.02588
932.18240	0.02562
930.89663	0.02535
929.61086	0.02505
928.32509	0.02471
927.03932	0.02439
925.75356	0.02417
924.46779	0.02410
923.18202	0.02410
921.89625	0.02406
920.61048	0.02391
919.32471	0.02367
918.03894	0.02337
916.75317	0.02301
915.46740	0.02263
914.18164	0.02231
912.89587	0.02211
911.61010	0.02204
910.32433	0.02199
909.03856	0.02184
907.75279	0.02157
906.46702	0.02127
905.18125	0.02100
903.89549	0.02078
902.60972	0.02062
901.32395	0.02056
900.03818	0.02060
898.75241	0.02067
897.46664	0.02064
896.18087	0.02047
894.89510	0.02019
893.60933	0.01989
892.32357	0.01968
891.03780	0.01959
889.75203	0.01957
888.46626	0.01955
887.18049	0.01945
885.89472	0.01930
884.60895	0.01920
883.32318	0.01923
882.03742	0.01939
880.75165	0.01960
879.46588	0.01977
878.18011	0.01986
876.89434	0.01985
875.60857	0.01978
874.32280	0.01969
873.03703	0.01966
871.75126	0.01971
870.46550	0.01980
869.17973	0.01986
867.89396	0.01985
866.60819	0.01979
865.32242	0.01970
864.03665	0.01957
862.75088	0.01937
861.46511	0.01915
860.17935	0.01898
858.89358	0.01890
857.60781	0.01891
856.32204	0.01894
855.03627	0.01895
853.75050	0.01890
852.46473	0.01881
851.17896	0.01868
849.89319	0.01852
848.60743	0.01830
847.32166	0.01801
846.03589	0.01771
844.75012	0.01748
843.46435	0.01732
842.17858	0.01721
840.89281	0.01707
839.60704	0.01691
838.32128	0.01678
837.03551	0.01672
835.74974	0.01669
834.46397	0.01667
833.17820	0.01665
831.89243	0.01663
830.60666	0.01657
829.32089	0.01642
828.03512	0.01618
826.74936	0.01593
825.46359	0.01576
824.17782	0.01567
822.89205	0.01562
821.60628	0.01558
820.32051	0.01556
819.03474	0.01553
817.74897	0.01547
816.46321	0.01537
815.17744	0.01525
813.89167	0.01517
812.60590	0.01515
811.32013	0.01518
810.03436	0.01520
808.74859	0.01517
807.46282	0.01511
806.17705	0.01509
804.89129	0.01516
803.60552	0.01527
802.31975	0.01533
801.03398	0.01526
799.74821	0.01508
798.46244	0.01491
797.17667	0.01482
795.89090	0.01479
794.60513	0.01478
793.31937	0.01475
792.03360	0.01469
790.74783	0.01462
789.46206	0.01454
788.17629	0.01449
786.89052	0.01449
785.60475	0.01450
784.31898	0.01448
783.03322	0.01438
781.74745	0.01423
780.46168	0.01412
779.17591	0.01411
777.89014	0.01418
776.60437	0.01426
775.31860	0.01427
774.03283	0.01424
772.74706	0.01417
771.46130	0.01407
770.17553	0.01397
768.88976	0.01390
767.60399	0.01388
766.31822	0.01386
765.03245	0.01385
763.74668	0.01385
762.46091	0.01389
761.17515	0.01396
759.88938	0.01404
758.60361	0.01409
757.31784	0.01407
756.03207	0.01399
754.74630	0.01391
753.46053	0.01388
752.17476	0.01394
750.88899	0.01405
749.60323	0.01417
748.31746	0.01426
747.03169	0.01431
745.74592	0.01430
744.46015	0.01429
743.17438	0.01434
741.88861	0.01445
740.60284	0.01452
739.31708	0.01446
738.03131	0.01429
736.74554	0.01408
735.45977	0.01389
734.17400	0.01375
732.88823	0.01370
731.60246	0.01373
730.31669	0.01382
729.03092	0.01390
727.74516	0.01394
726.45939	0.01393
725.17362	0.01388
723.88785	0.01381
722.60208	0.01375
721.31631	0.01372
720.03054	0.01375
718.74477	0.01385
717.45901	0.01397
716.17324	0.01404
714.88747	0.01403
713.60170	0.01398
712.31593	0.01394
711.03016	0.01392
709.74439	0.01391
708.45862	0.01390
707.17285	0.01389
705.88709	0.01389
704.60132	0.01387
703.31555	0.01384
702.02978	0.01382
700.74401	0.01385
699.45824	0.01392
698.17247	0.01398
696.88670	0.01401
695.60094	0.01400
694.31517	0.01396
693.02940	0.01388
691.74363	0.01377
690.45786	0.01365
689.17209	0.01357
687.88632	0.01353
686.60055	0.01351
685.31478	0.01349
684.02902	0.01345
682.74325	0.01342
681.45748	0.01341
680.17171	0.01343
678.88594	0.01346
677.60017	0.01346
676.31440	0.01342
675.02863	0.01333
673.74287	0.01323
672.45710	0.01315
671.17133	0.01311
669.88556	0.01312
668.59979	0.01315
667.31402	0.01316
666.02825	0.01314
664.74248	0.01313
663.45671	0.01316
662.17095	0.01322
660.88518	0.01325
659.59941	0.01321
658.31364	0.01310
657.02787	0.01299
655.74210	0.01296
654.45633	0.01300
653.17056	0.01308
651.88480	0.01311
650.59903	0.01309
649.31326	0.01306
648.02749	0.01305
646.74172	0.01304
645.45595	0.01298
644.17018	0.01285
642.88441	0.01266
641.59864	0.01247
640.31288	0.01233
639.02711	0.01227
637.74134	0.01228
636.45557	0.01235
635.16980	0.01242
633.88403	0.01244
632.59826	0.01236
631.31249	0.01227
630.02673	0.01259
628.74096	0.01320
627.45519	0.01257
626.16942	0.01317
624.88365	0.01436
623.59788	0.01508
622.31211	0.01538
621.02634	0.01564
619.74057	0.01575
618.45481	0.01536
617.16904	0.01466
615.88327	0.01430
614.59750	0.01478
613.31173	0.01610
612.02596	0.01810
610.74019	0.02069
609.45442	0.02372
608.16866	0.02666
606.88289	0.02881
605.59712	0.02990
604.31135	0.03030
603.02558	0.03064
601.73981	0.03107
600.45404	0.03110
599.16827	0.03033
597.88250	0.02893
596.59674	0.02737
595.31097	0.02604
594.02520	0.02502
592.73943	0.02428
591.45366	0.02379
590.16789	0.02353
588.88212	0.02344
587.59635	0.02348
586.31059	0.02368
585.02482	0.02413
583.73905	0.02484
582.45328	0.02573
581.16751	0.02663
579.88174	0.02742
578.59597	0.02811
577.31020	0.02875
576.02443	0.02940
574.73867	0.03006
573.45290	0.03072
572.16713	0.03133
570.88136	0.03192
569.59559	0.03258
568.30982	0.03343
567.02405	0.03447
565.73828	0.03551
564.45251	0.03625
563.16675	0.03652
561.88098	0.03638
560.59521	0.03600
559.30944	0.03555
558.02367	0.03510
556.73790	0.03457
555.45213	0.03386
554.16636	0.03295
552.88060	0.03200
551.59483	0.03117
550.30906	0.03052
549.02329	0.02995
547.73752	0.02940
546.45175	0.02889
545.16598	0.02845
543.88021	0.02807
542.59444	0.02767
541.30868	0.02724
540.02291	0.02686
538.73714	0.02661
537.45137	0.02642
536.16560	0.02619
534.87983	0.02588
533.59406	0.02552
532.30829	0.02515
531.02253	0.02475
529.73676	0.02431
528.45099	0.02386
527.16522	0.02347
525.87945	0.02318
524.59368	0.02294
523.30791	0.02269
522.02214	0.02247
520.73637	0.02235
519.45061	0.02234
518.16484	0.02229
516.87907	0.02203
515.59330	0.02157
514.30753	0.02107
513.02176	0.02067
511.73599	0.02042
510.45022	0.02026
509.16446	0.02012
507.87869	0.02000
506.59292	0.01985
505.30715	0.01967
504.02138	0.01945
502.73561	0.01919
501.44984	0.01893
500.16407	0.01867
498.87830	0.01840
497.59254	0.01808
496.30677	0.01774
495.02100	0.01745
493.73523	0.01730
492.44946	0.01728
491.16369	0.01731
489.87792	0.01728
488.59215	0.01712
487.30639	0.01690
486.02062	0.01669
484.73485	0.01656
483.44908	0.01649
482.16331	0.01644
480.87754	0.01641
479.59177	0.01641
478.30600	0.01643
477.02023	0.01642
475.73447	0.01636
474.44870	0.01629
473.16293	0.01628
471.87716	0.01635
470.59139	0.01645
469.30562	0.01650
468.01985	0.01641
466.73408	0.01618
465.44832	0.01586
464.16255	0.01556
462.87678	0.01533
461.59101	0.01516
460.30524	0.01501
459.01947	0.01486
457.73370	0.01471
456.44793	0.01453
455.16216	0.01434
453.87640	0.01417
452.59063	0.01403
451.30486	0.01389
450.01909	0.01374
448.73332	0.01355
447.44755	0.01339
446.16178	0.01329
444.87601	0.01320
443.59025	0.01309
442.30448	0.01293
441.01871	0.01275
439.73294	0.01261
438.44717	0.01253
437.16140	0.01253
435.87563	0.01257
434.58986	0.01262
433.30409	0.01265
432.01833	0.01261
430.73256	0.01249
429.44679	0.01233
428.16102	0.01217
426.87525	0.01204
425.58948	0.01195
424.30371	0.01187
423.01794	0.01177
421.73218	0.01166
420.44641	0.01154
419.16064	0.01146
417.87487	0.01143
416.58910	0.01144
415.30333	0.01146
414.01756	0.01144
412.73179	0.01135
411.44602	0.01119
410.16026	0.01101
408.87449	0.01084
407.58872	0.01073
406.30295	0.01070
405.01718	0.01072
403.73141	0.01075
402.44564	0.01077
401.15987	0.01077
399.87411	0.01077
