3997.45528	0.01218
3996.16951	0.01161
3994.88374	0.01099
3993.59798	0.01041
3992.31221	0.00993
3991.02644	0.00966
3989.74067	0.00980
3988.45490	0.01048
3987.16913	0.01151
3985.88336	0.01243
3984.59759	0.01282
3983.31183	0.01255
3982.02606	0.01191
3980.74029	0.01140
3979.45452	0.01125
3978.16875	0.01129
3976.88298	0.01115
3975.59721	0.01077
3974.31144	0.01037
3973.02567	0.01012
3971.73991	0.00998
3970.45414	0.00994
3969.16837	0.01004
3967.88260	0.01023
3966.59683	0.01031
3965.31106	0.01023
3964.02529	0.01019
3962.73952	0.01036
3961.45376	0.01065
3960.16799	0.01074
3958.88222	0.01046
3957.59645	0.01001
3956.31068	0.00975
3955.02491	0.00986
3953.73914	0.01020
3952.45337	0.01052
3951.16760	0.01062
3949.88184	0.01042
3948.59607	0.01000
3947.31030	0.00960
3946.02453	0.00946
3944.73876	0.00958
3943.45299	0.00985
3942.16722	0.01022
3940.88145	0.01073
3939.59569	0.01129
3938.30992	0.01170
3937.02415	0.01181
3935.73838	0.01168
3934.45261	0.01140
3933.16684	0.01110
3931.88107	0.01095
3930.59530	0.01108
3929.30953	0.01139
3928.02377	0.01152
3926.73800	0.01126
3925.45223	0.01080
3924.16646	0.01060
3922.88069	0.01080
3921.59492	0.01111
3920.30915	0.01118
3919.02338	0.01096
3917.73762	0.01071
3916.45185	0.01070
3915.16608	0.01092
3913.88031	0.01107
3912.59454	0.01096
3911.30877	0.01076
3910.02300	0.01079
3908.73723	0.01115
3907.45146	0.01157
3906.16570	0.01167
3904.87993	0.01129
3903.59416	0.01065
3902.30839	0.01012
3901.02262	0.01000
3899.73685	0.01040
3898.45108	0.01113
3897.16531	0.01178
3895.87955	0.01196
3894.59378	0.01159
3893.30801	0.01089
3892.02224	0.01027
3890.73647	0.01007
3889.45070	0.01022
3888.16493	0.01024
3886.87916	0.00975
3885.59339	0.00893
3884.30763	0.00832
3883.02186	0.00832
3881.73609	0.00889
3880.45032	0.00968
3879.16455	0.01032
3877.87878	0.01063
3876.59301	0.01073
3875.30724	0.01081
3874.02148	0.01095
3872.73571	0.01098
3871.44994	0.01078
3870.16417	0.01054
3868.87840	0.01053
3867.59263	0.01068
3866.30686	0.01080
3865.02109	0.01092
3863.73532	0.01107
3862.44956	0.01107
3861.16379	0.01075
3859.87802	0.01021
3858.59225	0.00978
3857.30648	0.00973
3856.02071	0.01009
3854.73494	0.01072
3853.44917	0.01146
3852.16341	0.01202
3850.87764	0.01215
3849.59187	0.01197
3848.30610	0.01187
3847.02033	0.01199
3845.73456	0.01209
3844.44879	0.01187
3843.16302	0.01137
3841.87725	0.01085
3840.59149	0.01043
3839.30572	0.01006
3838.01995	0.00981
3836.73418	0.00976
3835.44841	0.00985
3834.16264	0.00992
3832.87687	0.00988
3831.59110	0.00970
3830.30534	0.00928
3829.01957	0.00857
3827.73380	0.00781
3826.44803	0.00739
3825.16226	0.00744
3823.87649	0.00763
3822.59072	0.00766
3821.30495	0.00773
3820.01918	0.00810
3818.73342	0.00864
3817.44765	0.00901
3816.16188	0.00922
3814.87611	0.00944
3813.59034	0.00970
3812.30457	0.01001
3811.01880	0.01048
3809.73303	0.01101
3808.44726	0.01138
3807.16150	0.01163
3805.87573	0.01195
3804.58996	0.01221
3803.30419	0.01208
3802.01842	0.01143
3800.73265	0.01050
3799.44688	0.00954
3798.16111	0.00878
3796.87535	0.00838
3795.58958	0.00838
3794.30381	0.00857
3793.01804	0.00873
3791.73227	0.00886
3790.44650	0.00909
3789.16073	0.00950
3787.87496	0.01006
3786.58919	0.01066
3785.30343	0.01117
3784.01766	0.01147
3782.73189	0.01147
3781.44612	0.01125
3780.16035	0.01098
3778.87458	0.01085
3777.58881	0.01080
3776.30304	0.01080
3775.01728	0.01088
3773.73151	0.01098
3772.44574	0.01077
3771.15997	0.01009
3769.87420	0.00926
3768.58843	0.00881
3767.30266	0.00893
3766.01689	0.00932
3764.73112	0.00951
3763.44536	0.00927
3762.15959	0.00889
3760.87382	0.00886
3759.58805	0.00936
3758.30228	0.01011
3757.01651	0.01073
3755.73074	0.01106
3754.44497	0.01104
3753.15921	0.01072
3751.87344	0.01020
3750.58767	0.00961
3749.30190	0.00907
3748.01613	0.00863
3746.73036	0.00819
3745.44459	0.00781
3744.15882	0.00780
3742.87305	0.00812
3741.58729	0.00831
3740.30152	0.00821
3739.01575	0.00806
3737.72998	0.00810
3736.44421	0.00845
3735.15844	0.00899
3733.87267	0.00932
3732.58690	0.00920
3731.30114	0.00881
3730.01537	0.00850
3728.72960	0.00839
3727.44383	0.00843
3726.15806	0.00860
3724.87229	0.00885
3723.58652	0.00897
3722.30075	0.00880
3721.01498	0.00835
3719.72922	0.00784
3718.44345	0.00764
3717.15768	0.00792
3715.87191	0.00855
3714.58614	0.00917
3713.30037	0.00950
3712.01460	0.00944
3710.72883	0.00899
3709.44307	0.00818
3708.15730	0.00738
3706.87153	0.00707
3705.58576	0.00743
3704.29999	0.00807
3703.01422	0.00843
3701.72845	0.00839
3700.44268	0.00824
3699.15691	0.00819
3697.87115	0.00824
3696.58538	0.00829
3695.29961	0.00823
3694.01384	0.00810
3692.72807	0.00820
3691.44230	0.00863
3690.15653	0.00910
3688.87076	0.00939
3687.58500	0.00935
3686.29923	0.00891
3685.01346	0.00815
3683.72769	0.00740
3682.44192	0.00699
3681.15615	0.00714
3679.87038	0.00784
3678.58461	0.00883
3677.29884	0.00975
3676.01308	0.01032
3674.72731	0.01040
3673.44154	0.00985
3672.15577	0.00873
3670.87000	0.00763
3669.58423	0.00714
3668.29846	0.00730
3667.01269	0.00772
3665.72693	0.00808
3664.44116	0.00827
3663.15539	0.00833
3661.86962	0.00839
3660.58385	0.00860
3659.29808	0.00892
3658.01231	0.00919
3656.72654	0.00934
3655.44077	0.00949
3654.15501	0.00971
3652.86924	0.01001
3651.58347	0.01043
3650.29770	0.01097
3649.01193	0.01155
3647.72616	0.01207
3646.44039	0.01241
3645.15462	0.01250
3643.86886	0.01229
3642.58309	0.01184
3641.29732	0.01135
3640.01155	0.01095
3638.72578	0.01068
3637.44001	0.01053
3636.15424	0.01053
3634.86847	0.01069
3633.58270	0.01094
3632.29694	0.01100
3631.01117	0.01065
3629.72540	0.01001
3628.43963	0.00959
3627.15386	0.00972
3625.86809	0.01039
3624.58232	0.01145
3623.29655	0.01262
3622.01079	0.01357
3620.72502	0.01415
3619.43925	0.01455
3618.15348	0.01484
3616.86771	0.01472
3615.58194	0.01392
3614.29617	0.01275
3613.01040	0.01198
3611.72463	0.01212
3610.43887	0.01301
3609.15310	0.01400
3607.86733	0.01443
3606.58156	0.01404
3605.29579	0.01322
3604.01002	0.01270
3602.72425	0.01283
3601.43848	0.01349
3600.15272	0.01429
3598.86695	0.01503
3597.58118	0.01576
3596.29541	0.01659
3595.00964	0.01751
3593.72387	0.01827
3592.43810	0.01863
3591.15233	0.01853
3589.86656	0.01808
3588.58080	0.01758
3587.29503	0.01735
3586.00926	0.01746
3584.72349	0.01763
3583.43772	0.01763
3582.15195	0.01735
3580.86618	0.01688
3579.58041	0.01650
3578.29464	0.01649
3577.00888	0.01693
3575.72311	0.01766
3574.43734	0.01831
3573.15157	0.01859
3571.86580	0.01852
3570.58003	0.01839
3569.29426	0.01839
3568.00849	0.01849
3566.72273	0.01851
3565.43696	0.01838
3564.15119	0.01825
3562.86542	0.01831
3561.57965	0.01854
3560.29388	0.01880
3559.00811	0.01904
3557.72234	0.01935
3556.43657	0.01968
3555.15081	0.01985
3553.86504	0.01977
3552.57927	0.01957
3551.29350	0.01945
3550.00773	0.01948
3548.72196	0.01957
3547.43619	0.01965
3546.15042	0.01969
3544.86466	0.01970
3543.57889	0.01969
3542.29312	0.01979
3541.00735	0.02008
3539.72158	0.02049
3538.43581	0.02085
3537.15004	0.02110
3535.86427	0.02136
3534.57850	0.02170
3533.29274	0.02209
3532.00697	0.02242
3530.72120	0.02271
3529.43543	0.02304
3528.14966	0.02340
3526.86389	0.02374
3525.57812	0.02401
3524.29235	0.02421
3523.00659	0.02437
3521.72082	0.02453
3520.43505	0.02480
3519.14928	0.02526
3517.86351	0.02573
3516.57774	0.02588
3515.29197	0.02548
3514.00620	0.02471
3512.72043	0.02402
3511.43467	0.02371
3510.14890	0.02378
3508.86313	0.02404
3507.57736	0.02435
3506.29159	0.02470
3505.00582	0.02507
3503.72005	0.02541
3502.43428	0.02565
3501.14852	0.02573
3499.86275	0.02570
3498.57698	0.02568
3497.29121	0.02574
3496.00544	0.02586
3494.71967	0.02593
3493.43390	0.02587
3492.14813	0.02579
3490.86236	0.02586
3489.57660	0.02618
3488.29083	0.02664
3487.00506	0.02701
3485.71929	0.02709
3484.43352	0.02690
3483.14775	0.02664
3481.86198	0.02655
3480.57621	0.02668
3479.29045	0.02695
3478.00468	0.02725
3476.71891	0.02760
3475.43314	0.02798
3474.14737	0.02828
3472.86160	0.02836
3471.57583	0.02825
3470.29006	0.02812
3469.00429	0.02813
3467.71853	0.02832
3466.43276	0.02857
3465.14699	0.02885
3463.86122	0.02919
3462.57545	0.02958
3461.28968	0.02986
3460.00391	0.02989
3458.71814	0.02965
3457.43238	0.02937
3456.14661	0.02930
3454.86084	0.02955
3453.57507	0.02992
3452.28930	0.03009
3451.00353	0.02990
3449.71776	0.02951
3448.43199	0.02930
3447.14622	0.02951
3445.86046	0.03007
3444.57469	0.03072
3443.28892	0.03116
3442.00315	0.03123
3440.71738	0.03091
3439.43161	0.03036
3438.14584	0.02984
3436.86007	0.02955
3435.57431	0.02954
3434.28854	0.02972
3433.00277	0.02994
3431.71700	0.03015
3430.43123	0.03048
3429.14546	0.03110
3427.85969	0.03206
3426.57392	0.03311
3425.28815	0.03391
3424.00239	0.03426
3422.71662	0.03419
3421.43085	0.03392
3420.14508	0.03367
3418.85931	0.03362
3417.57354	0.03380
3416.28777	0.03410
3415.00200	0.03430
3413.71624	0.03429
3412.43047	0.03415
3411.14470	0.03404
3409.85893	0.03396
3408.57316	0.03380
3407.28739	0.03357
3406.00162	0.03341
3404.71585	0.03347
3403.43008	0.03375
3402.14432	0.03409
3400.85855	0.03444
3399.57278	0.03486
3398.28701	0.03528
3397.00124	0.03569
3395.71547	0.03589
3394.42970	0.03571
3393.14393	0.03529
3391.85817	0.03495
3390.57240	0.03481
3389.28663	0.03481
3388.00086	0.03482
3386.71509	0.03486
3385.42932	0.03498
3384.14355	0.03521
3382.85778	0.03549
3381.57201	0.03577
3380.28625	0.03606
3379.00048	0.03642
3377.71471	0.03684
3376.42894	0.03723
3375.14317	0.03748
3373.85740	0.03763
3372.57163	0.03780
3371.28586	0.03802
3370.00010	0.03816
3368.71433	0.03809
3367.42856	0.03779
3366.14279	0.03731
3364.85702	0.03680
3363.57125	0.03645
3362.28548	0.03640
3360.99971	0.03666
3359.71394	0.03717
3358.42818	0.03779
3357.14241	0.03838
3355.85664	0.03885
3354.57087	0.03913
3353.28510	0.03925
3351.99933	0.03918
3350.71356	0.03892
3349.42779	0.03856
3348.14202	0.03838
3346.85626	0.03858
3345.57049	0.03914
3344.28472	0.03987
3342.99895	0.04063
3341.71318	0.04137
3340.42741	0.04198
3339.14164	0.04229
3337.85587	0.04221
3336.57011	0.04191
3335.28434	0.04174
3333.99857	0.04190
3332.71280	0.04231
3331.42703	0.04269
3330.14126	0.04287
3328.85549	0.04291
3327.56972	0.04301
3326.28395	0.04319
3324.99819	0.04332
3323.71242	0.04325
3322.42665	0.04303
3321.14088	0.04287
3319.85511	0.04294
3318.56934	0.04323
3317.28357	0.04368
3315.99780	0.04419
3314.71204	0.04466
3313.42627	0.04491
3312.14050	0.04487
3310.85473	0.04458
3309.56896	0.04419
3308.28319	0.04391
3306.99742	0.04391
3305.71165	0.04424
3304.42588	0.04478
3303.14012	0.04527
3301.85435	0.04552
3300.56858	0.04546
3299.28281	0.04518
3297.99704	0.04484
3296.71127	0.04459
3295.42550	0.04450
3294.13973	0.04452
3292.85397	0.04455
3291.56820	0.04452
3290.28243	0.04440
3288.99666	0.04425
3287.71089	0.04417
3286.42512	0.04429
3285.13935	0.04462
3283.85358	0.04503
3282.56781	0.04526
3281.28205	0.04506
3279.99628	0.04449
3278.71051	0.04389
3277.42474	0.04372
3276.13897	0.04412
3274.85320	0.04484
3273.56743	0.04539
3272.28166	0.04544
3270.99590	0.04508
3269.71013	0.04457
3268.42436	0.04413
3267.13859	0.04383
3265.85282	0.04375
3264.56705	0.04391
3263.28128	0.04420
3261.99551	0.04440
3260.70974	0.04437
3259.42398	0.04416
3258.13821	0.04388
3256.85244	0.04367
3255.56667	0.04364
3254.28090	0.04385
3252.99513	0.04415
3251.70936	0.04425
3250.42359	0.04391
3249.13783	0.04322
3247.85206	0.04249
3246.56629	0.04207
3245.28052	0.04211
3243.99475	0.04249
3242.70898	0.04293
3241.42321	0.04317
3240.13744	0.04309
3238.85167	0.04278
3237.56591	0.04245
3236.28014	0.04223
3234.99437	0.04212
3233.70860	0.04207
3232.42283	0.04206
3231.13706	0.04208
3229.85129	0.04203
3228.56552	0.04178
3227.27976	0.04141
3225.99399	0.04114
3224.70822	0.04114
3223.42245	0.04130
3222.13668	0.04138
3220.85091	0.04119
3219.56514	0.04073
3218.27937	0.04011
3216.99360	0.03957
3215.70784	0.03934
3214.42207	0.03949
3213.13630	0.03977
3211.85053	0.03984
3210.56476	0.03961
3209.27899	0.03933
3207.99322	0.03927
3206.70745	0.03948
3205.42169	0.03983
3204.13592	0.04025
3202.85015	0.04071
3201.56438	0.04109
3200.27861	0.04118
3198.99284	0.04081
3197.70707	0.04008
3196.42130	0.03935
3195.13553	0.03895
3193.84977	0.03896
3192.56400	0.03916
3191.27823	0.03928
3189.99246	0.03917
3188.70669	0.03892
3187.42092	0.03867
3186.13515	0.03850
3184.84938	0.03837
3183.56362	0.03827
3182.27785	0.03824
3180.99208	0.03836
3179.70631	0.03858
3178.42054	0.03876
3177.13477	0.03872
3175.84900	0.03835
3174.56323	0.03773
3173.27746	0.03712
3171.99170	0.03671
3170.70593	0.03650
3169.42016	0.03640
3168.13439	0.03636
3166.84862	0.03644
3165.56285	0.03665
3164.27708	0.03686
3162.99131	0.03688
3161.70555	0.03665
3160.41978	0.03626
3159.13401	0.03584
3157.84824	0.03552
3156.56247	0.03538
3155.27670	0.03546
3153.99093	0.03568
3152.70516	0.03585
3151.41939	0.03576
3150.13363	0.03540
3148.84786	0.03494
3147.56209	0.03458
3146.27632	0.03431
3144.99055	0.03400
3143.70478	0.03358
3142.41901	0.03321
3141.13324	0.03304
3139.84748	0.03310
3138.56171	0.03328
3137.27594	0.03351
3135.99017	0.03376
3134.70440	0.03394
3133.41863	0.03399
3132.13286	0.03393
3130.84709	0.03386
3129.56132	0.03378
3128.27556	0.03371
3126.98979	0.03364
3125.70402	0.03363
3124.41825	0.03364
3123.13248	0.03356
3121.84671	0.03332
3120.56094	0.03302
3119.27517	0.03282
3117.98940	0.03282
3116.70364	0.03296
3115.41787	0.03311
3114.13210	0.03321
3112.84633	0.03326
3111.56056	0.03325
3110.27479	0.03321
3108.98902	0.03316
3107.70325	0.03313
3106.41749	0.03304
3105.13172	0.03281
3103.84595	0.03240
3102.56018	0.03199
3101.27441	0.03181
3099.98864	0.03193
3098.70287	0.03227
3097.41710	0.03264
3096.13133	0.03296
3094.84557	0.03323
3093.55980	0.03342
3092.27403	0.03348
3090.98826	0.03341
3089.70249	0.03328
3088.41672	0.03317
3087.13095	0.03312
3085.84518	0.03311
3084.55942	0.03311
3083.27365	0.03312
3081.98788	0.03319
3080.70211	0.03334
3079.41634	0.03354
3078.13057	0.03367
3076.84480	0.03366
3075.55903	0.03349
3074.27326	0.03327
3072.98750	0.03314
3071.70173	0.03312
3070.41596	0.03313
3069.13019	0.03304
3067.84442	0.03281
3066.55865	0.03251
3065.27288	0.03223
3063.98711	0.03212
3062.70135	0.03221
3061.41558	0.03247
3060.12981	0.03273
3058.84404	0.03285
3057.55827	0.03278
3056.27250	0.03263
3054.98673	0.03254
3053.70096	0.03253
3052.41519	0.03251
3051.12943	0.03233
3049.84366	0.03196
3048.55789	0.03155
3047.27212	0.03129
3045.98635	0.03124
3044.70058	0.03125
3043.41481	0.03114
3042.12904	0.03079
3040.84328	0.03027
3039.55751	0.02968
3038.27174	0.02903
3036.98597	0.02836
3035.70020	0.02779
3034.41443	0.02753
3033.12866	0.02766
3031.84289	0.02806
3030.55712	0.02847
3029.27136	0.02861
3027.98559	0.02836
3026.69982	0.02781
3025.41405	0.02725
3024.12828	0.02694
3022.84251	0.02693
3021.55674	0.02712
3020.27097	0.02735
3018.98521	0.02756
3017.69944	0.02772
3016.41367	0.02779
3015.12790	0.02771
3013.84213	0.02742
3012.55636	0.02699
3011.27059	0.02657
3009.98482	0.02632
3008.69905	0.02626
3007.41329	0.02631
3006.12752	0.02634
3004.84175	0.02631
3003.55598	0.02620
3002.27021	0.02605
3000.98444	0.02587
2999.69867	0.02571
2998.41290	0.02568
2997.12714	0.02574
2995.84137	0.02585
2994.55560	0.02591
2993.26983	0.02576
2991.98406	0.02540
2990.69829	0.02499
2989.41252	0.02474
2988.12675	0.02469
2986.84098	0.02473
2985.55522	0.02479
2984.26945	0.02484
2982.98368	0.02486
2981.69791	0.02485
2980.41214	0.02486
2979.12637	0.02500
2977.84060	0.02531
2976.55483	0.02561
2975.26907	0.02566
2973.98330	0.02545
2972.69753	0.02525
2971.41176	0.02530
2970.12599	0.02554
2968.84022	0.02573
2967.55445	0.02580
2966.26868	0.02589
2964.98291	0.02613
2963.69715	0.02650
2962.41138	0.02692
2961.12561	0.02728
2959.83984	0.02745
2958.55407	0.02741
2957.26830	0.02725
2955.98253	0.02711
2954.69676	0.02705
2953.41100	0.02701
2952.12523	0.02697
2950.83946	0.02692
2949.55369	0.02684
2948.26792	0.02675
2946.98215	0.02664
2945.69638	0.02653
2944.41061	0.02644
2943.12484	0.02639
2941.83908	0.02639
2940.55331	0.02646
2939.26754	0.02664
2937.98177	0.02698
2936.69600	0.02740
2935.41023	0.02772
2934.12446	0.02785
2932.83869	0.02787
2931.55293	0.02794
2930.26716	0.02810
2928.98139	0.02821
2927.69562	0.02813
2926.40985	0.02785
2925.12408	0.02748
2923.83831	0.02715
2922.55254	0.02697
2921.26677	0.02699
2919.98101	0.02714
2918.69524	0.02724
2917.40947	0.02715
2916.12370	0.02690
2914.83793	0.02670
2913.55216	0.02667
2912.26639	0.02678
2910.98062	0.02682
2909.69486	0.02666
2908.40909	0.02640
2907.12332	0.02621
2905.83755	0.02613
2904.55178	0.02604
2903.26601	0.02585
2901.98024	0.02566
2900.69447	0.02558
2899.40870	0.02559
2898.12294	0.02560
2896.83717	0.02563
2895.55140	0.02572
2894.26563	0.02581
2892.97986	0.02575
2891.69409	0.02550
2890.40832	0.02521
2889.12255	0.02505
2887.83678	0.02509
2886.55102	0.02532
2885.26525	0.02558
2883.97948	0.02568
2882.69371	0.02551
2881.40794	0.02519
2880.12217	0.02493
2878.83640	0.02490
2877.55063	0.02505
2876.26487	0.02520
2874.97910	0.02517
2873.69333	0.02497
2872.40756	0.02478
2871.12179	0.02474
2869.83602	0.02485
2868.55025	0.02499
2867.26448	0.02506
2865.97871	0.02501
2864.69295	0.02479
2863.40718	0.02443
2862.12141	0.02403
2860.83564	0.02381
2859.54987	0.02387
2858.26410	0.02407
2856.97833	0.02421
2855.69256	0.02424
2854.40680	0.02427
2853.12103	0.02440
2851.83526	0.02454
2850.54949	0.02457
2849.26372	0.02442
2847.97795	0.02411
2846.69218	0.02370
2845.40641	0.02326
2844.12064	0.02293
2842.83488	0.02276
2841.54911	0.02272
2840.26334	0.02271
2838.97757	0.02270
2837.69180	0.02270
2836.40603	0.02269
2835.12026	0.02262
2833.83449	0.02245
2832.54873	0.02221
2831.26296	0.02198
2829.97719	0.02181
2828.69142	0.02174
2827.40565	0.02176
2826.11988	0.02185
2824.83411	0.02194
2823.54834	0.02198
2822.26257	0.02193
2820.97681	0.02179
2819.69104	0.02158
2818.40527	0.02140
2817.11950	0.02133
2815.83373	0.02141
2814.54796	0.02156
2813.26219	0.02168
2811.97642	0.02174
2810.69066	0.02175
2809.40489	0.02176
2808.11912	0.02184
2806.83335	0.02202
2805.54758	0.02228
2804.26181	0.02253
2802.97604	0.02265
2801.69027	0.02254
2800.40450	0.02225
2799.11874	0.02193
2797.83297	0.02176
2796.54720	0.02175
2795.26143	0.02179
2793.97566	0.02174
2792.68989	0.02158
2791.40412	0.02142
2790.11835	0.02134
2788.83259	0.02134
2787.54682	0.02135
2786.26105	0.02139
2784.97528	0.02144
2783.68951	0.02148
2782.40374	0.02146
2781.11797	0.02141
2779.83220	0.02136
2778.54643	0.02130
2777.26067	0.02124
2775.97490	0.02118
2774.68913	0.02114
2773.40336	0.02110
2772.11759	0.02100
2770.83182	0.02082
2769.54605	0.02062
2768.26028	0.02047
2766.97452	0.02044
2765.68875	0.02050
2764.40298	0.02057
2763.11721	0.02059
2761.83144	0.02058
2760.54567	0.02059
2759.25990	0.02062
2757.97413	0.02069
2756.68836	0.02076
2755.40260	0.02073
2754.11683	0.02057
2752.83106	0.02033
2751.54529	0.02013
2750.25952	0.02002
2748.97375	0.02005
2747.68798	0.02015
2746.40221	0.02023
2745.11645	0.02019
2743.83068	0.02004
2742.54491	0.01990
2741.25914	0.01981
2739.97337	0.01977
2738.68760	0.01974
2737.40183	0.01973
2736.11606	0.01978
2734.83029	0.01988
2733.54453	0.01999
2732.25876	0.02002
2730.97299	0.01991
2729.68722	0.01968
2728.40145	0.01941
2727.11568	0.01922
2725.82991	0.01922
2724.54414	0.01942
2723.25838	0.01969
2721.97261	0.01985
2720.68684	0.01981
2719.40107	0.01963
2718.11530	0.01942
2716.82953	0.01926
2715.54376	0.01917
2714.25799	0.01920
2712.97222	0.01936
2711.68646	0.01957
2710.40069	0.01971
2709.11492	0.01973
2707.82915	0.01967
2706.54338	0.01966
2705.25761	0.01965
2703.97184	0.01952
2702.68607	0.01922
2701.40031	0.01888
2700.11454	0.01870
2698.82877	0.01875
2697.54300	0.01890
2696.25723	0.01901
2694.97146	0.01898
2693.68569	0.01881
2692.39992	0.01856
2691.11415	0.01828
2689.82839	0.01804
2688.54262	0.01789
2687.25685	0.01786
2685.97108	0.01795
2684.68531	0.01814
2683.39954	0.01842
2682.11377	0.01867
2680.82800	0.01874
2679.54224	0.01854
2678.25647	0.01820
2676.97070	0.01792
2675.68493	0.01787
2674.39916	0.01802
2673.11339	0.01822
2671.82762	0.01835
2670.54185	0.01838
2669.25608	0.01838
2667.97032	0.01841
2666.68455	0.01847
2665.39878	0.01856
2664.11301	0.01869
2662.82724	0.01883
2661.54147	0.01893
2660.25570	0.01896
2658.96993	0.01896
2657.68417	0.01899
2656.39840	0.01899
2655.11263	0.01890
2653.82686	0.01872
2652.54109	0.01855
2651.25532	0.01846
2649.96955	0.01844
2648.68378	0.01839
2647.39801	0.01834
2646.11225	0.01835
2644.82648	0.01844
2643.54071	0.01849
2642.25494	0.01840
2640.96917	0.01821
2639.68340	0.01805
2638.39763	0.01798
2637.11186	0.01791
2635.82609	0.01777
2634.54033	0.01760
2633.25456	0.01750
2631.96879	0.01752
2630.68302	0.01759
2629.39725	0.01765
2628.11148	0.01767
2626.82571	0.01760
2625.53994	0.01744
2624.25418	0.01719
2622.96841	0.01688
2621.68264	0.01656
2620.39687	0.01630
2619.11110	0.01616
2617.82533	0.01615
2616.53956	0.01621
2615.25379	0.01625
2613.96802	0.01627
2612.68226	0.01628
2611.39649	0.01622
2610.11072	0.01606
2608.82495	0.01590
2607.53918	0.01588
2606.25341	0.01602
2604.96764	0.01614
2603.68187	0.01614
2602.39611	0.01606
2601.11034	0.01605
2599.82457	0.01612
2598.53880	0.01614
2597.25303	0.01605
2595.96726	0.01591
2594.68149	0.01580
2593.39572	0.01565
2592.10995	0.01537
2590.82419	0.01497
2589.53842	0.01466
2588.25265	0.01462
2586.96688	0.01474
2585.68111	0.01479
2584.39534	0.01465
2583.10957	0.01450
2581.82380	0.01452
2580.53804	0.01472
2579.25227	0.01500
2577.96650	0.01527
2576.68073	0.01549
2575.39496	0.01561
2574.10919	0.01555
2572.82342	0.01530
2571.53765	0.01494
2570.25188	0.01458
2568.96612	0.01434
2567.68035	0.01426
2566.39458	0.01417
2565.10881	0.01386
2563.82304	0.01338
2562.53727	0.01299
2561.25150	0.01293
2559.96573	0.01313
2558.67997	0.01338
2557.39420	0.01365
2556.10843	0.01395
2554.82266	0.01424
2553.53689	0.01440
2552.25112	0.01450
2550.96535	0.01468
2549.67958	0.01495
2548.39381	0.01513
2547.10805	0.01510
2545.82228	0.01500
2544.53651	0.01497
2543.25074	0.01490
2541.96497	0.01456
2540.67920	0.01391
2539.39343	0.01327
2538.10766	0.01294
2536.82190	0.01289
2535.53613	0.01294
2534.25036	0.01294
2532.96459	0.01287
2531.67882	0.01277
2530.39305	0.01274
2529.10728	0.01282
2527.82151	0.01294
2526.53574	0.01292
2525.24998	0.01264
2523.96421	0.01223
2522.67844	0.01190
2521.39267	0.01183
2520.10690	0.01200
2518.82113	0.01228
2517.53536	0.01251
2516.24959	0.01263
2514.96383	0.01269
2513.67806	0.01273
2512.39229	0.01282
2511.10652	0.01294
2509.82075	0.01300
2508.53498	0.01291
2507.24921	0.01261
2505.96344	0.01223
2504.67767	0.01204
2503.39191	0.01217
2502.10614	0.01249
2500.82037	0.01273
2499.53460	0.01269
2498.24883	0.01245
2496.96306	0.01221
2495.67729	0.01218
2494.39152	0.01243
2493.10576	0.01287
2491.81999	0.01330
2490.53422	0.01355
2489.24845	0.01347
2487.96268	0.01301
2486.67691	0.01232
2485.39114	0.01176
2484.10537	0.01165
2482.81960	0.01195
2481.53384	0.01228
2480.24807	0.01238
2478.96230	0.01233
2477.67653	0.01237
2476.39076	0.01258
2475.10499	0.01278
2473.81922	0.01273
2472.53345	0.01236
2471.24769	0.01186
2469.96192	0.01156
2468.67615	0.01160
2467.39038	0.01184
2466.10461	0.01209
2464.81884	0.01226
2463.53307	0.01239
2462.24730	0.01251
2460.96153	0.01261
2459.67577	0.01265
2458.39000	0.01260
2457.10423	0.01252
2455.81846	0.01247
2454.53269	0.01257
2453.24692	0.01277
2451.96115	0.01293
2450.67538	0.01288
2449.38962	0.01259
2448.10385	0.01221
2446.81808	0.01195
2445.53231	0.01194
2444.24654	0.01213
2442.96077	0.01233
2441.67500	0.01238
2440.38923	0.01236
2439.10346	0.01241
2437.81770	0.01251
2436.53193	0.01250
2435.24616	0.01236
2433.96039	0.01230
2432.67462	0.01248
2431.38885	0.01281
2430.10308	0.01314
2428.81731	0.01338
2427.53155	0.01347
2426.24578	0.01328
2424.96001	0.01276
2423.67424	0.01215
2422.38847	0.01173
2421.10270	0.01154
2419.81693	0.01138
2418.53116	0.01117
2417.24539	0.01102
2415.95963	0.01105
2414.67386	0.01120
2413.38809	0.01139
2412.10232	0.01162
2410.81655	0.01187
2409.53078	0.01199
2408.24501	0.01189
2406.95924	0.01165
2405.67347	0.01148
2404.38771	0.01145
2403.10194	0.01145
2401.81617	0.01137
2400.53040	0.01123
2399.24463	0.01104
2397.95886	0.01098
2396.67309	0.01107
2395.38732	0.01128
2394.10156	0.01153
2392.81579	0.01172
2391.53002	0.01181
2390.24425	0.01188
2388.95848	0.01200
2387.67271	0.01216
2386.38694	0.01228
2385.10117	0.01232
2383.81540	0.01232
2382.52964	0.01234
2381.24387	0.01237
2379.95810	0.01235
2378.67233	0.01231
2377.38656	0.01237
2376.10079	0.01260
2374.81502	0.01285
2373.52925	0.01301
2372.24349	0.01310
2370.95772	0.01326
2369.67195	0.01346
2368.38618	0.01373
2367.10041	0.01408
2365.81464	0.01451
2364.52887	0.01478
2363.24310	0.01483
2361.95733	0.01480
2360.67157	0.01498
2359.38580	0.01516
2358.10003	0.01516
2356.81426	0.01497
2355.52849	0.01458
2354.24272	0.01404
2352.95695	0.01346
2351.67118	0.01313
2350.38542	0.01299
2349.09965	0.01282
2347.81388	0.01270
2346.52811	0.01315
2345.24234	0.01387
2343.95657	0.01397
2342.67080	0.01353
2341.38503	0.01378
2340.09926	0.01473
2338.81350	0.01466
2337.52773	0.01357
2336.24196	0.01369
2334.95619	0.01471
2333.67042	0.01438
2332.38465	0.01335
2331.09888	0.01396
2329.81311	0.01474
2328.52735	0.01415
2327.24158	0.01464
2325.95581	0.01573
2324.67004	0.01545
2323.38427	0.01529
2322.09850	0.01569
2320.81273	0.01511
2319.52696	0.01479
2318.24119	0.01473
2316.95543	0.01403
2315.66966	0.01369
2314.38389	0.01359
2313.09812	0.01314
2311.81235	0.01289
2310.52658	0.01254
2309.24081	0.01221
2307.95504	0.01210
2306.66928	0.01190
2305.38351	0.01185
2304.09774	0.01189
2302.81197	0.01190
2301.52620	0.01193
2300.24043	0.01188
2298.95466	0.01185
2297.66889	0.01180
2296.38312	0.01170
2295.09736	0.01159
2293.81159	0.01147
2292.52582	0.01140
2291.24005	0.01135
2289.95428	0.01131
2288.66851	0.01133
2287.38274	0.01142
2286.09697	0.01155
2284.81121	0.01167
2283.52544	0.01173
2282.23967	0.01169
2280.95390	0.01161
2279.66813	0.01150
2278.38236	0.01138
2277.09659	0.01125
2275.81082	0.01109
2274.52505	0.01091
2273.23929	0.01076
2271.95352	0.01069
2270.66775	0.01062
2269.38198	0.01038
2268.09621	0.00992
2266.81044	0.00941
2265.52467	0.00912
2264.23890	0.00919
2262.95314	0.00952
2261.66737	0.00985
2260.38160	0.01002
2259.09583	0.01008
2257.81006	0.01018
2256.52429	0.01024
2255.23852	0.00999
2253.95275	0.00933
2252.66698	0.00843
2251.38122	0.00762
2250.09545	0.00725
2248.80968	0.00752
2247.52391	0.00810
2246.23814	0.00880
2244.95237	0.00930
2243.66660	0.00960
2242.38083	0.00980
2241.09507	0.00983
2239.80930	0.00958
2238.52353	0.00921
2237.23776	0.00906
2235.95199	0.00919
2234.66622	0.00928
2233.38045	0.00911
2232.09468	0.00889
2230.80891	0.00885
2229.52315	0.00892
2228.23738	0.00883
2226.95161	0.00848
2225.66584	0.00803
2224.38007	0.00772
2223.09430	0.00765
2221.80853	0.00770
2220.52276	0.00763
2219.23700	0.00737
2217.95123	0.00722
2216.66546	0.00752
2215.37969	0.00824
2214.09392	0.00892
2212.80815	0.00920
2211.52238	0.00921
2210.23661	0.00938
2208.95084	0.00991
2207.66508	0.01054
2206.37931	0.01074
2205.09354	0.01033
2203.80777	0.00959
2202.52200	0.00887
2201.23623	0.00821
2199.95046	0.00736
2198.66469	0.00641
2197.37893	0.00598
2196.09316	0.00648
2194.80739	0.00748
2193.52162	0.00803
2192.23585	0.00768
2190.95008	0.00686
2189.66431	0.00631
2188.37854	0.00643
2187.09277	0.00717
2185.80701	0.00813
2184.52124	0.00884
2183.23547	0.00898
2181.94970	0.00866
2180.66393	0.00823
2179.37816	0.00794
2178.09239	0.00774
2176.80662	0.00747
2175.52085	0.00725
2174.23509	0.00747
2172.94932	0.00820
2171.66355	0.00882
2170.37778	0.00862
2169.09201	0.00762
2167.80624	0.00659
2166.52047	0.00615
2165.23470	0.00621
2163.94894	0.00626
2162.66317	0.00584
2161.37740	0.00474
2160.09163	0.00313
2158.80586	0.00176
2157.52009	0.00139
2156.23432	0.00188
2154.94855	0.00243
2153.66278	0.00262
2152.37702	0.00272
2151.09125	0.00315
2149.80548	0.00381
2148.51971	0.00440
2147.23394	0.00493
2145.94817	0.00559
2144.66240	0.00619
2143.37663	0.00624
2142.09087	0.00569
2140.80510	0.00504
2139.51933	0.00485
2138.23356	0.00522
2136.94779	0.00598
2135.66202	0.00684
2134.37625	0.00733
2133.09048	0.00703
2131.80471	0.00601
2130.51895	0.00500
2129.23318	0.00468
2127.94741	0.00512
2126.66164	0.00583
2125.37587	0.00632
2124.09010	0.00654
2122.80433	0.00677
2121.51856	0.00736
2120.23280	0.00828
2118.94703	0.00910
2117.66126	0.00932
2116.37549	0.00891
2115.08972	0.00824
2113.80395	0.00774
2112.51818	0.00749
2111.23241	0.00729
2109.94664	0.00694
2108.66088	0.00642
2107.37511	0.00595
2106.08934	0.00576
2104.80357	0.00582
2103.51780	0.00579
2102.23203	0.00535
2100.94626	0.00471
2099.66049	0.00715
2098.37473	0.00860
2097.08896	0.00898
2095.80319	0.00900
2094.51742	0.00860
2093.23165	0.00773
2091.94588	0.00661
2090.66011	0.00566
2089.37434	0.00523
2088.08857	0.00536
2086.80281	0.00582
2085.51704	0.00630
2084.23127	0.00667
2082.94550	0.00694
2081.65973	0.00718
2080.37396	0.00752
2079.08819	0.00805
2077.80242	0.00876
2076.51666	0.00947
2075.23089	0.00993
2073.94512	0.01007
2072.65935	0.01003
2071.37358	0.01003
2070.08781	0.01017
2068.80204	0.01027
2067.51627	0.01013
2066.23050	0.00969
2064.94474	0.00906
2063.65897	0.00839
2062.37320	0.00766
2061.08743	0.00685
2059.80166	0.00608
2058.51589	0.00554
2057.23012	0.00526
2055.94435	0.00508
2054.65859	0.00503
2053.37282	0.00541
2052.08705	0.00653
2050.80128	0.00809
2049.51551	0.00941
2048.22974	0.01001
2046.94397	0.00991
2045.65820	0.00943
2044.37243	0.00882
2043.08667	0.00820
2041.80090	0.00772
2040.51513	0.00766
2039.22936	0.00815
2037.94359	0.00916
2036.65782	0.01043
2035.37205	0.01161
2034.08628	0.01228
2032.80052	0.01208
2031.51475	0.01105
2030.22898	0.00977
2028.94321	0.00894
2027.65744	0.00878
2026.37167	0.00898
2025.08590	0.00904
2023.80013	0.00873
2022.51436	0.00816
2021.22860	0.00763
2019.94283	0.00736
2018.65706	0.00738
2017.37129	0.00760
2016.08552	0.00796
2014.79975	0.00850
2013.51398	0.00940
2012.22821	0.01080
2010.94245	0.01260
2009.65668	0.01430
2008.37091	0.01521
2007.08514	0.01491
2005.79937	0.01349
2004.51360	0.01139
2003.22783	0.00913
2001.94206	0.00715
2000.65629	0.00576
1999.37053	0.00503
1998.08476	0.00482
1996.79899	0.00487
1995.51322	0.00487
1994.22745	0.00467
1992.94168	0.00444
1991.65591	0.00453
1990.37014	0.00498
1989.08438	0.00549
1987.79861	0.00571
1986.51284	0.00564
1985.22707	0.00558
1983.94130	0.00591
1982.65553	0.00701
1981.36976	0.00894
1980.08399	0.01132
1978.79822	0.01340
1977.51246	0.01453
1976.22669	0.01455
1974.94092	0.01366
1973.65515	0.01221
1972.36938	0.01053
1971.08361	0.00900
1969.79784	0.00794
1968.51207	0.00759
1967.22631	0.00795
1965.94054	0.00879
1964.65477	0.00962
1963.36900	0.00996
1962.08323	0.00963
1960.79746	0.00881
1959.51169	0.00789
1958.22592	0.00711
1956.94015	0.00652
1955.65439	0.00609
1954.36862	0.00590
1953.08285	0.00609
1951.79708	0.00671
1950.51131	0.00759
1949.22554	0.00843
1947.93977	0.00888
1946.65400	0.00875
1945.36823	0.00818
1944.08247	0.00762
1942.79670	0.00752
1941.51093	0.00802
1940.22516	0.00877
1938.93939	0.00931
1937.65362	0.00943
1936.36785	0.00922
1935.08208	0.00900
1933.79632	0.00906
1932.51055	0.00945
1931.22478	0.00987
1929.93901	0.00994
1928.65324	0.00953
1927.36747	0.00892
1926.08170	0.00849
1924.79593	0.00837
1923.51016	0.00840
1922.22440	0.00842
1920.93863	0.00840
1919.65286	0.00848
1918.36709	0.00867
1917.08132	0.00883
1915.79555	0.00872
1914.50978	0.00832
1913.22401	0.00788
1911.93825	0.00778
1910.65248	0.00818
1909.36671	0.00892
1908.08094	0.00959
1906.79517	0.00986
1905.50940	0.00970
1904.22363	0.00933
1902.93786	0.00895
1901.65209	0.00868
1900.36633	0.00855
1899.08056	0.00857
1897.79479	0.00870
1896.50902	0.00887
1895.22325	0.00897
1893.93748	0.00904
1892.65171	0.00910
1891.36594	0.00916
1890.08018	0.00922
1888.79441	0.00920
1887.50864	0.00904
1886.22287	0.00864
1884.93710	0.00804
1883.65133	0.00747
1882.36556	0.00721
1881.07979	0.00738
1879.79402	0.00787
1878.50826	0.00839
1877.22249	0.00873
1875.93672	0.00882
1874.65095	0.00873
1873.36518	0.00859
1872.07941	0.00849
1870.79364	0.00844
1869.50787	0.00846
1868.22211	0.00848
1866.93634	0.00846
1865.65057	0.00837
1864.36480	0.00823
1863.07903	0.00813
1861.79326	0.00807
1860.50749	0.00805
1859.22172	0.00808
1857.93595	0.00817
1856.65019	0.00826
1855.36442	0.00824
1854.07865	0.00804
1852.79288	0.00770
1851.50711	0.00734
1850.22134	0.00715
1848.93557	0.00723
1847.64980	0.00753
1846.36404	0.00783
1845.07827	0.00796
1843.79250	0.00784
1842.50673	0.00758
1841.22096	0.00730
1839.93519	0.00715
1838.64942	0.00716
1837.36365	0.00724
1836.07788	0.00726
1834.79212	0.00722
1833.50635	0.00720
1832.22058	0.00730
1830.93481	0.00752
1829.64904	0.00785
1828.36327	0.00823
1827.07750	0.00855
1825.79173	0.00878
1824.50597	0.00902
1823.22020	0.00942
1821.93443	0.00998
1820.64866	0.01045
1819.36289	0.01053
1818.07712	0.01006
1816.79135	0.00917
1815.50558	0.00823
1814.21981	0.00753
1812.93405	0.00713
1811.64828	0.00695
1810.36251	0.00687
1809.07674	0.00686
1807.79097	0.00690
1806.50520	0.00697
1805.21943	0.00701
1803.93366	0.00701
1802.64790	0.00705
1801.36213	0.00722
1800.07636	0.00746
1798.79059	0.00766
1797.50482	0.00771
1796.21905	0.00770
1794.93328	0.00772
1793.64751	0.00782
1792.36174	0.00797
1791.07598	0.00813
1789.79021	0.00826
1788.50444	0.00834
1787.21867	0.00834
1785.93290	0.00827
1784.64713	0.00819
1783.36136	0.00814
1782.07559	0.00812
1780.78983	0.00811
1779.50406	0.00812
1778.21829	0.00810
1776.93252	0.00805
1775.64675	0.00794
1774.36098	0.00776
1773.07521	0.00756
1771.78944	0.00742
1770.50367	0.00734
1769.21791	0.00729
1767.93214	0.00726
1766.64637	0.00727
1765.36060	0.00730
1764.07483	0.00735
1762.78906	0.00743
1761.50329	0.00756
1760.21752	0.00767
1758.93176	0.00768
1757.64599	0.00756
1756.36022	0.00745
1755.07445	0.00744
1753.78868	0.00752
1752.50291	0.00763
1751.21714	0.00776
1749.93137	0.00788
1748.64560	0.00794
1747.35984	0.00793
1746.07407	0.00787
1744.78830	0.00781
1743.50253	0.00776
1742.21676	0.00771
1740.93099	0.00767
1739.64522	0.00767
1738.35945	0.00778
1737.07369	0.00793
1735.78792	0.00803
1734.50215	0.00810
1733.21638	0.00823
1731.93061	0.00839
1730.64484	0.00849
1729.35907	0.00853
1728.07330	0.00854
1726.78753	0.00852
1725.50177	0.00851
1724.21600	0.00855
1722.93023	0.00873
1721.64446	0.00903
1720.35869	0.00935
1719.07292	0.00961
1717.78715	0.00982
1716.50138	0.01001
1715.21561	0.01017
1713.92985	0.01031
1712.64408	0.01051
1711.35831	0.01085
1710.07254	0.01131
1708.78677	0.01183
1707.50100	0.01236
1706.21523	0.01291
1704.92946	0.01351
1703.64370	0.01419
1702.35793	0.01488
1701.07216	0.01561
1699.78639	0.01644
1698.50062	0.01729
1697.21485	0.01796
1695.92908	0.01850
1694.64331	0.01911
1693.35754	0.01977
1692.07178	0.02041
1690.78601	0.02109
1689.50024	0.02190
1688.21447	0.02280
1686.92870	0.02366
1685.64293	0.02443
1684.35716	0.02523
1683.07139	0.02610
1681.78563	0.02694
1680.49986	0.02773
1679.21409	0.02858
1677.92832	0.02950
1676.64255	0.03043
1675.35678	0.03137
1674.07101	0.03235
1672.78524	0.03337
1671.49947	0.03439
1670.21371	0.03542
1668.92794	0.03646
1667.64217	0.03748
1666.35640	0.03842
1665.07063	0.03928
1663.78486	0.04010
1662.49909	0.04093
1661.21332	0.04175
1659.92756	0.04257
1658.64179	0.04342
1657.35602	0.04432
1656.07025	0.04516
1654.78448	0.04579
1653.49871	0.04629
1652.21294	0.04680
1650.92717	0.04731
1649.64140	0.04769
1648.35564	0.04794
1647.06987	0.04820
1645.78410	0.04853
1644.49833	0.04887
1643.21256	0.04915
1641.92679	0.04939
1640.64102	0.04964
1639.35525	0.04990
1638.06949	0.05007
1636.78372	0.05013
1635.49795	0.05015
1634.21218	0.05023
1632.92641	0.05031
1631.64064	0.05032
1630.35487	0.05026
1629.06910	0.05015
1627.78333	0.04994
1626.49757	0.04958
1625.21180	0.04904
1623.92603	0.04840
1622.64026	0.04777
1621.35449	0.04715
1620.06872	0.04647
1618.78295	0.04564
1617.49718	0.04473
1616.21142	0.04386
1614.92565	0.04305
1613.63988	0.04222
1612.35411	0.04135
1611.06834	0.04048
1609.78257	0.03962
1608.49680	0.03874
1607.21103	0.03781
1605.92526	0.03691
1604.63950	0.03608
1603.35373	0.03536
1602.06796	0.03473
1600.78219	0.03414
1599.49642	0.03356
1598.21065	0.03299
1596.92488	0.03247
1595.63911	0.03200
1594.35335	0.03160
1593.06758	0.03123
1591.78181	0.03090
1590.49604	0.03063
1589.21027	0.03044
1587.92450	0.03030
1586.63873	0.03019
1585.35296	0.03007
1584.06719	0.02998
1582.78143	0.02996
1581.49566	0.03008
1580.20989	0.03034
1578.92412	0.03062
1577.63835	0.03082
1576.35258	0.03097
1575.06681	0.03121
1573.78104	0.03154
1572.49528	0.03193
1571.20951	0.03235
1569.92374	0.03282
1568.63797	0.03332
1567.35220	0.03379
1566.06643	0.03423
1564.78066	0.03474
1563.49489	0.03535
1562.20912	0.03597
1560.92336	0.03651
1559.63759	0.03700
1558.35182	0.03757
1557.06605	0.03817
1555.78028	0.03868
1554.49451	0.03911
1553.20874	0.03955
1551.92297	0.04002
1550.63721	0.04044
1549.35144	0.04081
1548.06567	0.04112
1546.77990	0.04140
1545.49413	0.04165
1544.20836	0.04193
1542.92259	0.04220
1541.63682	0.04240
1540.35105	0.04253
1539.06529	0.04265
1537.77952	0.04278
1536.49375	0.04285
1535.20798	0.04287
1533.92221	0.04291
1532.63644	0.04301
1531.35067	0.04310
1530.06490	0.04308
1528.77914	0.04301
1527.49337	0.04294
1526.20760	0.04294
1524.92183	0.04298
1523.63606	0.04297
1522.35029	0.04285
1521.06452	0.04269
1519.77875	0.04250
1518.49298	0.04226
1517.20722	0.04198
1515.92145	0.04171
1514.63568	0.04145
1513.34991	0.04112
1512.06414	0.04075
1510.77837	0.04034
1509.49260	0.03990
1508.20683	0.03936
1506.92107	0.03878
1505.63530	0.03822
1504.34953	0.03766
1503.06376	0.03703
1501.77799	0.03633
1500.49222	0.03565
1499.20645	0.03501
1497.92068	0.03435
1496.63491	0.03366
1495.34915	0.03297
1494.06338	0.03229
1492.77761	0.03161
1491.49184	0.03094
1490.20607	0.03032
1488.92030	0.02973
1487.63453	0.02916
1486.34876	0.02864
1485.06299	0.02816
1483.77723	0.02772
1482.49146	0.02729
1481.20569	0.02692
1479.91992	0.02668
1478.63415	0.02660
1477.34838	0.02667
1476.06261	0.02682
1474.77684	0.02699
1473.49108	0.02716
1472.20531	0.02738
1470.91954	0.02766
1469.63377	0.02796
1468.34800	0.02823
1467.06223	0.02846
1465.77646	0.02870
1464.49069	0.02898
1463.20492	0.02932
1461.91916	0.02968
1460.63339	0.03007
1459.34762	0.03050
1458.06185	0.03099
1456.77608	0.03153
1455.49031	0.03204
1454.20454	0.03237
1452.91877	0.03248
1451.63301	0.03249
1450.34724	0.03249
1449.06147	0.03247
1447.77570	0.03242
1446.48993	0.03235
1445.20416	0.03224
1443.91839	0.03206
1442.63262	0.03182
1441.34685	0.03156
1440.06109	0.03132
1438.77532	0.03109
1437.48955	0.03087
1436.20378	0.03069
1434.91801	0.03056
1433.63224	0.03041
1432.34647	0.03022
1431.06070	0.03000
1429.77494	0.02981
1428.48917	0.02969
1427.20340	0.02963
1425.91763	0.02960
1424.63186	0.02956
1423.34609	0.02953
1422.06032	0.02949
1420.77455	0.02942
1419.48878	0.02935
1418.20302	0.02930
1416.91725	0.02926
1415.63148	0.02921
1414.34571	0.02916
1413.05994	0.02911
1411.77417	0.02905
1410.48840	0.02896
1409.20263	0.02888
1407.91687	0.02884
1406.63110	0.02884
1405.34533	0.02885
1404.05956	0.02886
1402.77379	0.02884
1401.48802	0.02878
1400.20225	0.02869
1398.91648	0.02862
1397.63071	0.02857
1396.34495	0.02851
1395.05918	0.02842
1393.77341	0.02831
1392.48764	0.02818
1391.20187	0.02802
1389.91610	0.02783
1388.63033	0.02766
1387.34456	0.02755
1386.05880	0.02749
1384.77303	0.02740
1383.48726	0.02725
1382.20149	0.02703
1380.91572	0.02677
1379.62995	0.02653
1378.34418	0.02634
1377.05841	0.02620
1375.77264	0.02606
1374.48688	0.02584
1373.20111	0.02556
1371.91534	0.02526
1370.62957	0.02497
1369.34380	0.02471
1368.05803	0.02444
1366.77226	0.02414
1365.48649	0.02380
1364.20073	0.02345
1362.91496	0.02315
1361.62919	0.02289
1360.34342	0.02268
1359.05765	0.02250
1357.77188	0.02237
1356.48611	0.02228
1355.20034	0.02220
1353.91457	0.02213
1352.62881	0.02208
1351.34304	0.02209
1350.05727	0.02213
1348.77150	0.02217
1347.48573	0.02219
1346.19996	0.02219
1344.91419	0.02221
1343.62842	0.02228
1342.34266	0.02237
1341.05689	0.02247
1339.77112	0.02255
1338.48535	0.02264
1337.19958	0.02272
1335.91381	0.02277
1334.62804	0.02277
1333.34227	0.02270
1332.05650	0.02256
1330.77074	0.02241
1329.48497	0.02227
1328.19920	0.02216
1326.91343	0.02204
1325.62766	0.02194
1324.34189	0.02186
1323.05612	0.02179
1321.77035	0.02172
1320.48459	0.02165
1319.19882	0.02159
1317.91305	0.02156
1316.62728	0.02156
1315.34151	0.02156
1314.05574	0.02154
1312.76997	0.02150
1311.48420	0.02144
1310.19843	0.02135
1308.91267	0.02126
1307.62690	0.02117
1306.34113	0.02109
1305.05536	0.02100
1303.76959	0.02088
1302.48382	0.02074
1301.19805	0.02059
1299.91228	0.02047
1298.62652	0.02042
1297.34075	0.02046
1296.05498	0.02051
1294.76921	0.02052
1293.48344	0.02048
1292.19767	0.02045
1290.91190	0.02046
1289.62613	0.02054
1288.34036	0.02068
1287.05460	0.02085
1285.76883	0.02101
1284.48306	0.02112
1283.19729	0.02118
1281.91152	0.02122
1280.62575	0.02127
1279.33998	0.02134
1278.05421	0.02141
1276.76845	0.02146
1275.48268	0.02147
1274.19691	0.02147
1272.91114	0.02149
1271.62537	0.02152
1270.33960	0.02158
1269.05383	0.02166
1267.76806	0.02175
1266.48229	0.02186
1265.19653	0.02199
1263.91076	0.02214
1262.62499	0.02230
1261.33922	0.02245
1260.05345	0.02254
1258.76768	0.02258
1257.48191	0.02261
1256.19614	0.02267
1254.91037	0.02282
1253.62461	0.02303
1252.33884	0.02329
1251.05307	0.02356
1249.76730	0.02381
1248.48153	0.02402
1247.19576	0.02422
1245.90999	0.02446
1244.62422	0.02474
1243.33846	0.02501
1242.05269	0.02527
1240.76692	0.02550
1239.48115	0.02571
1238.19538	0.02591
1236.90961	0.02604
1235.62384	0.02610
1234.33807	0.02609
1233.05230	0.02603
1231.76654	0.02594
1230.48077	0.02583
1229.19500	0.02567
1227.90923	0.02547
1226.62346	0.02522
1225.33769	0.02492
1224.05192	0.02459
1222.76615	0.02423
1221.48039	0.02388
1220.19462	0.02358
1218.90885	0.02335
1217.62308	0.02312
1216.33731	0.02287
1215.05154	0.02260
1213.76577	0.02234
1212.48000	0.02217
1211.19423	0.02209
1209.90847	0.02205
1208.62270	0.02202
1207.33693	0.02198
1206.05116	0.02193
1204.76539	0.02191
1203.47962	0.02194
1202.19385	0.02199
1200.90808	0.02182
1199.62232	0.02131
1198.33655	0.02113
1197.05078	0.02094
1195.76501	0.02073
1194.47924	0.02051
1193.19347	0.02027
1191.90770	0.02001
1190.62193	0.01976
1189.33616	0.01954
1188.05040	0.01934
1186.76463	0.01917
1185.47886	0.01902
1184.19309	0.01888
1182.90732	0.01876
1181.62155	0.01868
1180.33578	0.01866
1179.05001	0.01870
1177.76425	0.01876
1176.47848	0.01879
1175.19271	0.01881
1173.90694	0.01883
1172.62117	0.01887
1171.33540	0.01893
1170.04963	0.01902
1168.76386	0.01914
1167.47809	0.01928
1166.19233	0.01945
1164.90656	0.01963
1163.62079	0.01981
1162.33502	0.01993
1161.04925	0.01998
1159.76348	0.01997
1158.47771	0.01994
1157.19194	0.01990
1155.90618	0.01990
1154.62041	0.01994
1153.33464	0.01999
1152.04887	0.02003
1150.76310	0.02003
1149.47733	0.02000
1148.19156	0.02000
1146.90579	0.02005
1145.62002	0.02016
1144.33426	0.02030
1143.04849	0.02041
1141.76272	0.02046
1140.47695	0.02047
1139.19118	0.02050
1137.90541	0.02059
1136.61964	0.02074
1135.33387	0.02095
1134.04811	0.02123
1132.76234	0.02159
1131.47657	0.02203
1130.19080	0.02256
1128.90503	0.02318
1127.61926	0.02391
1126.33349	0.02474
1125.04772	0.02565
1123.76195	0.02662
1122.47619	0.02769
1121.19042	0.02887
1119.90465	0.03012
1118.61888	0.03135
1117.33311	0.03251
1116.04734	0.03366
1114.76157	0.03489
1113.47580	0.03619
1112.19004	0.03748
1110.90427	0.03872
1109.61850	0.03992
1108.33273	0.04106
1107.04696	0.04214
1105.76119	0.04314
1104.47542	0.04407
1103.18965	0.04494
1101.90388	0.04572
1100.61812	0.04644
1099.33235	0.04712
1098.04658	0.04774
1096.76081	0.04822
1095.47504	0.04850
1094.18927	0.04861
1092.90350	0.04863
1091.61773	0.04858
1090.33197	0.04844
1089.04620	0.04823
1087.76043	0.04802
1086.47466	0.04796
1085.18889	0.04810
1083.90312	0.04848
1082.61735	0.04906
1081.33158	0.04978
1080.04581	0.05060
1078.76005	0.05150
1077.47428	0.05239
1076.18851	0.05323
1074.90274	0.05397
1073.61697	0.05464
1072.33120	0.05528
1071.04543	0.05588
1069.75966	0.05643
1068.47390	0.05689
1067.18813	0.05726
1065.90236	0.05759
1064.61659	0.05797
1063.33082	0.05846
1062.04505	0.05905
1060.75928	0.05970
1059.47351	0.06040
1058.18774	0.06117
1056.90198	0.06199
1055.61621	0.06283
1054.33044	0.06369
1053.04467	0.06455
1051.75890	0.06544
1050.47313	0.06640
1049.18736	0.06749
1047.90159	0.06872
1046.61583	0.07008
1045.33006	0.07151
1044.04429	0.07296
1042.75852	0.07439
1041.47275	0.07580
1040.18698	0.07717
1038.90121	0.07842
1037.61544	0.07933
1036.32967	0.07966
1035.04391	0.07959
1033.75814	0.07977
1032.47237	0.08079
1031.18660	0.08256
1029.90083	0.08432
1028.61506	0.08534
1027.32929	0.08541
1026.04352	0.08474
1024.75775	0.08364
1023.47199	0.08232
1022.18622	0.08087
1020.90045	0.07932
1019.61468	0.07764
1018.32891	0.07584
1017.04314	0.07393
1015.75737	0.07194
1014.47160	0.06990
1013.18584	0.06792
1011.90007	0.06609
1010.61430	0.06444
1009.32853	0.06299
1008.04276	0.06172
1006.75699	0.06059
1005.47122	0.05950
1004.18545	0.05836
1002.89968	0.05713
1001.61392	0.05592
1000.32815	0.05480
999.04238	0.05379
997.75661	0.05285
996.47084	0.05195
995.18507	0.05107
993.89930	0.05022
992.61353	0.04943
991.32777	0.04870
990.04200	0.04803
988.75623	0.04738
987.47046	0.04673
986.18469	0.04607
984.89892	0.04543
983.61315	0.04481
982.32738	0.04419
981.04161	0.04354
979.75585	0.04293
978.47008	0.04245
977.18431	0.04212
975.89854	0.04185
974.61277	0.04153
973.32700	0.04113
972.04123	0.04077
970.75546	0.04057
969.46970	0.04059
968.18393	0.04077
966.89816	0.04098
965.61239	0.04110
964.32662	0.04105
963.04085	0.04078
961.75508	0.04029
960.46931	0.03970
959.18354	0.03915
957.89778	0.03870
956.61201	0.03829
955.32624	0.03783
954.04047	0.03729
952.75470	0.03673
951.46893	0.03621
950.18316	0.03579
948.89739	0.03544
947.61163	0.03512
946.32586	0.03481
945.04009	0.03453
943.75432	0.03427
942.46855	0.03400
941.18278	0.03365
939.89701	0.03324
938.61124	0.03281
937.32547	0.03240
936.03971	0.03203
934.75394	0.03172
933.46817	0.03147
932.18240	0.03126
930.89663	0.03108
929.61086	0.03090
928.32509	0.03071
927.03932	0.03048
925.75356	0.03023
924.46779	0.02998
923.18202	0.02974
921.89625	0.02949
920.61048	0.02922
919.32471	0.02892
918.03894	0.02860
916.75317	0.02831
915.46740	0.02806
914.18164	0.02785
912.89587	0.02769
911.61010	0.02761
910.32433	0.02758
909.03856	0.02755
907.75279	0.02744
906.46702	0.02723
905.18125	0.02700
903.89549	0.02680
902.60972	0.02663
901.32395	0.02646
900.03818	0.02629
898.75241	0.02615
897.46664	0.02602
896.18087	0.02587
894.89510	0.02567
893.60933	0.02545
892.32357	0.02527
891.03780	0.02515
889.75203	0.02507
888.46626	0.02498
887.18049	0.02484
885.89472	0.02470
884.60895	0.02458
883.32318	0.02449
882.03742	0.02445
880.75165	0.02453
879.46588	0.02478
878.18011	0.02510
876.89434	0.02531
875.60857	0.02530
874.32280	0.02514
873.03703	0.02500
871.75126	0.02500
870.46550	0.02513
869.17973	0.02531
867.89396	0.02543
866.60819	0.02540
865.32242	0.02524
864.03665	0.02508
862.75088	0.02498
861.46511	0.02493
860.17935	0.02486
858.89358	0.02471
857.60781	0.02453
856.32204	0.02436
855.03627	0.02424
853.75050	0.02415
852.46473	0.02407
851.17896	0.02403
849.89319	0.02401
848.60743	0.02396
847.32166	0.02382
846.03589	0.02356
844.75012	0.02326
843.46435	0.02300
842.17858	0.02281
840.89281	0.02266
839.60704	0.02252
838.32128	0.02238
837.03551	0.02224
835.74974	0.02214
834.46397	0.02207
833.17820	0.02200
831.89243	0.02192
830.60666	0.02182
829.32089	0.02172
828.03512	0.02166
826.74936	0.02168
825.46359	0.02176
824.17782	0.02181
822.89205	0.02177
821.60628	0.02172
820.32051	0.02174
819.03474	0.02182
817.74897	0.02183
816.46321	0.02174
815.17744	0.02156
813.89167	0.02137
812.60590	0.02122
811.32013	0.02111
810.03436	0.02105
808.74859	0.02099
807.46282	0.02090
806.17705	0.02076
804.89129	0.02066
803.60552	0.02063
802.31975	0.02067
801.03398	0.02075
799.74821	0.02080
798.46244	0.02082
797.17667	0.02083
795.89090	0.02086
794.60513	0.02092
793.31937	0.02099
792.03360	0.02105
790.74783	0.02107
789.46206	0.02107
788.17629	0.02108
786.89052	0.02111
785.60475	0.02114
784.31898	0.02111
783.03322	0.02099
781.74745	0.02083
780.46168	0.02070
779.17591	0.02071
777.89014	0.02086
776.60437	0.02103
775.31860	0.02107
774.03283	0.02093
772.74706	0.02071
771.46130	0.02055
770.17553	0.02049
768.88976	0.02048
767.60399	0.02050
766.31822	0.02053
765.03245	0.02057
763.74668	0.02062
762.46091	0.02068
761.17515	0.02077
759.88938	0.02090
758.60361	0.02103
757.31784	0.02112
756.03207	0.02118
754.74630	0.02125
753.46053	0.02133
752.17476	0.02138
750.88899	0.02134
749.60323	0.02122
748.31746	0.02111
747.03169	0.02111
745.74592	0.02122
744.46015	0.02137
743.17438	0.02148
741.88861	0.02148
740.60284	0.02139
739.31708	0.02130
738.03131	0.02133
736.74554	0.02150
735.45977	0.02173
734.17400	0.02190
732.88823	0.02195
731.60246	0.02193
730.31669	0.02190
729.03092	0.02190
727.74516	0.02188
726.45939	0.02178
725.17362	0.02163
723.88785	0.02147
722.60208	0.02149
721.31631	0.02164
720.03054	0.02180
718.74477	0.02191
717.45901	0.02195
716.17324	0.02192
714.88747	0.02186
713.60170	0.02185
712.31593	0.02190
711.03016	0.02199
709.74439	0.02207
708.45862	0.02210
707.17285	0.02206
705.88709	0.02201
704.60132	0.02200
703.31555	0.02206
702.02978	0.02217
700.74401	0.02225
699.45824	0.02227
698.17247	0.02221
696.88670	0.02214
695.60094	0.02212
694.31517	0.02215
693.02940	0.02220
691.74363	0.02223
690.45786	0.02223
689.17209	0.02219
687.88632	0.02212
686.60055	0.02206
685.31478	0.02206
684.02902	0.02211
682.74325	0.02219
681.45748	0.02222
680.17171	0.02219
678.88594	0.02211
677.60017	0.02203
676.31440	0.02196
675.02863	0.02192
673.74287	0.02191
672.45710	0.02194
671.17133	0.02200
669.88556	0.02208
668.59979	0.02208
667.31402	0.02203
666.02825	0.02208
664.74248	0.02204
663.45671	0.02198
662.17095	0.02192
660.88518	0.02187
659.59941	0.02181
658.31364	0.02177
657.02787	0.02176
655.74210	0.02177
654.45633	0.02177
653.17056	0.02173
651.88480	0.02166
650.59903	0.02157
649.31326	0.02150
648.02749	0.02145
646.74172	0.02140
645.45595	0.02134
644.17018	0.02127
642.88441	0.02120
641.59864	0.02113
640.31288	0.02105
639.02711	0.02095
637.74134	0.02082
636.45557	0.02066
635.16980	0.02051
633.88403	0.02040
632.59826	0.02027
631.31249	0.02045
630.02673	0.02253
628.74096	0.02565
627.45519	0.02335
626.16942	0.02702
624.88365	0.03487
623.59788	0.04252
622.31211	0.04802
621.02634	0.05033
619.74057	0.04928
618.45481	0.04577
617.16904	0.04129
615.88327	0.03729
614.59750	0.03491
613.31173	0.03472
612.02596	0.03650
610.74019	0.03949
609.45442	0.04293
608.16866	0.04628
606.88289	0.04916
605.59712	0.05132
604.31135	0.05259
603.02558	0.05274
601.73981	0.05160
600.45404	0.04940
599.16827	0.04669
597.88250	0.04404
596.59674	0.04175
595.31097	0.03989
594.02520	0.03848
592.73943	0.03752
591.45366	0.03697
590.16789	0.03670
588.88212	0.03657
587.59635	0.03649
586.31059	0.03649
585.02482	0.03662
583.73905	0.03697
582.45328	0.03762
581.16751	0.03860
579.88174	0.03983
578.59597	0.04108
577.31020	0.04209
576.02443	0.04279
574.73867	0.04332
573.45290	0.04397
572.16713	0.04492
570.88136	0.04616
569.59559	0.04750
568.30982	0.04874
567.02405	0.04973
565.73828	0.05040
564.45251	0.05067
563.16675	0.05050
561.88098	0.04997
560.59521	0.04922
559.30944	0.04838
558.02367	0.04751
556.73790	0.04664
555.45213	0.04581
554.16636	0.04507
552.88060	0.04443
551.59483	0.04382
550.30906	0.04316
549.02329	0.04241
547.73752	0.04162
546.45175	0.04089
545.16598	0.04032
543.88021	0.03987
542.59444	0.03943
541.30868	0.03892
540.02291	0.03836
538.73714	0.03786
537.45137	0.03750
536.16560	0.03723
534.87983	0.03692
533.59406	0.03652
532.30829	0.03603
531.02253	0.03557
529.73676	0.03526
528.45099	0.03511
527.16522	0.03501
525.87945	0.03480
524.59368	0.03445
523.30791	0.03405
522.02214	0.03368
520.73637	0.03337
519.45061	0.03307
518.16484	0.03276
516.87907	0.03248
515.59330	0.03223
514.30753	0.03203
513.02176	0.03186
511.73599	0.03171
510.45022	0.03156
509.16446	0.03135
507.87869	0.03103
506.59292	0.03058
505.30715	0.03008
504.02138	0.02965
502.73561	0.02939
501.44984	0.02931
500.16407	0.02928
498.87830	0.02916
497.59254	0.02887
496.30677	0.02849
495.02100	0.02813
493.73523	0.02786
492.44946	0.02768
491.16369	0.02755
489.87792	0.02742
488.59215	0.02725
487.30639	0.02704
486.02062	0.02681
484.73485	0.02658
483.44908	0.02633
482.16331	0.02607
480.87754	0.02579
479.59177	0.02554
478.30600	0.02536
477.02023	0.02526
475.73447	0.02525
474.44870	0.02530
473.16293	0.02533
471.87716	0.02531
470.59139	0.02524
469.30562	0.02515
468.01985	0.02507
466.73408	0.02497
465.44832	0.02482
464.16255	0.02458
462.87678	0.02425
461.59101	0.02389
460.30524	0.02357
459.01947	0.02332
457.73370	0.02315
456.44793	0.02302
455.16216	0.02285
453.87640	0.02258
452.59063	0.02223
451.30486	0.02192
450.01909	0.02170
448.73332	0.02154
447.44755	0.02136
446.16178	0.02112
444.87601	0.02087
443.59025	0.02069
442.30448	0.02062
441.01871	0.02064
439.73294	0.02067
438.44717	0.02063
437.16140	0.02052
435.87563	0.02037
434.58986	0.02021
433.30409	0.02004
432.01833	0.01988
430.73256	0.01976
429.44679	0.01967
428.16102	0.01957
426.87525	0.01941
425.58948	0.01922
424.30371	0.01904
423.01794	0.01890
421.73218	0.01880
420.44641	0.01869
419.16064	0.01857
417.87487	0.01847
416.58910	0.01837
415.30333	0.01824
414.01756	0.01807
412.73179	0.01786
411.44602	0.01765
410.16026	0.01749
408.87449	0.01741
407.58872	0.01735
406.30295	0.01725
405.01718	0.01708
403.73141	0.01685
402.44564	0.01663
401.15987	0.01646
399.87411	0.01635
