3997.45528	0.00688
3996.16951	0.00702
3994.88374	0.00705
3993.59798	0.00696
3992.31221	0.00699
3991.02644	0.00739
3989.74067	0.00806
3988.45490	0.00860
3987.16913	0.00866
3985.88336	0.00826
3984.59759	0.00772
3983.31183	0.00736
3982.02606	0.00731
3980.74029	0.00755
3979.45452	0.00797
3978.16875	0.00841
3976.88298	0.00870
3975.59721	0.00872
3974.31144	0.00839
3973.02567	0.00768
3971.73991	0.00677
3970.45414	0.00605
3969.16837	0.00586
3967.88260	0.00614
3966.59683	0.00656
3965.31106	0.00686
3964.02529	0.00697
3962.73952	0.00697
3961.45376	0.00694
3960.16799	0.00692
3958.88222	0.00681
3957.59645	0.00655
3956.31068	0.00625
3955.02491	0.00618
3953.73914	0.00656
3952.45337	0.00730
3951.16760	0.00801
3949.88184	0.00829
3948.59607	0.00812
3947.31030	0.00784
3946.02453	0.00775
3944.73876	0.00781
3943.45299	0.00778
3942.16722	0.00758
3940.88145	0.00738
3939.59569	0.00734
3938.30992	0.00746
3937.02415	0.00764
3935.73838	0.00776
3934.45261	0.00778
3933.16684	0.00761
3931.88107	0.00731
3930.59530	0.00703
3929.30953	0.00695
3928.02377	0.00702
3926.73800	0.00701
3925.45223	0.00685
3924.16646	0.00675
3922.88069	0.00694
3921.59492	0.00728
3920.30915	0.00738
3919.02338	0.00705
3917.73762	0.00653
3916.45185	0.00629
3915.16608	0.00653
3913.88031	0.00708
3912.59454	0.00767
3911.30877	0.00809
3910.02300	0.00828
3908.73723	0.00829
3907.45146	0.00830
3906.16570	0.00836
3904.87993	0.00828
3903.59416	0.00787
3902.30839	0.00720
3901.02262	0.00666
3899.73685	0.00658
3898.45108	0.00698
3897.16531	0.00757
3895.87955	0.00802
3894.59378	0.00816
3893.30801	0.00804
3892.02224	0.00795
3890.73647	0.00816
3889.45070	0.00861
3888.16493	0.00885
3886.87916	0.00854
3885.59339	0.00783
3884.30763	0.00713
3883.02186	0.00678
3881.73609	0.00686
3880.45032	0.00733
3879.16455	0.00801
3877.87878	0.00864
3876.59301	0.00900
3875.30724	0.00900
3874.02148	0.00871
3872.73571	0.00823
3871.44994	0.00773
3870.16417	0.00745
3868.87840	0.00746
3867.59263	0.00756
3866.30686	0.00759
3865.02109	0.00760
3863.73532	0.00761
3862.44956	0.00747
3861.16379	0.00711
3859.87802	0.00674
3858.59225	0.00671
3857.30648	0.00713
3856.02071	0.00778
3854.73494	0.00832
3853.44917	0.00855
3852.16341	0.00842
3850.87764	0.00807
3849.59187	0.00783
3848.30610	0.00793
3847.02033	0.00824
3845.73456	0.00844
3844.44879	0.00838
3843.16302	0.00814
3841.87725	0.00783
3840.59149	0.00741
3839.30572	0.00688
3838.01995	0.00641
3836.73418	0.00612
3835.44841	0.00590
3834.16264	0.00570
3832.87687	0.00567
3831.59110	0.00592
3830.30534	0.00627
3829.01957	0.00645
3827.73380	0.00644
3826.44803	0.00645
3825.16226	0.00664
3823.87649	0.00687
3822.59072	0.00706
3821.30495	0.00727
3820.01918	0.00749
3818.73342	0.00749
3817.44765	0.00715
3816.16188	0.00680
3814.87611	0.00672
3813.59034	0.00679
3812.30457	0.00686
3811.01880	0.00694
3809.73303	0.00705
3808.44726	0.00715
3807.16150	0.00734
3805.87573	0.00770
3804.58996	0.00804
3803.30419	0.00810
3802.01842	0.00792
3800.73265	0.00776
3799.44688	0.00759
3798.16111	0.00727
3796.87535	0.00694
3795.58958	0.00688
3794.30381	0.00710
3793.01804	0.00744
3791.73227	0.00774
3790.44650	0.00800
3789.16073	0.00831
3787.87496	0.00865
3786.58919	0.00894
3785.30343	0.00914
3784.01766	0.00928
3782.73189	0.00939
3781.44612	0.00949
3780.16035	0.00953
3778.87458	0.00943
3777.58881	0.00912
3776.30304	0.00871
3775.01728	0.00848
3773.73151	0.00853
3772.44574	0.00846
3771.15997	0.00781
3769.87420	0.00669
3768.58843	0.00572
3767.30266	0.00552
3766.01689	0.00607
3764.73112	0.00684
3763.44536	0.00731
3762.15959	0.00735
3760.87382	0.00725
3759.58805	0.00729
3758.30228	0.00749
3757.01651	0.00770
3755.73074	0.00777
3754.44497	0.00764
3753.15921	0.00732
3751.87344	0.00687
3750.58767	0.00632
3749.30190	0.00593
3748.01613	0.00603
3746.73036	0.00650
3745.44459	0.00700
3744.15882	0.00730
3742.87305	0.00725
3741.58729	0.00678
3740.30152	0.00617
3739.01575	0.00578
3737.72998	0.00562
3736.44421	0.00554
3735.15844	0.00550
3733.87267	0.00547
3732.58690	0.00549
3731.30114	0.00568
3730.01537	0.00614
3728.72960	0.00674
3727.44383	0.00731
3726.15806	0.00777
3724.87229	0.00804
3723.58652	0.00797
3722.30075	0.00742
3721.01498	0.00644
3719.72922	0.00528
3718.44345	0.00437
3717.15768	0.00405
3715.87191	0.00428
3714.58614	0.00476
3713.30037	0.00518
3712.01460	0.00545
3710.72883	0.00551
3709.44307	0.00527
3708.15730	0.00477
3706.87153	0.00439
3705.58576	0.00452
3704.29999	0.00516
3703.01422	0.00591
3701.72845	0.00629
3700.44268	0.00622
3699.15691	0.00589
3697.87115	0.00549
3696.58538	0.00509
3695.29961	0.00474
3694.01384	0.00451
3692.72807	0.00452
3691.44230	0.00473
3690.15653	0.00494
3688.87076	0.00502
3687.58500	0.00501
3686.29923	0.00495
3685.01346	0.00483
3683.72769	0.00475
3682.44192	0.00483
3681.15615	0.00513
3679.87038	0.00563
3678.58461	0.00620
3677.29884	0.00665
3676.01308	0.00692
3674.72731	0.00696
3673.44154	0.00660
3672.15577	0.00586
3670.87000	0.00526
3669.58423	0.00524
3668.29846	0.00563
3667.01269	0.00602
3665.72693	0.00628
3664.44116	0.00645
3663.15539	0.00653
3661.86962	0.00654
3660.58385	0.00653
3659.29808	0.00653
3658.01231	0.00645
3656.72654	0.00636
3655.44077	0.00642
3654.15501	0.00664
3652.86924	0.00691
3651.58347	0.00727
3650.29770	0.00793
3649.01193	0.00893
3647.72616	0.01000
3646.44039	0.01072
3645.15462	0.01086
3643.86886	0.01048
3642.58309	0.00987
3641.29732	0.00932
3640.01155	0.00898
3638.72578	0.00878
3637.44001	0.00862
3636.15424	0.00841
3634.86847	0.00819
3633.58270	0.00819
3632.29694	0.00854
3631.01117	0.00919
3629.72540	0.01003
3628.43963	0.01098
3627.15386	0.01185
3625.86809	0.01241
3624.58232	0.01259
3623.29655	0.01243
3622.01079	0.01201
3620.72502	0.01149
3619.43925	0.01115
3618.15348	0.01110
3616.86771	0.01118
3615.58194	0.01126
3614.29617	0.01149
3613.01040	0.01206
3611.72463	0.01286
3610.43887	0.01357
3609.15310	0.01395
3607.86733	0.01399
3606.58156	0.01378
3605.29579	0.01351
3604.01002	0.01338
3602.72425	0.01348
3601.43848	0.01371
3600.15272	0.01403
3598.86695	0.01448
3597.58118	0.01511
3596.29541	0.01577
3595.00964	0.01618
3593.72387	0.01622
3592.43810	0.01608
3591.15233	0.01599
3589.86656	0.01600
3588.58080	0.01599
3587.29503	0.01589
3586.00926	0.01578
3584.72349	0.01582
3583.43772	0.01608
3582.15195	0.01650
3580.86618	0.01696
3579.58041	0.01732
3578.29464	0.01758
3577.00888	0.01776
3575.72311	0.01785
3574.43734	0.01774
3573.15157	0.01741
3571.86580	0.01691
3570.58003	0.01640
3569.29426	0.01606
3568.00849	0.01611
3566.72273	0.01667
3565.43696	0.01756
3564.15119	0.01843
3562.86542	0.01900
3561.57965	0.01920
3560.29388	0.01916
3559.00811	0.01909
3557.72234	0.01924
3556.43657	0.01970
3555.15081	0.02032
3553.86504	0.02085
3552.57927	0.02115
3551.29350	0.02124
3550.00773	0.02121
3548.72196	0.02108
3547.43619	0.02084
3546.15042	0.02064
3544.86466	0.02068
3543.57889	0.02103
3542.29312	0.02157
3541.00735	0.02209
3539.72158	0.02256
3538.43581	0.02301
3537.15004	0.02343
3535.86427	0.02377
3534.57850	0.02397
3533.29274	0.02398
3532.00697	0.02377
3530.72120	0.02345
3529.43543	0.02323
3528.14966	0.02333
3526.86389	0.02375
3525.57812	0.02429
3524.29235	0.02469
3523.00659	0.02489
3521.72082	0.02510
3520.43505	0.02556
3519.14928	0.02631
3517.86351	0.02703
3516.57774	0.02731
3515.29197	0.02704
3514.00620	0.02655
3512.72043	0.02629
3511.43467	0.02637
3510.14890	0.02649
3508.86313	0.02640
3507.57736	0.02620
3506.29159	0.02619
3505.00582	0.02648
3503.72005	0.02690
3502.43428	0.02720
3501.14852	0.02731
3499.86275	0.02729
3498.57698	0.02729
3497.29121	0.02735
3496.00544	0.02741
3494.71967	0.02736
3493.43390	0.02721
3492.14813	0.02712
3490.86236	0.02723
3489.57660	0.02758
3488.29083	0.02807
3487.00506	0.02852
3485.71929	0.02881
3484.43352	0.02888
3483.14775	0.02878
3481.86198	0.02862
3480.57621	0.02848
3479.29045	0.02843
3478.00468	0.02854
3476.71891	0.02881
3475.43314	0.02912
3474.14737	0.02928
3472.86160	0.02925
3471.57583	0.02907
3470.29006	0.02883
3469.00429	0.02865
3467.71853	0.02876
3466.43276	0.02933
3465.14699	0.03026
3463.86122	0.03126
3462.57545	0.03201
3461.28968	0.03235
3460.00391	0.03237
3458.71814	0.03220
3457.43238	0.03198
3456.14661	0.03183
3454.86084	0.03181
3453.57507	0.03186
3452.28930	0.03185
3451.00353	0.03161
3449.71776	0.03117
3448.43199	0.03081
3447.14622	0.03084
3445.86046	0.03135
3444.57469	0.03206
3443.28892	0.03264
3442.00315	0.03289
3440.71738	0.03286
3439.43161	0.03266
3438.14584	0.03235
3436.86007	0.03205
3435.57431	0.03186
3434.28854	0.03182
3433.00277	0.03186
3431.71700	0.03200
3430.43123	0.03237
3429.14546	0.03313
3427.85969	0.03425
3426.57392	0.03542
3425.28815	0.03625
3424.00239	0.03645
3422.71662	0.03608
3421.43085	0.03544
3420.14508	0.03492
3418.85931	0.03474
3417.57354	0.03489
3416.28777	0.03518
3415.00200	0.03549
3413.71624	0.03575
3412.43047	0.03589
3411.14470	0.03582
3409.85893	0.03554
3408.57316	0.03521
3407.28739	0.03505
3406.00162	0.03519
3404.71585	0.03554
3403.43008	0.03593
3402.14432	0.03622
3400.85855	0.03653
3399.57278	0.03708
3398.28701	0.03769
3397.00124	0.03826
3395.71547	0.03855
3394.42970	0.03845
3393.14393	0.03810
3391.85817	0.03779
3390.57240	0.03764
3389.28663	0.03763
3388.00086	0.03771
3386.71509	0.03787
3385.42932	0.03807
3384.14355	0.03826
3382.85778	0.03846
3381.57201	0.03871
3380.28625	0.03903
3379.00048	0.03940
3377.71471	0.03974
3376.42894	0.03999
3375.14317	0.04010
3373.85740	0.04015
3372.57163	0.04025
3371.28586	0.04040
3370.00010	0.04047
3368.71433	0.04039
3367.42856	0.04020
3366.14279	0.04000
3364.85702	0.03990
3363.57125	0.03996
3362.28548	0.04024
3360.99971	0.04072
3359.71394	0.04123
3358.42818	0.04157
3357.14241	0.04166
3355.85664	0.04157
3354.57087	0.04143
3353.28510	0.04140
3351.99933	0.04154
3350.71356	0.04180
3349.42779	0.04210
3348.14202	0.04236
3346.85626	0.04255
3345.57049	0.04276
3344.28472	0.04313
3342.99895	0.04370
3341.71318	0.04433
3340.42741	0.04475
3339.14164	0.04482
3337.85587	0.04463
3336.57011	0.04433
3335.28434	0.04405
3333.99857	0.04394
3332.71280	0.04415
3331.42703	0.04468
3330.14126	0.04533
3328.85549	0.04583
3327.56972	0.04601
3326.28395	0.04592
3324.99819	0.04575
3323.71242	0.04567
3322.42665	0.04574
3321.14088	0.04587
3319.85511	0.04600
3318.56934	0.04614
3317.28357	0.04635
3315.99780	0.04664
3314.71204	0.04697
3313.42627	0.04723
3312.14050	0.04735
3310.85473	0.04726
3309.56896	0.04698
3308.28319	0.04664
3306.99742	0.04645
3305.71165	0.04658
3304.42588	0.04705
3303.14012	0.04771
3301.85435	0.04832
3300.56858	0.04870
3299.28281	0.04886
3297.99704	0.04886
3296.71127	0.04876
3295.42550	0.04848
3294.13973	0.04801
3292.85397	0.04749
3291.56820	0.04716
3290.28243	0.04713
3288.99666	0.04731
3287.71089	0.04752
3286.42512	0.04772
3285.13935	0.04803
3283.85358	0.04851
3282.56781	0.04900
3281.28205	0.04920
3279.99628	0.04900
3278.71051	0.04867
3277.42474	0.04852
3276.13897	0.04857
3274.85320	0.04861
3273.56743	0.04851
3272.28166	0.04836
3270.99590	0.04829
3269.71013	0.04826
3268.42436	0.04815
3267.13859	0.04793
3265.85282	0.04776
3264.56705	0.04779
3263.28128	0.04807
3261.99551	0.04846
3260.70974	0.04878
3259.42398	0.04893
3258.13821	0.04887
3256.85244	0.04868
3255.56667	0.04847
3254.28090	0.04828
3252.99513	0.04807
3251.70936	0.04776
3250.42359	0.04740
3249.13783	0.04703
3247.85206	0.04670
3246.56629	0.04643
3245.28052	0.04623
3243.99475	0.04613
3242.70898	0.04615
3241.42321	0.04623
3240.13744	0.04625
3238.85167	0.04609
3237.56591	0.04579
3236.28014	0.04552
3234.99437	0.04538
3233.70860	0.04534
3232.42283	0.04532
3231.13706	0.04535
3229.85129	0.04543
3228.56552	0.04551
3227.27976	0.04544
3225.99399	0.04521
3224.70822	0.04487
3223.42245	0.04456
3222.13668	0.04436
3220.85091	0.04426
3219.56514	0.04415
3218.27937	0.04395
3216.99360	0.04367
3215.70784	0.04339
3214.42207	0.04325
3213.13630	0.04328
3211.85053	0.04340
3210.56476	0.04347
3209.27899	0.04342
3207.99322	0.04328
3206.70745	0.04312
3205.42169	0.04306
3204.13592	0.04322
3202.85015	0.04366
3201.56438	0.04423
3200.27861	0.04462
3198.99284	0.04463
3197.70707	0.04428
3196.42130	0.04384
3195.13553	0.04350
3193.84977	0.04324
3192.56400	0.04299
3191.27823	0.04276
3189.99246	0.04263
3188.70669	0.04270
3187.42092	0.04290
3186.13515	0.04312
3184.84938	0.04321
3183.56362	0.04313
3182.27785	0.04295
3180.99208	0.04273
3179.70631	0.04248
3178.42054	0.04218
3177.13477	0.04182
3175.84900	0.04142
3174.56323	0.04110
3173.27746	0.04098
3171.99170	0.04107
3170.70593	0.04124
3169.42016	0.04127
3168.13439	0.04114
3166.84862	0.04098
3165.56285	0.04095
3164.27708	0.04098
3162.99131	0.04080
3161.70555	0.04030
3160.41978	0.03968
3159.13401	0.03933
3157.84824	0.03942
3156.56247	0.03974
3155.27670	0.03996
3153.99093	0.03989
3152.70516	0.03961
3151.41939	0.03928
3150.13363	0.03897
3148.84786	0.03870
3147.56209	0.03846
3146.27632	0.03829
3144.99055	0.03825
3143.70478	0.03831
3142.41901	0.03838
3141.13324	0.03830
3139.84748	0.03799
3138.56171	0.03753
3137.27594	0.03712
3135.99017	0.03694
3134.70440	0.03705
3133.41863	0.03736
3132.13286	0.03769
3130.84709	0.03791
3129.56132	0.03796
3128.27556	0.03791
3126.98979	0.03785
3125.70402	0.03784
3124.41825	0.03783
3123.13248	0.03773
3121.84671	0.03748
3120.56094	0.03721
3119.27517	0.03707
3117.98940	0.03717
3116.70364	0.03744
3115.41787	0.03772
3114.13210	0.03783
3112.84633	0.03767
3111.56056	0.03730
3110.27479	0.03687
3108.98902	0.03659
3107.70325	0.03655
3106.41749	0.03662
3105.13172	0.03661
3103.84595	0.03642
3102.56018	0.03616
3101.27441	0.03602
3099.98864	0.03612
3098.70287	0.03634
3097.41710	0.03651
3096.13133	0.03659
3094.84557	0.03668
3093.55980	0.03689
3092.27403	0.03714
3090.98826	0.03728
3089.70249	0.03725
3088.41672	0.03714
3087.13095	0.03704
3085.84518	0.03692
3084.55942	0.03670
3083.27365	0.03644
3081.98788	0.03634
3080.70211	0.03655
3079.41634	0.03698
3078.13057	0.03734
3076.84480	0.03745
3075.55903	0.03732
3074.27326	0.03711
3072.98750	0.03697
3071.70173	0.03696
3070.41596	0.03706
3069.13019	0.03722
3067.84442	0.03735
3066.55865	0.03733
3065.27288	0.03714
3063.98711	0.03685
3062.70135	0.03664
3061.41558	0.03664
3060.12981	0.03682
3058.84404	0.03706
3057.55827	0.03717
3056.27250	0.03709
3054.98673	0.03689
3053.70096	0.03668
3052.41519	0.03657
3051.12943	0.03654
3049.84366	0.03650
3048.55789	0.03639
3047.27212	0.03620
3045.98635	0.03596
3044.70058	0.03569
3043.41481	0.03535
3042.12904	0.03499
3040.84328	0.03467
3039.55751	0.03436
3038.27174	0.03391
3036.98597	0.03319
3035.70020	0.03235
3034.41443	0.03170
3033.12866	0.03151
3031.84289	0.03172
3030.55712	0.03201
3029.27136	0.03205
3027.98559	0.03171
3026.69982	0.03114
3025.41405	0.03061
3024.12828	0.03036
3022.84251	0.03047
3021.55674	0.03087
3020.27097	0.03135
3018.98521	0.03168
3017.69944	0.03179
3016.41367	0.03174
3015.12790	0.03160
3013.84213	0.03136
3012.55636	0.03095
3011.27059	0.03042
3009.98482	0.02988
3008.69905	0.02949
3007.41329	0.02932
3006.12752	0.02936
3004.84175	0.02948
3003.55598	0.02957
3002.27021	0.02950
3000.98444	0.02918
2999.69867	0.02867
2998.41290	0.02824
2997.12714	0.02803
2995.84137	0.02806
2994.55560	0.02820
2993.26983	0.02826
2991.98406	0.02818
2990.69829	0.02807
2989.41252	0.02800
2988.12675	0.02796
2986.84098	0.02784
2985.55522	0.02768
2984.26945	0.02759
2982.98368	0.02766
2981.69791	0.02783
2980.41214	0.02802
2979.12637	0.02820
2977.84060	0.02833
2976.55483	0.02833
2975.26907	0.02816
2973.98330	0.02796
2972.69753	0.02802
2971.41176	0.02841
2970.12599	0.02888
2968.84022	0.02913
2967.55445	0.02908
2966.26868	0.02897
2964.98291	0.02904
2963.69715	0.02938
2962.41138	0.02985
2961.12561	0.03021
2959.83984	0.03028
2958.55407	0.03013
2957.26830	0.02998
2955.98253	0.02990
2954.69676	0.02975
2953.41100	0.02948
2952.12523	0.02922
2950.83946	0.02916
2949.55369	0.02930
2948.26792	0.02954
2946.98215	0.02972
2945.69638	0.02977
2944.41061	0.02965
2943.12484	0.02947
2941.83908	0.02935
2940.55331	0.02940
2939.26754	0.02958
2937.98177	0.02979
2936.69600	0.03000
2935.41023	0.03019
2934.12446	0.03039
2932.83869	0.03058
2931.55293	0.03077
2930.26716	0.03090
2928.98139	0.03089
2927.69562	0.03068
2926.40985	0.03038
2925.12408	0.03016
2923.83831	0.03012
2922.55254	0.03020
2921.26677	0.03023
2919.98101	0.03013
2918.69524	0.02997
2917.40947	0.02988
2916.12370	0.02994
2914.83793	0.03010
2913.55216	0.03022
2912.26639	0.03023
2910.98062	0.03016
2909.69486	0.03009
2908.40909	0.03006
2907.12332	0.03006
2905.83755	0.03002
2904.55178	0.02986
2903.26601	0.02961
2901.98024	0.02941
2900.69447	0.02937
2899.40870	0.02942
2898.12294	0.02939
2896.83717	0.02928
2895.55140	0.02922
2894.26563	0.02931
2892.97986	0.02950
2891.69409	0.02962
2890.40832	0.02954
2889.12255	0.02930
2887.83678	0.02909
2886.55102	0.02903
2885.26525	0.02902
2883.97948	0.02892
2882.69371	0.02870
2881.40794	0.02851
2880.12217	0.02844
2878.83640	0.02848
2877.55063	0.02852
2876.26487	0.02845
2874.97910	0.02826
2873.69333	0.02807
2872.40756	0.02800
2871.12179	0.02814
2869.83602	0.02844
2868.55025	0.02871
2867.26448	0.02879
2865.97871	0.02862
2864.69295	0.02829
2863.40718	0.02794
2862.12141	0.02769
2860.83564	0.02762
2859.54987	0.02773
2858.26410	0.02795
2856.97833	0.02815
2855.69256	0.02834
2854.40680	0.02853
2853.12103	0.02872
2851.83526	0.02876
2850.54949	0.02853
2849.26372	0.02804
2847.97795	0.02739
2846.69218	0.02676
2845.40641	0.02630
2844.12064	0.02612
2842.83488	0.02619
2841.54911	0.02635
2840.26334	0.02647
2838.97757	0.02652
2837.69180	0.02652
2836.40603	0.02648
2835.12026	0.02635
2833.83449	0.02614
2832.54873	0.02586
2831.26296	0.02551
2829.97719	0.02516
2828.69142	0.02495
2827.40565	0.02499
2826.11988	0.02526
2824.83411	0.02557
2823.54834	0.02572
2822.26257	0.02562
2820.97681	0.02535
2819.69104	0.02505
2818.40527	0.02488
2817.11950	0.02490
2815.83373	0.02511
2814.54796	0.02541
2813.26219	0.02570
2811.97642	0.02589
2810.69066	0.02596
2809.40489	0.02592
2808.11912	0.02585
2806.83335	0.02585
2805.54758	0.02601
2804.26181	0.02626
2802.97604	0.02651
2801.69027	0.02660
2800.40450	0.02653
2799.11874	0.02633
2797.83297	0.02607
2796.54720	0.02584
2795.26143	0.02569
2793.97566	0.02558
2792.68989	0.02546
2791.40412	0.02537
2790.11835	0.02537
2788.83259	0.02544
2787.54682	0.02547
2786.26105	0.02543
2784.97528	0.02537
2783.68951	0.02535
2782.40374	0.02538
2781.11797	0.02545
2779.83220	0.02556
2778.54643	0.02567
2777.26067	0.02570
2775.97490	0.02564
2774.68913	0.02549
2773.40336	0.02525
2772.11759	0.02495
2770.83182	0.02466
2769.54605	0.02448
2768.26028	0.02446
2766.97452	0.02460
2765.68875	0.02475
2764.40298	0.02480
2763.11721	0.02473
2761.83144	0.02462
2760.54567	0.02460
2759.25990	0.02468
2757.97413	0.02480
2756.68836	0.02488
2755.40260	0.02486
2754.11683	0.02476
2752.83106	0.02463
2751.54529	0.02445
2750.25952	0.02425
2748.97375	0.02415
2747.68798	0.02423
2746.40221	0.02440
2745.11645	0.02448
2743.83068	0.02441
2742.54491	0.02431
2741.25914	0.02426
2739.97337	0.02423
2738.68760	0.02413
2737.40183	0.02397
2736.11606	0.02385
2734.83029	0.02385
2733.54453	0.02395
2732.25876	0.02403
2730.97299	0.02397
2729.68722	0.02379
2728.40145	0.02357
2727.11568	0.02343
2725.82991	0.02341
2724.54414	0.02351
2723.25838	0.02369
2721.97261	0.02384
2720.68684	0.02384
2719.40107	0.02369
2718.11530	0.02344
2716.82953	0.02318
2715.54376	0.02294
2714.25799	0.02278
2712.97222	0.02276
2711.68646	0.02289
2710.40069	0.02305
2709.11492	0.02311
2707.82915	0.02310
2706.54338	0.02308
2705.25761	0.02307
2703.97184	0.02295
2702.68607	0.02269
2701.40031	0.02240
2700.11454	0.02228
2698.82877	0.02237
2697.54300	0.02253
2696.25723	0.02260
2694.97146	0.02255
2693.68569	0.02245
2692.39992	0.02238
2691.11415	0.02234
2689.82839	0.02231
2688.54262	0.02224
2687.25685	0.02212
2685.97108	0.02201
2684.68531	0.02196
2683.39954	0.02200
2682.11377	0.02211
2680.82800	0.02215
2679.54224	0.02205
2678.25647	0.02181
2676.97070	0.02156
2675.68493	0.02139
2674.39916	0.02136
2673.11339	0.02144
2671.82762	0.02156
2670.54185	0.02162
2669.25608	0.02162
2667.97032	0.02163
2666.68455	0.02176
2665.39878	0.02202
2664.11301	0.02228
2662.82724	0.02246
2661.54147	0.02253
2660.25570	0.02251
2658.96993	0.02242
2657.68417	0.02232
2656.39840	0.02225
2655.11263	0.02218
2653.82686	0.02211
2652.54109	0.02204
2651.25532	0.02199
2649.96955	0.02190
2648.68378	0.02173
2647.39801	0.02151
2646.11225	0.02130
2644.82648	0.02116
2643.54071	0.02110
2642.25494	0.02105
2640.96917	0.02099
2639.68340	0.02088
2638.39763	0.02070
2637.11186	0.02048
2635.82609	0.02025
2634.54033	0.02005
2633.25456	0.01996
2631.96879	0.02002
2630.68302	0.02018
2629.39725	0.02032
2628.11148	0.02036
2626.82571	0.02025
2625.53994	0.02004
2624.25418	0.01979
2622.96841	0.01961
2621.68264	0.01958
2620.39687	0.01970
2619.11110	0.01986
2617.82533	0.01991
2616.53956	0.01974
2615.25379	0.01938
2613.96802	0.01901
2612.68226	0.01883
2611.39649	0.01879
2610.11072	0.01874
2608.82495	0.01868
2607.53918	0.01876
2606.25341	0.01901
2604.96764	0.01922
2603.68187	0.01920
2602.39611	0.01900
2601.11034	0.01882
2599.82457	0.01877
2598.53880	0.01876
2597.25303	0.01870
2595.96726	0.01859
2594.68149	0.01850
2593.39572	0.01844
2592.10995	0.01824
2590.82419	0.01778
2589.53842	0.01720
2588.25265	0.01674
2586.96688	0.01657
2585.68111	0.01661
2584.39534	0.01672
2583.10957	0.01676
2581.82380	0.01667
2580.53804	0.01648
2579.25227	0.01642
2577.96650	0.01672
2576.68073	0.01742
2575.39496	0.01818
2574.10919	0.01855
2572.82342	0.01844
2571.53765	0.01811
2570.25188	0.01781
2568.96612	0.01755
2567.68035	0.01723
2566.39458	0.01683
2565.10881	0.01643
2563.82304	0.01613
2562.53727	0.01599
2561.25150	0.01598
2559.96573	0.01604
2558.67997	0.01614
2557.39420	0.01632
2556.10843	0.01651
2554.82266	0.01659
2553.53689	0.01650
2552.25112	0.01639
2550.96535	0.01646
2549.67958	0.01664
2548.39381	0.01667
2547.10805	0.01645
2545.82228	0.01625
2544.53651	0.01636
2543.25074	0.01673
2541.96497	0.01699
2540.67920	0.01695
2539.39343	0.01675
2538.10766	0.01653
2536.82190	0.01624
2535.53613	0.01582
2534.25036	0.01541
2532.96459	0.01518
2531.67882	0.01513
2530.39305	0.01519
2529.10728	0.01529
2527.82151	0.01538
2526.53574	0.01535
2525.24998	0.01514
2523.96421	0.01485
2522.67844	0.01472
2521.39267	0.01490
2520.10690	0.01536
2518.82113	0.01592
2517.53536	0.01630
2516.24959	0.01632
2514.96383	0.01602
2513.67806	0.01566
2512.39229	0.01551
2511.10652	0.01561
2509.82075	0.01573
2508.53498	0.01560
2507.24921	0.01517
2505.96344	0.01467
2504.67767	0.01441
2503.39191	0.01450
2502.10614	0.01475
2500.82037	0.01493
2499.53460	0.01498
2498.24883	0.01498
2496.96306	0.01495
2495.67729	0.01489
2494.39152	0.01482
2493.10576	0.01480
2491.81999	0.01490
2490.53422	0.01514
2489.24845	0.01537
2487.96268	0.01537
2486.67691	0.01507
2485.39114	0.01471
2484.10537	0.01459
2482.81960	0.01470
2481.53384	0.01474
2480.24807	0.01461
2478.96230	0.01457
2477.67653	0.01488
2476.39076	0.01544
2475.10499	0.01587
2473.81922	0.01588
2472.53345	0.01553
2471.24769	0.01503
2469.96192	0.01453
2468.67615	0.01416
2467.39038	0.01401
2466.10461	0.01404
2464.81884	0.01414
2463.53307	0.01423
2462.24730	0.01437
2460.96153	0.01467
2459.67577	0.01509
2458.39000	0.01538
2457.10423	0.01536
2455.81846	0.01506
2454.53269	0.01484
2453.24692	0.01493
2451.96115	0.01525
2450.67538	0.01550
2449.38962	0.01550
2448.10385	0.01532
2446.81808	0.01512
2445.53231	0.01497
2444.24654	0.01481
2442.96077	0.01460
2441.67500	0.01435
2440.38923	0.01411
2439.10346	0.01392
2437.81770	0.01375
2436.53193	0.01362
2435.24616	0.01366
2433.96039	0.01393
2432.67462	0.01435
2431.38885	0.01470
2430.10308	0.01489
2428.81731	0.01491
2427.53155	0.01477
2426.24578	0.01450
2424.96001	0.01420
2423.67424	0.01402
2422.38847	0.01401
2421.10270	0.01405
2419.81693	0.01403
2418.53116	0.01391
2417.24539	0.01381
2415.95963	0.01382
2414.67386	0.01399
2413.38809	0.01427
2412.10232	0.01454
2410.81655	0.01468
2409.53078	0.01467
2408.24501	0.01458
2406.95924	0.01452
2405.67347	0.01458
2404.38771	0.01472
2403.10194	0.01480
2401.81617	0.01468
2400.53040	0.01439
2399.24463	0.01405
2397.95886	0.01389
2396.67309	0.01388
2395.38732	0.01393
2394.10156	0.01398
2392.81579	0.01397
2391.53002	0.01390
2390.24425	0.01388
2388.95848	0.01401
2387.67271	0.01433
2386.38694	0.01470
2385.10117	0.01497
2383.81540	0.01507
2382.52964	0.01508
2381.24387	0.01509
2379.95810	0.01515
2378.67233	0.01529
2377.38656	0.01556
2376.10079	0.01595
2374.81502	0.01638
2373.52925	0.01675
2372.24349	0.01704
2370.95772	0.01732
2369.67195	0.01767
2368.38618	0.01808
2367.10041	0.01851
2365.81464	0.01893
2364.52887	0.01933
2363.24310	0.01961
2361.95733	0.01966
2360.67157	0.01948
2359.38580	0.01916
2358.10003	0.01886
2356.81426	0.01865
2355.52849	0.01844
2354.24272	0.01814
2352.95695	0.01769
2351.67118	0.01712
2350.38542	0.01659
2349.09965	0.01629
2347.81388	0.01638
2346.52811	0.01682
2345.24234	0.01743
2343.95657	0.01800
2342.67080	0.01841
2341.38503	0.01866
2340.09926	0.01876
2338.81350	0.01870
2337.52773	0.01852
2336.24196	0.01830
2334.95619	0.01815
2333.67042	0.01807
2332.38465	0.01800
2331.09888	0.01790
2329.81311	0.01783
2328.52735	0.01791
2327.24158	0.01819
2325.95581	0.01860
2324.67004	0.01894
2323.38427	0.01907
2322.09850	0.01890
2320.81273	0.01847
2319.52696	0.01787
2318.24119	0.01725
2316.95543	0.01671
2315.66966	0.01633
2314.38389	0.01611
2313.09812	0.01602
2311.81235	0.01596
2310.52658	0.01582
2309.24081	0.01554
2307.95504	0.01509
2306.66928	0.01458
2305.38351	0.01424
2304.09774	0.01422
2302.81197	0.01446
2301.52620	0.01474
2300.24043	0.01484
2298.95466	0.01469
2297.66889	0.01440
2296.38312	0.01412
2295.09736	0.01396
2293.81159	0.01388
2292.52582	0.01378
2291.24005	0.01359
2289.95428	0.01339
2288.66851	0.01327
2287.38274	0.01323
2286.09697	0.01324
2284.81121	0.01334
2283.52544	0.01358
2282.23967	0.01386
2280.95390	0.01401
2279.66813	0.01398
2278.38236	0.01384
2277.09659	0.01371
2275.81082	0.01367
2274.52505	0.01379
2273.23929	0.01408
2271.95352	0.01435
2270.66775	0.01428
2269.38198	0.01372
2268.09621	0.01285
2266.81044	0.01204
2265.52467	0.01158
2264.23890	0.01154
2262.95314	0.01172
2261.66737	0.01181
2260.38160	0.01164
2259.09583	0.01140
2257.81006	0.01130
2256.52429	0.01135
2255.23852	0.01135
2253.95275	0.01123
2252.66698	0.01108
2251.38122	0.01104
2250.09545	0.01130
2248.80968	0.01182
2247.52391	0.01199
2246.23814	0.01172
2244.95237	0.01111
2243.66660	0.01063
2242.38083	0.01067
2241.09507	0.01104
2239.80930	0.01128
2238.52353	0.01123
2237.23776	0.01112
2235.95199	0.01106
2234.66622	0.01094
2233.38045	0.01070
2232.09468	0.01043
2230.80891	0.01020
2229.52315	0.00989
2228.23738	0.00938
2226.95161	0.00880
2225.66584	0.00847
2224.38007	0.00861
2223.09430	0.00923
2221.80853	0.01003
2220.52276	0.01052
2219.23700	0.01030
2217.95123	0.00952
2216.66546	0.00882
2215.37969	0.00868
2214.09392	0.00884
2212.80815	0.00876
2211.52238	0.00838
2210.23661	0.00822
2208.95084	0.00870
2207.66508	0.00956
2206.37931	0.01012
2205.09354	0.00994
2203.80777	0.00913
2202.52200	0.00817
2201.23623	0.00748
2199.95046	0.00724
2198.66469	0.00746
2197.37893	0.00811
2196.09316	0.00905
2194.80739	0.00993
2193.52162	0.01031
2192.23585	0.00992
2190.95008	0.00896
2189.66431	0.00800
2188.37854	0.00754
2187.09277	0.00767
2185.80701	0.00804
2184.52124	0.00817
2183.23547	0.00781
2181.94970	0.00717
2180.66393	0.00680
2179.37816	0.00706
2178.09239	0.00769
2176.80662	0.00814
2175.52085	0.00817
2174.23509	0.00800
2172.94932	0.00783
2171.66355	0.00752
2170.37778	0.00693
2169.09201	0.00634
2167.80624	0.00621
2166.52047	0.00664
2165.23470	0.00718
2163.94894	0.00733
2162.66317	0.00705
2161.37740	0.00659
2160.09163	0.00613
2158.80586	0.00579
2157.52009	0.00582
2156.23432	0.00617
2154.94855	0.00625
2153.66278	0.00567
2152.37702	0.00487
2151.09125	0.00458
2149.80548	0.00491
2148.51971	0.00538
2147.23394	0.00569
2145.94817	0.00598
2144.66240	0.00636
2143.37663	0.00663
2142.09087	0.00665
2140.80510	0.00650
2139.51933	0.00640
2138.23356	0.00642
2136.94779	0.00647
2135.66202	0.00638
2134.37625	0.00603
2133.09048	0.00538
2131.80471	0.00463
2130.51895	0.00418
2129.23318	0.00439
2127.94741	0.00524
2126.66164	0.00631
2125.37587	0.00717
2124.09010	0.00774
2122.80433	0.00825
2121.51856	0.00892
2120.23280	0.00962
2118.94703	0.01006
2117.66126	0.01005
2116.37549	0.00977
2115.08972	0.00943
2113.80395	0.00911
2112.51818	0.00880
2111.23241	0.00859
2109.94664	0.00856
2108.66088	0.00861
2107.37511	0.00860
2106.08934	0.00849
2104.80357	0.00825
2103.51780	0.00782
2102.23203	0.00714
2100.94626	0.00657
2099.66049	0.01010
2098.37473	0.01208
2097.08896	0.01229
2095.80319	0.01186
2094.51742	0.01100
2093.23165	0.00984
2091.94588	0.00864
2090.66011	0.00767
2089.37434	0.00712
2088.08857	0.00698
2086.80281	0.00705
2085.51704	0.00715
2084.23127	0.00726
2082.94550	0.00749
2081.65973	0.00787
2080.37396	0.00838
2079.08819	0.00898
2077.80242	0.00964
2076.51666	0.01031
2075.23089	0.01101
2073.94512	0.01184
2072.65935	0.01280
2071.37358	0.01369
2070.08781	0.01421
2068.80204	0.01414
2067.51627	0.01345
2066.23050	0.01228
2064.94474	0.01091
2063.65897	0.00960
2062.37320	0.00854
2061.08743	0.00780
2059.80166	0.00746
2058.51589	0.00751
2057.23012	0.00777
2055.94435	0.00790
2054.65859	0.00781
2053.37282	0.00792
2052.08705	0.00883
2050.80128	0.01056
2049.51551	0.01221
2048.22974	0.01280
2046.94397	0.01220
2045.65820	0.01115
2044.37243	0.01043
2043.08667	0.01018
2041.80090	0.01011
2040.51513	0.01011
2039.22936	0.01047
2037.94359	0.01139
2036.65782	0.01260
2035.37205	0.01353
2034.08628	0.01376
2032.80052	0.01328
2031.51475	0.01241
2030.22898	0.01155
2028.94321	0.01090
2027.65744	0.01041
2026.37167	0.00991
2025.08590	0.00933
2023.80013	0.00878
2022.51436	0.00839
2021.22860	0.00819
2019.94283	0.00820
2018.65706	0.00828
2017.37129	0.00829
2016.08552	0.00818
2014.79975	0.00808
2013.51398	0.00833
2012.22821	0.00924
2010.94245	0.01095
2009.65668	0.01310
2008.37091	0.01488
2007.08514	0.01560
2005.79937	0.01515
2004.51360	0.01397
2003.22783	0.01258
2001.94206	0.01121
2000.65629	0.00995
1999.37053	0.00888
1998.08476	0.00810
1996.79899	0.00760
1995.51322	0.00719
1994.22745	0.00670
1992.94168	0.00620
1991.65591	0.00591
1990.37014	0.00589
1989.08438	0.00601
1987.79861	0.00622
1986.51284	0.00658
1985.22707	0.00715
1983.94130	0.00797
1982.65553	0.00930
1981.36976	0.01152
1980.08399	0.01450
1978.79822	0.01736
1977.51246	0.01905
1976.22669	0.01919
1974.94092	0.01817
1973.65515	0.01651
1972.36938	0.01454
1971.08361	0.01257
1969.79784	0.01110
1968.51207	0.01056
1967.22631	0.01097
1965.94054	0.01192
1964.65477	0.01279
1963.36900	0.01313
1962.08323	0.01279
1960.79746	0.01192
1959.51169	0.01085
1958.22592	0.00987
1956.94015	0.00921
1955.65439	0.00890
1954.36862	0.00891
1953.08285	0.00917
1951.79708	0.00963
1950.51131	0.01016
1949.22554	0.01054
1947.93977	0.01053
1946.65400	0.01008
1945.36823	0.00946
1944.08247	0.00914
1942.79670	0.00952
1941.51093	0.01053
1940.22516	0.01168
1938.93939	0.01249
1937.65362	0.01279
1936.36785	0.01268
1935.08208	0.01229
1933.79632	0.01182
1932.51055	0.01144
1931.22478	0.01127
1929.93901	0.01124
1928.65324	0.01119
1927.36747	0.01101
1926.08170	0.01070
1924.79593	0.01029
1923.51016	0.00986
1922.22440	0.00963
1920.93863	0.00978
1919.65286	0.01032
1918.36709	0.01096
1917.08132	0.01129
1915.79555	0.01110
1914.50978	0.01058
1913.22401	0.01014
1911.93825	0.01011
1910.65248	0.01053
1909.36671	0.01112
1908.08094	0.01151
1906.79517	0.01152
1905.50940	0.01124
1904.22363	0.01095
1902.93786	0.01084
1901.65209	0.01089
1900.36633	0.01099
1899.08056	0.01105
1897.79479	0.01104
1896.50902	0.01096
1895.22325	0.01081
1893.93748	0.01063
1892.65171	0.01052
1891.36594	0.01055
1890.08018	0.01072
1888.79441	0.01095
1887.50864	0.01110
1886.22287	0.01104
1884.93710	0.01076
1883.65133	0.01040
1882.36556	0.01013
1881.07979	0.01010
1879.79402	0.01033
1878.50826	0.01067
1877.22249	0.01090
1875.93672	0.01088
1874.65095	0.01067
1873.36518	0.01044
1872.07941	0.01032
1870.79364	0.01030
1869.50787	0.01031
1868.22211	0.01025
1866.93634	0.01013
1865.65057	0.01001
1864.36480	0.00999
1863.07903	0.01012
1861.79326	0.01033
1860.50749	0.01050
1859.22172	0.01061
1857.93595	0.01066
1856.65019	0.01067
1855.36442	0.01060
1854.07865	0.01047
1852.79288	0.01033
1851.50711	0.01027
1850.22134	0.01029
1848.93557	0.01036
1847.64980	0.01045
1846.36404	0.01049
1845.07827	0.01043
1843.79250	0.01024
1842.50673	0.00997
1841.22096	0.00968
1839.93519	0.00948
1838.64942	0.00941
1837.36365	0.00943
1836.07788	0.00946
1834.79212	0.00951
1833.50635	0.00962
1832.22058	0.00981
1830.93481	0.01008
1829.64904	0.01041
1828.36327	0.01075
1827.07750	0.01105
1825.79173	0.01132
1824.50597	0.01164
1823.22020	0.01209
1821.93443	0.01262
1820.64866	0.01307
1819.36289	0.01319
1818.07712	0.01277
1816.79135	0.01183
1815.50558	0.01069
1814.21981	0.00969
1812.93405	0.00903
1811.64828	0.00868
1810.36251	0.00853
1809.07674	0.00850
1807.79097	0.00858
1806.50520	0.00872
1805.21943	0.00886
1803.93366	0.00897
1802.64790	0.00912
1801.36213	0.00934
1800.07636	0.00957
1798.79059	0.00972
1797.50482	0.00978
1796.21905	0.00982
1794.93328	0.00992
1793.64751	0.01009
1792.36174	0.01027
1791.07598	0.01044
1789.79021	0.01054
1788.50444	0.01054
1787.21867	0.01045
1785.93290	0.01029
1784.64713	0.01018
1783.36136	0.01019
1782.07559	0.01031
1780.78983	0.01045
1779.50406	0.01051
1778.21829	0.01045
1776.93252	0.01030
1775.64675	0.01012
1774.36098	0.00996
1773.07521	0.00985
1771.78944	0.00980
1770.50367	0.00973
1769.21791	0.00955
1767.93214	0.00932
1766.64637	0.00918
1765.36060	0.00917
1764.07483	0.00922
1762.78906	0.00928
1761.50329	0.00934
1760.21752	0.00941
1758.93176	0.00945
1757.64599	0.00945
1756.36022	0.00946
1755.07445	0.00953
1753.78868	0.00962
1752.50291	0.00967
1751.21714	0.00970
1749.93137	0.00972
1748.64560	0.00971
1747.35984	0.00966
1746.07407	0.00961
1744.78830	0.00959
1743.50253	0.00961
1742.21676	0.00967
1740.93099	0.00972
1739.64522	0.00979
1738.35945	0.00994
1737.07369	0.01015
1735.78792	0.01035
1734.50215	0.01051
1733.21638	0.01066
1731.93061	0.01074
1730.64484	0.01074
1729.35907	0.01067
1728.07330	0.01061
1726.78753	0.01055
1725.50177	0.01050
1724.21600	0.01050
1722.93023	0.01059
1721.64446	0.01080
1720.35869	0.01107
1719.07292	0.01134
1717.78715	0.01160
1716.50138	0.01186
1715.21561	0.01212
1713.92985	0.01238
1712.64408	0.01263
1711.35831	0.01288
1710.07254	0.01315
1708.78677	0.01350
1707.50100	0.01399
1706.21523	0.01465
1704.92946	0.01546
1703.64370	0.01634
1702.35793	0.01717
1701.07216	0.01796
1699.78639	0.01882
1698.50062	0.01970
1697.21485	0.02045
1695.92908	0.02108
1694.64331	0.02172
1693.35754	0.02239
1692.07178	0.02304
1690.78601	0.02376
1689.50024	0.02464
1688.21447	0.02563
1686.92870	0.02659
1685.64293	0.02749
1684.35716	0.02840
1683.07139	0.02935
1681.78563	0.03023
1680.49986	0.03101
1679.21409	0.03185
1677.92832	0.03281
1676.64255	0.03384
1675.35678	0.03488
1674.07101	0.03595
1672.78524	0.03700
1671.49947	0.03801
1670.21371	0.03904
1668.92794	0.04011
1667.64217	0.04119
1666.35640	0.04221
1665.07063	0.04316
1663.78486	0.04406
1662.49909	0.04495
1661.21332	0.04579
1659.92756	0.04659
1658.64179	0.04741
1657.35602	0.04831
1656.07025	0.04924
1654.78448	0.05005
1653.49871	0.05071
1652.21294	0.05127
1650.92717	0.05176
1649.64140	0.05210
1648.35564	0.05237
1647.06987	0.05268
1645.78410	0.05308
1644.49833	0.05347
1643.21256	0.05377
1641.92679	0.05397
1640.64102	0.05416
1639.35525	0.05439
1638.06949	0.05458
1636.78372	0.05472
1635.49795	0.05483
1634.21218	0.05494
1632.92641	0.05498
1631.64064	0.05491
1630.35487	0.05475
1629.06910	0.05454
1627.78333	0.05425
1626.49757	0.05384
1625.21180	0.05330
1623.92603	0.05267
1622.64026	0.05203
1621.35449	0.05137
1620.06872	0.05062
1618.78295	0.04973
1617.49718	0.04874
1616.21142	0.04779
1614.92565	0.04691
1613.63988	0.04603
1612.35411	0.04509
1611.06834	0.04412
1609.78257	0.04315
1608.49680	0.04218
1607.21103	0.04122
1605.92526	0.04029
1604.63950	0.03938
1603.35373	0.03853
1602.06796	0.03777
1600.78219	0.03711
1599.49642	0.03652
1598.21065	0.03596
1596.92488	0.03541
1595.63911	0.03488
1594.35335	0.03439
1593.06758	0.03396
1591.78181	0.03359
1590.49604	0.03328
1589.21027	0.03304
1587.92450	0.03286
1586.63873	0.03276
1585.35296	0.03269
1584.06719	0.03264
1582.78143	0.03263
1581.49566	0.03271
1580.20989	0.03291
1578.92412	0.03317
1577.63835	0.03338
1576.35258	0.03359
1575.06681	0.03388
1573.78104	0.03425
1572.49528	0.03463
1571.20951	0.03504
1569.92374	0.03551
1568.63797	0.03603
1567.35220	0.03653
1566.06643	0.03700
1564.78066	0.03752
1563.49489	0.03817
1562.20912	0.03888
1560.92336	0.03956
1559.63759	0.04020
1558.35182	0.04084
1557.06605	0.04144
1555.78028	0.04191
1554.49451	0.04230
1553.20874	0.04273
1551.92297	0.04323
1550.63721	0.04373
1549.35144	0.04418
1548.06567	0.04456
1546.77990	0.04487
1545.49413	0.04519
1544.20836	0.04554
1542.92259	0.04588
1541.63682	0.04615
1540.35105	0.04632
1539.06529	0.04644
1537.77952	0.04653
1536.49375	0.04654
1535.20798	0.04645
1533.92221	0.04637
1532.63644	0.04636
1531.35067	0.04640
1530.06490	0.04642
1528.77914	0.04642
1527.49337	0.04643
1526.20760	0.04644
1524.92183	0.04645
1523.63606	0.04642
1522.35029	0.04633
1521.06452	0.04621
1519.77875	0.04605
1518.49298	0.04580
1517.20722	0.04544
1515.92145	0.04508
1514.63568	0.04475
1513.34991	0.04443
1512.06414	0.04410
1510.77837	0.04373
1509.49260	0.04328
1508.20683	0.04271
1506.92107	0.04210
1505.63530	0.04151
1504.34953	0.04092
1503.06376	0.04024
1501.77799	0.03948
1500.49222	0.03872
1499.20645	0.03798
1497.92068	0.03725
1496.63491	0.03654
1495.34915	0.03587
1494.06338	0.03525
1492.77761	0.03462
1491.49184	0.03394
1490.20607	0.03325
1488.92030	0.03258
1487.63453	0.03196
1486.34876	0.03138
1485.06299	0.03087
1483.77723	0.03041
1482.49146	0.02999
1481.20569	0.02961
1479.91992	0.02932
1478.63415	0.02915
1477.34838	0.02913
1476.06261	0.02924
1474.77684	0.02943
1473.49108	0.02965
1472.20531	0.02991
1470.91954	0.03022
1469.63377	0.03053
1468.34800	0.03082
1467.06223	0.03107
1465.77646	0.03132
1464.49069	0.03160
1463.20492	0.03193
1461.91916	0.03230
1460.63339	0.03277
1459.34762	0.03332
1458.06185	0.03393
1456.77608	0.03455
1455.49031	0.03507
1454.20454	0.03541
1452.91877	0.03556
1451.63301	0.03561
1450.34724	0.03562
1449.06147	0.03557
1447.77570	0.03546
1446.48993	0.03532
1445.20416	0.03514
1443.91839	0.03494
1442.63262	0.03473
1441.34685	0.03451
1440.06109	0.03426
1438.77532	0.03397
1437.48955	0.03365
1436.20378	0.03339
1434.91801	0.03317
1433.63224	0.03293
1432.34647	0.03263
1431.06070	0.03234
1429.77494	0.03212
1428.48917	0.03200
1427.20340	0.03193
1425.91763	0.03188
1424.63186	0.03183
1423.34609	0.03181
1422.06032	0.03180
1420.77455	0.03174
1419.48878	0.03164
1418.20302	0.03155
1416.91725	0.03147
1415.63148	0.03141
1414.34571	0.03136
1413.05994	0.03130
1411.77417	0.03120
1410.48840	0.03109
1409.20263	0.03100
1407.91687	0.03095
1406.63110	0.03093
1405.34533	0.03094
1404.05956	0.03098
1402.77379	0.03103
1401.48802	0.03105
1400.20225	0.03103
1398.91648	0.03099
1397.63071	0.03093
1396.34495	0.03082
1395.05918	0.03069
1393.77341	0.03058
1392.48764	0.03047
1391.20187	0.03035
1389.91610	0.03023
1388.63033	0.03013
1387.34456	0.03008
1386.05880	0.03006
1384.77303	0.02998
1383.48726	0.02980
1382.20149	0.02955
1380.91572	0.02927
1379.62995	0.02899
1378.34418	0.02873
1377.05841	0.02850
1375.77264	0.02829
1374.48688	0.02808
1373.20111	0.02785
1371.91534	0.02760
1370.62957	0.02733
1369.34380	0.02707
1368.05803	0.02680
1366.77226	0.02651
1365.48649	0.02620
1364.20073	0.02588
1362.91496	0.02560
1361.62919	0.02535
1360.34342	0.02513
1359.05765	0.02492
1357.77188	0.02471
1356.48611	0.02450
1355.20034	0.02432
1353.91457	0.02420
1352.62881	0.02416
1351.34304	0.02422
1350.05727	0.02432
1348.77150	0.02439
1347.48573	0.02439
1346.19996	0.02433
1344.91419	0.02431
1343.62842	0.02436
1342.34266	0.02449
1341.05689	0.02464
1339.77112	0.02479
1338.48535	0.02492
1337.19958	0.02501
1335.91381	0.02504
1334.62804	0.02498
1333.34227	0.02485
1332.05650	0.02470
1330.77074	0.02457
1329.48497	0.02449
1328.19920	0.02442
1326.91343	0.02435
1325.62766	0.02426
1324.34189	0.02417
1323.05612	0.02409
1321.77035	0.02405
1320.48459	0.02404
1319.19882	0.02404
1317.91305	0.02402
1316.62728	0.02399
1315.34151	0.02394
1314.05574	0.02390
1312.76997	0.02390
1311.48420	0.02389
1310.19843	0.02387
1308.91267	0.02381
1307.62690	0.02374
1306.34113	0.02367
1305.05536	0.02359
1303.76959	0.02350
1302.48382	0.02339
1301.19805	0.02329
1299.91228	0.02320
1298.62652	0.02316
1297.34075	0.02314
1296.05498	0.02314
1294.76921	0.02313
1293.48344	0.02311
1292.19767	0.02310
1290.91190	0.02311
1289.62613	0.02317
1288.34036	0.02328
1287.05460	0.02345
1285.76883	0.02364
1284.48306	0.02382
1283.19729	0.02394
1281.91152	0.02402
1280.62575	0.02408
1279.33998	0.02414
1278.05421	0.02420
1276.76845	0.02422
1275.48268	0.02420
1274.19691	0.02418
1272.91114	0.02419
1271.62537	0.02426
1270.33960	0.02438
1269.05383	0.02455
1267.76806	0.02472
1266.48229	0.02488
1265.19653	0.02503
1263.91076	0.02519
1262.62499	0.02537
1261.33922	0.02554
1260.05345	0.02565
1258.76768	0.02574
1257.48191	0.02583
1256.19614	0.02596
1254.91037	0.02613
1253.62461	0.02632
1252.33884	0.02653
1251.05307	0.02677
1249.76730	0.02703
1248.48153	0.02730
1247.19576	0.02759
1245.90999	0.02789
1244.62422	0.02822
1243.33846	0.02852
1242.05269	0.02877
1240.76692	0.02898
1239.48115	0.02917
1238.19538	0.02936
1236.90961	0.02954
1235.62384	0.02968
1234.33807	0.02975
1233.05230	0.02974
1231.76654	0.02964
1230.48077	0.02949
1229.19500	0.02928
1227.90923	0.02904
1226.62346	0.02878
1225.33769	0.02853
1224.05192	0.02828
1222.76615	0.02801
1221.48039	0.02771
1220.19462	0.02739
1218.90885	0.02710
1217.62308	0.02684
1216.33731	0.02657
1215.05154	0.02631
1213.76577	0.02608
1212.48000	0.02591
1211.19423	0.02583
1209.90847	0.02580
1208.62270	0.02580
1207.33693	0.02580
1206.05116	0.02578
1204.76539	0.02578
1203.47962	0.02584
1202.19385	0.02593
1200.90808	0.02574
1199.62232	0.02513
1198.33655	0.02497
1197.05078	0.02478
1195.76501	0.02454
1194.47924	0.02429
1193.19347	0.02404
1191.90770	0.02380
1190.62193	0.02357
1189.33616	0.02337
1188.05040	0.02321
1186.76463	0.02307
1185.47886	0.02294
1184.19309	0.02280
1182.90732	0.02266
1181.62155	0.02255
1180.33578	0.02250
1179.05001	0.02253
1177.76425	0.02261
1176.47848	0.02270
1175.19271	0.02273
1173.90694	0.02272
1172.62117	0.02270
1171.33540	0.02275
1170.04963	0.02287
1168.76386	0.02301
1167.47809	0.02315
1166.19233	0.02333
1164.90656	0.02356
1163.62079	0.02378
1162.33502	0.02394
1161.04925	0.02400
1159.76348	0.02405
1158.47771	0.02414
1157.19194	0.02428
1155.90618	0.02442
1154.62041	0.02451
1153.33464	0.02453
1152.04887	0.02452
1150.76310	0.02450
1149.47733	0.02446
1148.19156	0.02442
1146.90579	0.02442
1145.62002	0.02448
1144.33426	0.02459
1143.04849	0.02472
1141.76272	0.02485
1140.47695	0.02497
1139.19118	0.02509
1137.90541	0.02518
1136.61964	0.02528
1135.33387	0.02546
1134.04811	0.02573
1132.76234	0.02610
1131.47657	0.02654
1130.19080	0.02709
1128.90503	0.02777
1127.61926	0.02858
1126.33349	0.02947
1125.04772	0.03042
1123.76195	0.03140
1122.47619	0.03244
1121.19042	0.03355
1119.90465	0.03474
1118.61888	0.03599
1117.33311	0.03729
1116.04734	0.03860
1114.76157	0.03990
1113.47580	0.04118
1112.19004	0.04242
1110.90427	0.04366
1109.61850	0.04490
1108.33273	0.04607
1107.04696	0.04714
1105.76119	0.04817
1104.47542	0.04920
1103.18965	0.05024
1101.90388	0.05121
1100.61812	0.05204
1099.33235	0.05273
1098.04658	0.05330
1096.76081	0.05373
1095.47504	0.05404
1094.18927	0.05425
1092.90350	0.05437
1091.61773	0.05439
1090.33197	0.05428
1089.04620	0.05408
1087.76043	0.05388
1086.47466	0.05381
1085.18889	0.05396
1083.90312	0.05432
1082.61735	0.05484
1081.33158	0.05552
1080.04581	0.05635
1078.76005	0.05729
1077.47428	0.05824
1076.18851	0.05911
1074.90274	0.05987
1073.61697	0.06052
1072.33120	0.06111
1071.04543	0.06164
1069.75966	0.06212
1068.47390	0.06256
1067.18813	0.06295
1065.90236	0.06331
1064.61659	0.06372
1063.33082	0.06421
1062.04505	0.06477
1060.75928	0.06535
1059.47351	0.06595
1058.18774	0.06660
1056.90198	0.06737
1055.61621	0.06824
1054.33044	0.06917
1053.04467	0.07015
1051.75890	0.07120
1050.47313	0.07234
1049.18736	0.07359
1047.90159	0.07496
1046.61583	0.07645
1045.33006	0.07805
1044.04429	0.07972
1042.75852	0.08135
1041.47275	0.08290
1040.18698	0.08434
1038.90121	0.08560
1037.61544	0.08639
1036.32967	0.08641
1035.04391	0.08588
1033.75814	0.08570
1032.47237	0.08672
1031.18660	0.08886
1029.90083	0.09109
1028.61506	0.09245
1027.32929	0.09269
1026.04352	0.09212
1024.75775	0.09112
1023.47199	0.08987
1022.18622	0.08845
1020.90045	0.08688
1019.61468	0.08515
1018.32891	0.08328
1017.04314	0.08129
1015.75737	0.07919
1014.47160	0.07704
1013.18584	0.07493
1011.90007	0.07296
1010.61430	0.07120
1009.32853	0.06963
1008.04276	0.06818
1006.75699	0.06680
1005.47122	0.06542
1004.18545	0.06402
1002.89968	0.06262
1001.61392	0.06131
1000.32815	0.06014
999.04238	0.05908
997.75661	0.05808
996.47084	0.05712
995.18507	0.05617
993.89930	0.05525
992.61353	0.05436
991.32777	0.05352
990.04200	0.05272
988.75623	0.05195
987.47046	0.05118
986.18469	0.05045
984.89892	0.04982
983.61315	0.04924
982.32738	0.04863
981.04161	0.04794
979.75585	0.04722
978.47008	0.04661
977.18431	0.04616
975.89854	0.04582
974.61277	0.04548
973.32700	0.04512
972.04123	0.04484
970.75546	0.04475
969.46970	0.04491
968.18393	0.04524
966.89816	0.04556
965.61239	0.04571
964.32662	0.04563
963.04085	0.04534
961.75508	0.04486
960.46931	0.04428
959.18354	0.04369
957.89778	0.04314
956.61201	0.04259
955.32624	0.04200
954.04047	0.04136
952.75470	0.04071
951.46893	0.04007
950.18316	0.03948
948.89739	0.03899
947.61163	0.03862
946.32586	0.03837
945.04009	0.03819
943.75432	0.03799
942.46855	0.03773
941.18278	0.03736
939.89701	0.03692
938.61124	0.03646
937.32547	0.03604
936.03971	0.03567
934.75394	0.03535
933.46817	0.03506
932.18240	0.03477
930.89663	0.03448
929.61086	0.03420
928.32509	0.03391
927.03932	0.03361
925.75356	0.03328
924.46779	0.03295
923.18202	0.03262
921.89625	0.03231
920.61048	0.03202
919.32471	0.03176
918.03894	0.03154
916.75317	0.03135
915.46740	0.03114
914.18164	0.03093
912.89587	0.03072
911.61010	0.03051
910.32433	0.03029
909.03856	0.03005
907.75279	0.02984
906.46702	0.02969
905.18125	0.02956
903.89549	0.02942
902.60972	0.02922
901.32395	0.02901
900.03818	0.02884
898.75241	0.02875
897.46664	0.02868
896.18087	0.02860
894.89510	0.02849
893.60933	0.02833
892.32357	0.02814
891.03780	0.02795
889.75203	0.02780
888.46626	0.02770
887.18049	0.02762
885.89472	0.02755
884.60895	0.02750
883.32318	0.02746
882.03742	0.02745
880.75165	0.02753
879.46588	0.02773
878.18011	0.02794
876.89434	0.02797
875.60857	0.02780
874.32280	0.02757
873.03703	0.02750
871.75126	0.02762
870.46550	0.02785
869.17973	0.02805
867.89396	0.02815
866.60819	0.02811
865.32242	0.02795
864.03665	0.02776
862.75088	0.02760
861.46511	0.02746
860.17935	0.02731
858.89358	0.02715
857.60781	0.02701
856.32204	0.02690
855.03627	0.02675
853.75050	0.02653
852.46473	0.02628
851.17896	0.02606
849.89319	0.02592
848.60743	0.02578
847.32166	0.02558
846.03589	0.02534
844.75012	0.02511
843.46435	0.02491
842.17858	0.02471
840.89281	0.02450
839.60704	0.02433
838.32128	0.02422
837.03551	0.02414
835.74974	0.02405
834.46397	0.02395
833.17820	0.02385
831.89243	0.02378
830.60666	0.02375
829.32089	0.02372
828.03512	0.02366
826.74936	0.02357
825.46359	0.02348
824.17782	0.02342
822.89205	0.02339
821.60628	0.02339
820.32051	0.02348
819.03474	0.02361
817.74897	0.02368
816.46321	0.02361
815.17744	0.02344
813.89167	0.02329
812.60590	0.02321
811.32013	0.02317
810.03436	0.02314
808.74859	0.02314
807.46282	0.02312
806.17705	0.02304
804.89129	0.02291
803.60552	0.02282
802.31975	0.02280
801.03398	0.02282
799.74821	0.02284
798.46244	0.02285
797.17667	0.02287
795.89090	0.02289
794.60513	0.02292
793.31937	0.02294
792.03360	0.02294
790.74783	0.02289
789.46206	0.02279
788.17629	0.02267
786.89052	0.02260
785.60475	0.02262
784.31898	0.02267
783.03322	0.02265
781.74745	0.02253
780.46168	0.02240
779.17591	0.02237
777.89014	0.02247
776.60437	0.02261
775.31860	0.02266
774.03283	0.02257
772.74706	0.02237
771.46130	0.02222
770.17553	0.02221
768.88976	0.02236
767.60399	0.02257
766.31822	0.02274
765.03245	0.02278
763.74668	0.02276
762.46091	0.02276
761.17515	0.02285
759.88938	0.02298
758.60361	0.02309
757.31784	0.02316
756.03207	0.02318
754.74630	0.02317
753.46053	0.02314
752.17476	0.02311
750.88899	0.02312
749.60323	0.02320
748.31746	0.02335
747.03169	0.02352
745.74592	0.02364
744.46015	0.02365
743.17438	0.02353
741.88861	0.02329
740.60284	0.02303
739.31708	0.02285
738.03131	0.02283
736.74554	0.02299
735.45977	0.02327
734.17400	0.02355
732.88823	0.02373
731.60246	0.02385
730.31669	0.02399
729.03092	0.02412
727.74516	0.02417
726.45939	0.02410
725.17362	0.02394
723.88785	0.02373
722.60208	0.02371
721.31631	0.02379
720.03054	0.02388
718.74477	0.02400
717.45901	0.02410
716.17324	0.02412
714.88747	0.02403
713.60170	0.02388
712.31593	0.02376
711.03016	0.02370
709.74439	0.02371
708.45862	0.02377
707.17285	0.02384
705.88709	0.02391
704.60132	0.02397
703.31555	0.02402
702.02978	0.02405
700.74401	0.02406
699.45824	0.02407
698.17247	0.02406
696.88670	0.02406
695.60094	0.02408
694.31517	0.02412
693.02940	0.02416
691.74363	0.02419
690.45786	0.02419
689.17209	0.02419
687.88632	0.02418
686.60055	0.02417
685.31478	0.02419
684.02902	0.02424
682.74325	0.02430
681.45748	0.02431
680.17171	0.02427
678.88594	0.02423
677.60017	0.02421
676.31440	0.02420
675.02863	0.02419
673.74287	0.02417
672.45710	0.02418
671.17133	0.02422
669.88556	0.02430
668.59979	0.02435
667.31402	0.02432
666.02825	0.02421
664.74248	0.02407
663.45671	0.02396
662.17095	0.02393
660.88518	0.02398
659.59941	0.02403
658.31364	0.02405
657.02787	0.02403
655.74210	0.02398
654.45633	0.02393
653.17056	0.02388
651.88480	0.02383
650.59903	0.02377
649.31326	0.02373
648.02749	0.02372
646.74172	0.02372
645.45595	0.02370
644.17018	0.02362
642.88441	0.02350
641.59864	0.02337
640.31288	0.02323
639.02711	0.02306
637.74134	0.02288
636.45557	0.02273
635.16980	0.02266
633.88403	0.02259
632.59826	0.02240
631.31249	0.02256
630.02673	0.02526
628.74096	0.02957
627.45519	0.02691
626.16942	0.03200
624.88365	0.04214
623.59788	0.05144
622.31211	0.05767
621.02634	0.05984
619.74057	0.05755
618.45481	0.05165
617.16904	0.04433
615.88327	0.03811
614.59750	0.03481
613.31173	0.03504
612.02596	0.03820
610.74019	0.04300
609.45442	0.04813
608.16866	0.05265
606.88289	0.05616
605.59712	0.05862
604.31135	0.05999
603.02558	0.06000
601.73981	0.05850
600.45404	0.05580
599.16827	0.05262
597.88250	0.04961
596.59674	0.04702
595.31097	0.04483
594.02520	0.04298
592.73943	0.04149
591.45366	0.04041
590.16789	0.03974
588.88212	0.03945
587.59635	0.03948
586.31059	0.03977
585.02482	0.04022
583.73905	0.04082
582.45328	0.04160
581.16751	0.04266
579.88174	0.04396
578.59597	0.04530
577.31020	0.04639
576.02443	0.04715
574.73867	0.04778
573.45290	0.04862
572.16713	0.04985
570.88136	0.05144
569.59559	0.05315
568.30982	0.05475
567.02405	0.05602
565.73828	0.05679
564.45251	0.05698
563.16675	0.05665
561.88098	0.05593
560.59521	0.05495
559.30944	0.05379
558.02367	0.05251
556.73790	0.05124
555.45213	0.05009
554.16636	0.04912
552.88060	0.04830
551.59483	0.04757
550.30906	0.04689
549.02329	0.04617
547.73752	0.04536
546.45175	0.04452
545.16598	0.04373
543.88021	0.04310
542.59444	0.04258
541.30868	0.04204
540.02291	0.04144
538.73714	0.04084
537.45137	0.04035
536.16560	0.04001
534.87983	0.03974
533.59406	0.03942
532.30829	0.03903
531.02253	0.03863
529.73676	0.03829
528.45099	0.03804
527.16522	0.03784
525.87945	0.03762
524.59368	0.03738
523.30791	0.03709
522.02214	0.03678
520.73637	0.03642
519.45061	0.03604
518.16484	0.03568
516.87907	0.03536
515.59330	0.03509
514.30753	0.03482
513.02176	0.03461
511.73599	0.03449
510.45022	0.03439
509.16446	0.03421
507.87869	0.03388
506.59292	0.03350
505.30715	0.03320
504.02138	0.03297
502.73561	0.03271
501.44984	0.03237
500.16407	0.03199
498.87830	0.03166
497.59254	0.03139
496.30677	0.03114
495.02100	0.03086
493.73523	0.03054
492.44946	0.03026
491.16369	0.03010
489.87792	0.03006
488.59215	0.03003
487.30639	0.02993
486.02062	0.02970
484.73485	0.02939
483.44908	0.02903
482.16331	0.02867
480.87754	0.02834
479.59177	0.02805
478.30600	0.02784
477.02023	0.02770
475.73447	0.02764
474.44870	0.02761
473.16293	0.02759
471.87716	0.02757
470.59139	0.02752
469.30562	0.02745
468.01985	0.02740
466.73408	0.02735
465.44832	0.02728
464.16255	0.02710
462.87678	0.02681
461.59101	0.02646
460.30524	0.02611
459.01947	0.02585
457.73370	0.02568
456.44793	0.02555
455.16216	0.02537
453.87640	0.02508
452.59063	0.02472
451.30486	0.02440
450.01909	0.02418
448.73332	0.02402
447.44755	0.02385
446.16178	0.02361
444.87601	0.02336
443.59025	0.02315
442.30448	0.02302
441.01871	0.02293
439.73294	0.02286
438.44717	0.02276
437.16140	0.02265
435.87563	0.02251
434.58986	0.02234
433.30409	0.02214
432.01833	0.02198
430.73256	0.02189
429.44679	0.02186
428.16102	0.02181
426.87525	0.02171
425.58948	0.02157
424.30371	0.02140
423.01794	0.02123
421.73218	0.02105
420.44641	0.02087
419.16064	0.02070
417.87487	0.02059
416.58910	0.02050
415.30333	0.02040
414.01756	0.02027
412.73179	0.02012
411.44602	0.01999
410.16026	0.01989
408.87449	0.01983
407.58872	0.01976
406.30295	0.01964
405.01718	0.01946
403.73141	0.01926
402.44564	0.01907
401.15987	0.01891
399.87411	0.01878
