3997.45528	0.02796
3996.16951	0.02775
3994.88374	0.02739
3993.59798	0.02697
3992.31221	0.02668
3991.02644	0.02661
3989.74067	0.02665
3988.45490	0.02669
3987.16913	0.02678
3985.88336	0.02708
3984.59759	0.02756
3983.31183	0.02788
3982.02606	0.02772
3980.74029	0.02724
3979.45452	0.02695
3978.16875	0.02713
3976.88298	0.02749
3975.59721	0.02748
3974.31144	0.02684
3973.02567	0.02578
3971.73991	0.02474
3970.45414	0.02402
3969.16837	0.02370
3967.88260	0.02362
3966.59683	0.02356
3965.31106	0.02339
3964.02529	0.02310
3962.73952	0.02283
3961.45376	0.02283
3960.16799	0.02334
3958.88222	0.02424
3957.59645	0.02512
3956.31068	0.02562
3955.02491	0.02575
3953.73914	0.02575
3952.45337	0.02582
3951.16760	0.02597
3949.88184	0.02606
3948.59607	0.02600
3947.31030	0.02588
3946.02453	0.02579
3944.73876	0.02576
3943.45299	0.02575
3942.16722	0.02577
3940.88145	0.02584
3939.59569	0.02586
3938.30992	0.02573
3937.02415	0.02548
3935.73838	0.02524
3934.45261	0.02509
3933.16684	0.02502
3931.88107	0.02501
3930.59530	0.02508
3929.30953	0.02523
3928.02377	0.02537
3926.73800	0.02534
3925.45223	0.02503
3924.16646	0.02456
3922.88069	0.02416
3921.59492	0.02397
3920.30915	0.02394
3919.02338	0.02398
3917.73762	0.02404
3916.45185	0.02409
3915.16608	0.02409
3913.88031	0.02406
3912.59454	0.02416
3911.30877	0.02459
3910.02300	0.02531
3908.73723	0.02597
3907.45146	0.02612
3906.16570	0.02556
3904.87993	0.02467
3903.59416	0.02406
3902.30839	0.02399
3901.02262	0.02421
3899.73685	0.02432
3898.45108	0.02428
3897.16531	0.02432
3895.87955	0.02459
3894.59378	0.02492
3893.30801	0.02509
3892.02224	0.02514
3890.73647	0.02543
3889.45070	0.02607
3888.16493	0.02667
3886.87916	0.02684
3885.59339	0.02667
3884.30763	0.02644
3883.02186	0.02619
3881.73609	0.02578
3880.45032	0.02521
3879.16455	0.02467
3877.87878	0.02434
3876.59301	0.02430
3875.30724	0.02458
3874.02148	0.02511
3872.73571	0.02556
3871.44994	0.02559
3870.16417	0.02526
3868.87840	0.02489
3867.59263	0.02459
3866.30686	0.02431
3865.02109	0.02424
3863.73532	0.02460
3862.44956	0.02524
3861.16379	0.02575
3859.87802	0.02588
3858.59225	0.02570
3857.30648	0.02528
3856.02071	0.02453
3854.73494	0.02356
3853.44917	0.02282
3852.16341	0.02266
3850.87764	0.02291
3849.59187	0.02331
3848.30610	0.02377
3847.02033	0.02424
3845.73456	0.02461
3844.44879	0.02483
3843.16302	0.02506
3841.87725	0.02539
3840.59149	0.02560
3839.30572	0.02542
3838.01995	0.02490
3836.73418	0.02451
3835.44841	0.02463
3834.16264	0.02526
3832.87687	0.02598
3831.59110	0.02629
3830.30534	0.02590
3829.01957	0.02504
3827.73380	0.02420
3826.44803	0.02373
3825.16226	0.02344
3823.87649	0.02280
3822.59072	0.02167
3821.30495	0.02067
3820.01918	0.02043
3818.73342	0.02091
3817.44765	0.02168
3816.16188	0.02251
3814.87611	0.02327
3813.59034	0.02367
3812.30457	0.02356
3811.01880	0.02319
3809.73303	0.02281
3808.44726	0.02253
3807.16150	0.02248
3805.87573	0.02275
3804.58996	0.02301
3803.30419	0.02279
3802.01842	0.02214
3800.73265	0.02170
3799.44688	0.02188
3798.16111	0.02248
3796.87535	0.02303
3795.58958	0.02320
3794.30381	0.02293
3793.01804	0.02249
3791.73227	0.02232
3790.44650	0.02267
3789.16073	0.02337
3787.87496	0.02392
3786.58919	0.02393
3785.30343	0.02348
3784.01766	0.02306
3782.73189	0.02311
3781.44612	0.02367
3780.16035	0.02445
3778.87458	0.02503
3777.58881	0.02509
3776.30304	0.02448
3775.01728	0.02345
3773.73151	0.02240
3772.44574	0.02173
3771.15997	0.02170
3769.87420	0.02238
3768.58843	0.02347
3767.30266	0.02443
3766.01689	0.02493
3764.73112	0.02500
3763.44536	0.02491
3762.15959	0.02479
3760.87382	0.02471
3759.58805	0.02475
3758.30228	0.02496
3757.01651	0.02537
3755.73074	0.02567
3754.44497	0.02540
3753.15921	0.02439
3751.87344	0.02305
3750.58767	0.02197
3749.30190	0.02145
3748.01613	0.02129
3746.73036	0.02099
3745.44459	0.02048
3744.15882	0.02030
3742.87305	0.02068
3741.58729	0.02125
3740.30152	0.02168
3739.01575	0.02196
3737.72998	0.02212
3736.44421	0.02220
3735.15844	0.02229
3733.87267	0.02238
3732.58690	0.02247
3731.30114	0.02255
3730.01537	0.02249
3728.72960	0.02210
3727.44383	0.02154
3726.15806	0.02120
3724.87229	0.02135
3723.58652	0.02196
3722.30075	0.02272
3721.01498	0.02322
3719.72922	0.02322
3718.44345	0.02281
3717.15768	0.02233
3715.87191	0.02199
3714.58614	0.02179
3713.30037	0.02171
3712.01460	0.02186
3710.72883	0.02222
3709.44307	0.02250
3708.15730	0.02239
3706.87153	0.02193
3705.58576	0.02141
3704.29999	0.02108
3703.01422	0.02096
3701.72845	0.02097
3700.44268	0.02105
3699.15691	0.02112
3697.87115	0.02117
3696.58538	0.02127
3695.29961	0.02144
3694.01384	0.02165
3692.72807	0.02185
3691.44230	0.02173
3690.15653	0.02088
3688.87076	0.01946
3687.58500	0.01819
3686.29923	0.01764
3685.01346	0.01786
3683.72769	0.01850
3682.44192	0.01917
3681.15615	0.01975
3679.87038	0.02025
3678.58461	0.02052
3677.29884	0.02048
3676.01308	0.02046
3674.72731	0.02093
3673.44154	0.02172
3672.15577	0.02216
3670.87000	0.02202
3669.58423	0.02173
3668.29846	0.02168
3667.01269	0.02183
3665.72693	0.02193
3664.44116	0.02180
3663.15539	0.02146
3661.86962	0.02115
3660.58385	0.02108
3659.29808	0.02125
3658.01231	0.02144
3656.72654	0.02154
3655.44077	0.02161
3654.15501	0.02171
3652.86924	0.02176
3651.58347	0.02167
3650.29770	0.02145
3649.01193	0.02120
3647.72616	0.02103
3646.44039	0.02104
3645.15462	0.02128
3643.86886	0.02163
3642.58309	0.02196
3641.29732	0.02224
3640.01155	0.02255
3638.72578	0.02288
3637.44001	0.02313
3636.15424	0.02328
3634.86847	0.02344
3633.58270	0.02372
3632.29694	0.02398
3631.01117	0.02393
3629.72540	0.02366
3628.43963	0.02364
3627.15386	0.02412
3625.86809	0.02477
3624.58232	0.02514
3623.29655	0.02502
3622.01079	0.02449
3620.72502	0.02385
3619.43925	0.02349
3618.15348	0.02357
3616.86771	0.02379
3615.58194	0.02380
3614.29617	0.02364
3613.01040	0.02369
3611.72463	0.02408
3610.43887	0.02455
3609.15310	0.02484
3607.86733	0.02508
3606.58156	0.02550
3605.29579	0.02607
3604.01002	0.02660
3602.72425	0.02695
3601.43848	0.02712
3600.15272	0.02700
3598.86695	0.02641
3597.58118	0.02540
3596.29541	0.02442
3595.00964	0.02395
3593.72387	0.02412
3592.43810	0.02462
3591.15233	0.02506
3589.86656	0.02532
3588.58080	0.02557
3587.29503	0.02603
3586.00926	0.02651
3584.72349	0.02669
3583.43772	0.02659
3582.15195	0.02653
3580.86618	0.02673
3579.58041	0.02711
3578.29464	0.02750
3577.00888	0.02788
3575.72311	0.02832
3574.43734	0.02874
3573.15157	0.02896
3571.86580	0.02885
3570.58003	0.02850
3569.29426	0.02816
3568.00849	0.02812
3566.72273	0.02841
3565.43696	0.02889
3564.15119	0.02931
3562.86542	0.02954
3561.57965	0.02956
3560.29388	0.02940
3559.00811	0.02922
3557.72234	0.02916
3556.43657	0.02929
3555.15081	0.02953
3553.86504	0.02985
3552.57927	0.03027
3551.29350	0.03075
3550.00773	0.03112
3548.72196	0.03131
3547.43619	0.03144
3546.15042	0.03178
3544.86466	0.03234
3543.57889	0.03291
3542.29312	0.03326
3541.00735	0.03335
3539.72158	0.03328
3538.43581	0.03313
3537.15004	0.03289
3535.86427	0.03259
3534.57850	0.03231
3533.29274	0.03222
3532.00697	0.03251
3530.72120	0.03315
3529.43543	0.03383
3528.14966	0.03421
3526.86389	0.03420
3525.57812	0.03407
3524.29235	0.03412
3523.00659	0.03435
3521.72082	0.03453
3520.43505	0.03451
3519.14928	0.03429
3517.86351	0.03396
3516.57774	0.03365
3515.29197	0.03345
3514.00620	0.03338
3512.72043	0.03344
3511.43467	0.03372
3510.14890	0.03444
3508.86313	0.03553
3507.57736	0.03651
3506.29159	0.03692
3505.00582	0.03680
3503.72005	0.03673
3502.43428	0.03714
3501.14852	0.03788
3499.86275	0.03833
3498.57698	0.03807
3497.29121	0.03727
3496.00544	0.03648
3494.71967	0.03609
3493.43390	0.03609
3492.14813	0.03627
3490.86236	0.03645
3489.57660	0.03658
3488.29083	0.03665
3487.00506	0.03674
3485.71929	0.03696
3484.43352	0.03732
3483.14775	0.03775
3481.86198	0.03821
3480.57621	0.03869
3479.29045	0.03914
3478.00468	0.03944
3476.71891	0.03949
3475.43314	0.03934
3474.14737	0.03914
3472.86160	0.03899
3471.57583	0.03895
3470.29006	0.03906
3469.00429	0.03937
3467.71853	0.03987
3466.43276	0.04053
3465.14699	0.04129
3463.86122	0.04196
3462.57545	0.04233
3461.28968	0.04231
3460.00391	0.04204
3458.71814	0.04166
3457.43238	0.04122
3456.14661	0.04077
3454.86084	0.04046
3453.57507	0.04043
3452.28930	0.04073
3451.00353	0.04123
3449.71776	0.04171
3448.43199	0.04193
3447.14622	0.04184
3445.86046	0.04161
3444.57469	0.04151
3443.28892	0.04165
3442.00315	0.04190
3440.71738	0.04202
3439.43161	0.04191
3438.14584	0.04167
3436.86007	0.04156
3435.57431	0.04174
3434.28854	0.04218
3433.00277	0.04268
3431.71700	0.04302
3430.43123	0.04313
3429.14546	0.04319
3427.85969	0.04333
3426.57392	0.04351
3425.28815	0.04362
3424.00239	0.04369
3422.71662	0.04387
3421.43085	0.04420
3420.14508	0.04447
3418.85931	0.04441
3417.57354	0.04399
3416.28777	0.04349
3415.00200	0.04332
3413.71624	0.04363
3412.43047	0.04423
3411.14470	0.04478
3409.85893	0.04512
3408.57316	0.04532
3407.28739	0.04547
3406.00162	0.04556
3404.71585	0.04551
3403.43008	0.04533
3402.14432	0.04509
3400.85855	0.04495
3399.57278	0.04492
3398.28701	0.04490
3397.00124	0.04493
3395.71547	0.04508
3394.42970	0.04540
3393.14393	0.04585
3391.85817	0.04619
3390.57240	0.04622
3389.28663	0.04604
3388.00086	0.04601
3386.71509	0.04640
3385.42932	0.04709
3384.14355	0.04769
3382.85778	0.04791
3381.57201	0.04778
3380.28625	0.04753
3379.00048	0.04741
3377.71471	0.04748
3376.42894	0.04761
3375.14317	0.04763
3373.85740	0.04746
3372.57163	0.04730
3371.28586	0.04741
3370.00010	0.04783
3368.71433	0.04842
3367.42856	0.04897
3366.14279	0.04942
3364.85702	0.04976
3363.57125	0.04992
3362.28548	0.04983
3360.99971	0.04962
3359.71394	0.04951
3358.42818	0.04973
3357.14241	0.05030
3355.85664	0.05110
3354.57087	0.05181
3353.28510	0.05219
3351.99933	0.05224
3350.71356	0.05220
3349.42779	0.05226
3348.14202	0.05246
3346.85626	0.05280
3345.57049	0.05323
3344.28472	0.05363
3342.99895	0.05382
3341.71318	0.05381
3340.42741	0.05382
3339.14164	0.05407
3337.85587	0.05447
3336.57011	0.05474
3335.28434	0.05471
3333.99857	0.05446
3332.71280	0.05425
3331.42703	0.05422
3330.14126	0.05440
3328.85549	0.05472
3327.56972	0.05517
3326.28395	0.05574
3324.99819	0.05631
3323.71242	0.05672
3322.42665	0.05689
3321.14088	0.05685
3319.85511	0.05672
3318.56934	0.05660
3317.28357	0.05655
3315.99780	0.05664
3314.71204	0.05691
3313.42627	0.05730
3312.14050	0.05766
3310.85473	0.05784
3309.56896	0.05783
3308.28319	0.05781
3306.99742	0.05797
3305.71165	0.05838
3304.42588	0.05892
3303.14012	0.05945
3301.85435	0.05981
3300.56858	0.05991
3299.28281	0.05971
3297.99704	0.05938
3296.71127	0.05912
3295.42550	0.05911
3294.13973	0.05932
3292.85397	0.05958
3291.56820	0.05970
3290.28243	0.05967
3288.99666	0.05967
3287.71089	0.05994
3286.42512	0.06046
3285.13935	0.06092
3283.85358	0.06104
3282.56781	0.06088
3281.28205	0.06068
3279.99628	0.06053
3278.71051	0.06027
3277.42474	0.05982
3276.13897	0.05932
3274.85320	0.05904
3273.56743	0.05906
3272.28166	0.05931
3270.99590	0.05957
3269.71013	0.05969
3268.42436	0.05959
3267.13859	0.05930
3265.85282	0.05887
3264.56705	0.05841
3263.28128	0.05806
3261.99551	0.05796
3260.70974	0.05811
3259.42398	0.05839
3258.13821	0.05862
3256.85244	0.05871
3255.56667	0.05868
3254.28090	0.05867
3252.99513	0.05880
3251.70936	0.05896
3250.42359	0.05881
3249.13783	0.05812
3247.85206	0.05714
3246.56629	0.05633
3245.28052	0.05591
3243.99475	0.05575
3242.70898	0.05568
3241.42321	0.05571
3240.13744	0.05590
3238.85167	0.05615
3237.56591	0.05627
3236.28014	0.05615
3234.99437	0.05585
3233.70860	0.05554
3232.42283	0.05535
3231.13706	0.05527
3229.85129	0.05522
3228.56552	0.05508
3227.27976	0.05486
3225.99399	0.05462
3224.70822	0.05448
3223.42245	0.05452
3222.13668	0.05468
3220.85091	0.05480
3219.56514	0.05476
3218.27937	0.05453
3216.99360	0.05418
3215.70784	0.05381
3214.42207	0.05357
3213.13630	0.05359
3211.85053	0.05389
3210.56476	0.05433
3209.27899	0.05463
3207.99322	0.05460
3206.70745	0.05429
3205.42169	0.05390
3204.13592	0.05360
3202.85015	0.05349
3201.56438	0.05352
3200.27861	0.05360
3198.99284	0.05360
3197.70707	0.05341
3196.42130	0.05302
3195.13553	0.05254
3193.84977	0.05207
3192.56400	0.05174
3191.27823	0.05161
3189.99246	0.05167
3188.70669	0.05185
3187.42092	0.05204
3186.13515	0.05215
3184.84938	0.05215
3183.56362	0.05202
3182.27785	0.05181
3180.99208	0.05156
3179.70631	0.05129
3178.42054	0.05095
3177.13477	0.05050
3175.84900	0.05000
3174.56323	0.04963
3173.27746	0.04954
3171.99170	0.04969
3170.70593	0.04978
3169.42016	0.04957
3168.13439	0.04911
3166.84862	0.04864
3165.56285	0.04835
3164.27708	0.04825
3162.99131	0.04827
3161.70555	0.04836
3160.41978	0.04842
3159.13401	0.04835
3157.84824	0.04813
3156.56247	0.04785
3155.27670	0.04762
3153.99093	0.04741
3152.70516	0.04716
3151.41939	0.04688
3150.13363	0.04668
3148.84786	0.04665
3147.56209	0.04673
3146.27632	0.04677
3144.99055	0.04666
3143.70478	0.04641
3142.41901	0.04612
3141.13324	0.04588
3139.84748	0.04575
3138.56171	0.04573
3137.27594	0.04574
3135.99017	0.04568
3134.70440	0.04546
3133.41863	0.04511
3132.13286	0.04482
3130.84709	0.04480
3129.56132	0.04503
3128.27556	0.04520
3126.98979	0.04502
3125.70402	0.04452
3124.41825	0.04408
3123.13248	0.04396
3121.84671	0.04418
3120.56094	0.04458
3119.27517	0.04498
3117.98940	0.04526
3116.70364	0.04531
3115.41787	0.04512
3114.13210	0.04475
3112.84633	0.04429
3111.56056	0.04381
3110.27479	0.04337
3108.98902	0.04308
3107.70325	0.04298
3106.41749	0.04300
3105.13172	0.04302
3103.84595	0.04301
3102.56018	0.04306
3101.27441	0.04328
3099.98864	0.04359
3098.70287	0.04377
3097.41710	0.04359
3096.13133	0.04319
3094.84557	0.04293
3093.55980	0.04310
3092.27403	0.04359
3090.98826	0.04404
3089.70249	0.04423
3088.41672	0.04421
3087.13095	0.04418
3085.84518	0.04431
3084.55942	0.04459
3083.27365	0.04494
3081.98788	0.04515
3080.70211	0.04512
3079.41634	0.04488
3078.13057	0.04462
3076.84480	0.04450
3075.55903	0.04456
3074.27326	0.04472
3072.98750	0.04486
3071.70173	0.04492
3070.41596	0.04489
3069.13019	0.04480
3067.84442	0.04469
3066.55865	0.04460
3065.27288	0.04456
3063.98711	0.04457
3062.70135	0.04456
3061.41558	0.04450
3060.12981	0.04440
3058.84404	0.04432
3057.55827	0.04433
3056.27250	0.04435
3054.98673	0.04425
3053.70096	0.04394
3052.41519	0.04353
3051.12943	0.04316
3049.84366	0.04293
3048.55789	0.04287
3047.27212	0.04290
3045.98635	0.04298
3044.70058	0.04305
3043.41481	0.04307
3042.12904	0.04296
3040.84328	0.04266
3039.55751	0.04218
3038.27174	0.04173
3036.98597	0.04152
3035.70020	0.04157
3034.41443	0.04169
3033.12866	0.04170
3031.84289	0.04159
3030.55712	0.04142
3029.27136	0.04121
3027.98559	0.04095
3026.69982	0.04063
3025.41405	0.04024
3024.12828	0.03992
3022.84251	0.03982
3021.55674	0.03996
3020.27097	0.04015
3018.98521	0.04015
3017.69944	0.03991
3016.41367	0.03962
3015.12790	0.03945
3013.84213	0.03941
3012.55636	0.03938
3011.27059	0.03924
3009.98482	0.03897
3008.69905	0.03866
3007.41329	0.03844
3006.12752	0.03841
3004.84175	0.03854
3003.55598	0.03868
3002.27021	0.03876
3000.98444	0.03878
2999.69867	0.03874
2998.41290	0.03875
2997.12714	0.03870
2995.84137	0.03858
2994.55560	0.03849
2993.26983	0.03851
2991.98406	0.03869
2990.69829	0.03892
2989.41252	0.03908
2988.12675	0.03917
2986.84098	0.03926
2985.55522	0.03937
2984.26945	0.03951
2982.98368	0.03971
2981.69791	0.04001
2980.41214	0.04039
2979.12637	0.04069
2977.84060	0.04084
2976.55483	0.04092
2975.26907	0.04109
2973.98330	0.04140
2972.69753	0.04171
2971.41176	0.04189
2970.12599	0.04191
2968.84022	0.04188
2967.55445	0.04196
2966.26868	0.04219
2964.98291	0.04254
2963.69715	0.04286
2962.41138	0.04300
2961.12561	0.04295
2959.83984	0.04286
2958.55407	0.04291
2957.26830	0.04308
2955.98253	0.04313
2954.69676	0.04292
2953.41100	0.04257
2952.12523	0.04236
2950.83946	0.04242
2949.55369	0.04259
2948.26792	0.04263
2946.98215	0.04254
2945.69638	0.04254
2944.41061	0.04280
2943.12484	0.04323
2941.83908	0.04362
2940.55331	0.04390
2939.26754	0.04411
2937.98177	0.04425
2936.69600	0.04428
2935.41023	0.04417
2934.12446	0.04399
2932.83869	0.04387
2931.55293	0.04385
2930.26716	0.04395
2928.98139	0.04413
2927.69562	0.04431
2926.40985	0.04446
2925.12408	0.04456
2923.83831	0.04459
2922.55254	0.04455
2921.26677	0.04443
2919.98101	0.04428
2918.69524	0.04416
2917.40947	0.04404
2916.12370	0.04383
2914.83793	0.04344
2913.55216	0.04295
2912.26639	0.04248
2910.98062	0.04217
2909.69486	0.04204
2908.40909	0.04201
2907.12332	0.04196
2905.83755	0.04179
2904.55178	0.04145
2903.26601	0.04094
2901.98024	0.04036
2900.69447	0.03983
2899.40870	0.03950
2898.12294	0.03945
2896.83717	0.03964
2895.55140	0.03992
2894.26563	0.04014
2892.97986	0.04019
2891.69409	0.04013
2890.40832	0.04008
2889.12255	0.04014
2887.83678	0.04027
2886.55102	0.04030
2885.26525	0.04007
2883.97948	0.03967
2882.69371	0.03931
2881.40794	0.03912
2880.12217	0.03906
2878.83640	0.03903
2877.55063	0.03902
2876.26487	0.03910
2874.97910	0.03926
2873.69333	0.03946
2872.40756	0.03965
2871.12179	0.03976
2869.83602	0.03975
2868.55025	0.03964
2867.26448	0.03950
2865.97871	0.03938
2864.69295	0.03921
2863.40718	0.03890
2862.12141	0.03847
2860.83564	0.03807
2859.54987	0.03784
2858.26410	0.03780
2856.97833	0.03783
2855.69256	0.03780
2854.40680	0.03769
2853.12103	0.03756
2851.83526	0.03754
2850.54949	0.03766
2849.26372	0.03789
2847.97795	0.03805
2846.69218	0.03800
2845.40641	0.03771
2844.12064	0.03728
2842.83488	0.03681
2841.54911	0.03642
2840.26334	0.03617
2838.97757	0.03603
2837.69180	0.03592
2836.40603	0.03574
2835.12026	0.03546
2833.83449	0.03513
2832.54873	0.03488
2831.26296	0.03476
2829.97719	0.03474
2828.69142	0.03474
2827.40565	0.03472
2826.11988	0.03467
2824.83411	0.03461
2823.54834	0.03446
2822.26257	0.03416
2820.97681	0.03373
2819.69104	0.03330
2818.40527	0.03311
2817.11950	0.03324
2815.83373	0.03359
2814.54796	0.03391
2813.26219	0.03397
2811.97642	0.03377
2810.69066	0.03347
2809.40489	0.03328
2808.11912	0.03333
2806.83335	0.03356
2805.54758	0.03377
2804.26181	0.03381
2802.97604	0.03363
2801.69027	0.03329
2800.40450	0.03294
2799.11874	0.03275
2797.83297	0.03280
2796.54720	0.03298
2795.26143	0.03310
2793.97566	0.03309
2792.68989	0.03299
2791.40412	0.03292
2790.11835	0.03287
2788.83259	0.03285
2787.54682	0.03284
2786.26105	0.03287
2784.97528	0.03291
2783.68951	0.03291
2782.40374	0.03282
2781.11797	0.03262
2779.83220	0.03232
2778.54643	0.03202
2777.26067	0.03181
2775.97490	0.03173
2774.68913	0.03178
2773.40336	0.03192
2772.11759	0.03207
2770.83182	0.03214
2769.54605	0.03206
2768.26028	0.03188
2766.97452	0.03172
2765.68875	0.03165
2764.40298	0.03164
2763.11721	0.03159
2761.83144	0.03146
2760.54567	0.03129
2759.25990	0.03117
2757.97413	0.03109
2756.68836	0.03104
2755.40260	0.03103
2754.11683	0.03105
2752.83106	0.03109
2751.54529	0.03108
2750.25952	0.03103
2748.97375	0.03099
2747.68798	0.03105
2746.40221	0.03123
2745.11645	0.03143
2743.83068	0.03147
2742.54491	0.03126
2741.25914	0.03087
2739.97337	0.03045
2738.68760	0.03016
2737.40183	0.03005
2736.11606	0.03010
2734.83029	0.03017
2733.54453	0.03015
2732.25876	0.03000
2730.97299	0.02982
2729.68722	0.02975
2728.40145	0.02982
2727.11568	0.03003
2725.82991	0.03031
2724.54414	0.03058
2723.25838	0.03075
2721.97261	0.03078
2720.68684	0.03068
2719.40107	0.03048
2718.11530	0.03015
2716.82953	0.02972
2715.54376	0.02930
2714.25799	0.02903
2712.97222	0.02896
2711.68646	0.02901
2710.40069	0.02902
2709.11492	0.02890
2707.82915	0.02867
2706.54338	0.02848
2705.25761	0.02846
2703.97184	0.02858
2702.68607	0.02872
2701.40031	0.02879
2700.11454	0.02877
2698.82877	0.02872
2697.54300	0.02867
2696.25723	0.02865
2694.97146	0.02864
2693.68569	0.02857
2692.39992	0.02837
2691.11415	0.02817
2689.82839	0.02813
2688.54262	0.02827
2687.25685	0.02837
2685.97108	0.02826
2684.68531	0.02802
2683.39954	0.02791
2682.11377	0.02797
2680.82800	0.02802
2679.54224	0.02797
2678.25647	0.02788
2676.97070	0.02787
2675.68493	0.02792
2674.39916	0.02795
2673.11339	0.02797
2671.82762	0.02802
2670.54185	0.02807
2669.25608	0.02810
2667.97032	0.02814
2666.68455	0.02823
2665.39878	0.02834
2664.11301	0.02840
2662.82724	0.02839
2661.54147	0.02838
2660.25570	0.02840
2658.96993	0.02845
2657.68417	0.02846
2656.39840	0.02843
2655.11263	0.02843
2653.82686	0.02850
2652.54109	0.02857
2651.25532	0.02849
2649.96955	0.02824
2648.68378	0.02793
2647.39801	0.02773
2646.11225	0.02766
2644.82648	0.02762
2643.54071	0.02747
2642.25494	0.02720
2640.96917	0.02693
2639.68340	0.02674
2638.39763	0.02659
2637.11186	0.02646
2635.82609	0.02636
2634.54033	0.02637
2633.25456	0.02650
2631.96879	0.02670
2630.68302	0.02686
2629.39725	0.02687
2628.11148	0.02670
2626.82571	0.02646
2625.53994	0.02628
2624.25418	0.02621
2622.96841	0.02619
2621.68264	0.02617
2620.39687	0.02616
2619.11110	0.02615
2617.82533	0.02613
2616.53956	0.02610
2615.25379	0.02612
2613.96802	0.02615
2612.68226	0.02601
2611.39649	0.02557
2610.11072	0.02498
2608.82495	0.02455
2607.53918	0.02444
2606.25341	0.02453
2604.96764	0.02461
2603.68187	0.02462
2602.39611	0.02457
2601.11034	0.02449
2599.82457	0.02444
2598.53880	0.02449
2597.25303	0.02462
2595.96726	0.02469
2594.68149	0.02450
2593.39572	0.02402
2592.10995	0.02344
2590.82419	0.02304
2589.53842	0.02301
2588.25265	0.02332
2586.96688	0.02374
2585.68111	0.02398
2584.39534	0.02390
2583.10957	0.02356
2581.82380	0.02315
2580.53804	0.02286
2579.25227	0.02276
2577.96650	0.02279
2576.68073	0.02280
2575.39496	0.02268
2574.10919	0.02244
2572.82342	0.02221
2571.53765	0.02209
2570.25188	0.02207
2568.96612	0.02203
2567.68035	0.02200
2566.39458	0.02208
2565.10881	0.02227
2563.82304	0.02243
2562.53727	0.02242
2561.25150	0.02222
2559.96573	0.02191
2558.67997	0.02152
2557.39420	0.02116
2556.10843	0.02098
2554.82266	0.02111
2553.53689	0.02148
2552.25112	0.02181
2550.96535	0.02190
2549.67958	0.02176
2548.39381	0.02151
2547.10805	0.02124
2545.82228	0.02102
2544.53651	0.02094
2543.25074	0.02115
2541.96497	0.02165
2540.67920	0.02220
2539.39343	0.02245
2538.10766	0.02224
2536.82190	0.02175
2535.53613	0.02134
2534.25036	0.02119
2532.96459	0.02126
2531.67882	0.02140
2530.39305	0.02152
2529.10728	0.02155
2527.82151	0.02146
2526.53574	0.02140
2525.24998	0.02158
2523.96421	0.02197
2522.67844	0.02224
2521.39267	0.02212
2520.10690	0.02159
2518.82113	0.02093
2517.53536	0.02041
2516.24959	0.02020
2514.96383	0.02026
2513.67806	0.02047
2512.39229	0.02072
2511.10652	0.02096
2509.82075	0.02118
2508.53498	0.02134
2507.24921	0.02147
2505.96344	0.02157
2504.67767	0.02156
2503.39191	0.02135
2502.10614	0.02105
2500.82037	0.02081
2499.53460	0.02068
2498.24883	0.02052
2496.96306	0.02034
2495.67729	0.02028
2494.39152	0.02039
2493.10576	0.02053
2491.81999	0.02054
2490.53422	0.02045
2489.24845	0.02038
2487.96268	0.02032
2486.67691	0.02015
2485.39114	0.01977
2484.10537	0.01926
2482.81960	0.01881
2481.53384	0.01859
2480.24807	0.01868
2478.96230	0.01899
2477.67653	0.01942
2476.39076	0.01989
2475.10499	0.02033
2473.81922	0.02070
2472.53345	0.02093
2471.24769	0.02092
2469.96192	0.02067
2468.67615	0.02024
2467.39038	0.01987
2466.10461	0.01974
2464.81884	0.01988
2463.53307	0.02015
2462.24730	0.02036
2460.96153	0.02044
2459.67577	0.02045
2458.39000	0.02047
2457.10423	0.02050
2455.81846	0.02045
2454.53269	0.02023
2453.24692	0.01987
2451.96115	0.01959
2450.67538	0.01959
2449.38962	0.01981
2448.10385	0.02000
2446.81808	0.01999
2445.53231	0.01982
2444.24654	0.01959
2442.96077	0.01940
2441.67500	0.01924
2440.38923	0.01912
2439.10346	0.01904
2437.81770	0.01908
2436.53193	0.01925
2435.24616	0.01944
2433.96039	0.01948
2432.67462	0.01936
2431.38885	0.01922
2430.10308	0.01915
2428.81731	0.01910
2427.53155	0.01901
2426.24578	0.01893
2424.96001	0.01899
2423.67424	0.01918
2422.38847	0.01936
2421.10270	0.01940
2419.81693	0.01933
2418.53116	0.01925
2417.24539	0.01920
2415.95963	0.01917
2414.67386	0.01920
2413.38809	0.01934
2412.10232	0.01955
2410.81655	0.01973
2409.53078	0.01985
2408.24501	0.01992
2406.95924	0.01989
2405.67347	0.01967
2404.38771	0.01926
2403.10194	0.01885
2401.81617	0.01867
2400.53040	0.01874
2399.24463	0.01892
2397.95886	0.01887
2396.67309	0.01874
2395.38732	0.01865
2394.10156	0.01870
2392.81579	0.01892
2391.53002	0.01926
2390.24425	0.01957
2388.95848	0.01969
2387.67271	0.01953
2386.38694	0.01915
2385.10117	0.01879
2383.81540	0.01869
2382.52964	0.01892
2381.24387	0.01931
2379.95810	0.01957
2378.67233	0.01954
2377.38656	0.01930
2376.10079	0.01907
2374.81502	0.01894
2373.52925	0.01891
2372.24349	0.01887
2370.95772	0.01878
2369.67195	0.01863
2368.38618	0.01858
2367.10041	0.01877
2365.81464	0.01918
2364.52887	0.01958
2363.24310	0.01988
2361.95733	0.02012
2360.67157	0.02037
2359.38580	0.02041
2358.10003	0.02017
2356.81426	0.01980
2355.52849	0.01953
2354.24272	0.01943
2352.95695	0.01952
2351.67118	0.01981
2350.38542	0.02002
2349.09965	0.01991
2347.81388	0.01964
2346.52811	0.01979
2345.24234	0.02015
2343.95657	0.02005
2342.67080	0.01959
2341.38503	0.01977
2340.09926	0.02049
2338.81350	0.02024
2337.52773	0.01909
2336.24196	0.01904
2334.95619	0.01990
2333.67042	0.01974
2332.38465	0.01901
2331.09888	0.01962
2329.81311	0.02043
2328.52735	0.02024
2327.24158	0.02093
2325.95581	0.02208
2324.67004	0.02208
2323.38427	0.02202
2322.09850	0.02224
2320.81273	0.02162
2319.52696	0.02119
2318.24119	0.02104
2316.95543	0.02048
2315.66966	0.02022
2314.38389	0.02024
2313.09812	0.02014
2311.81235	0.02021
2310.52658	0.02006
2309.24081	0.01969
2307.95504	0.01938
2306.66928	0.01911
2305.38351	0.01907
2304.09774	0.01916
2302.81197	0.01926
2301.52620	0.01939
2300.24043	0.01941
2298.95466	0.01930
2297.66889	0.01905
2296.38312	0.01877
2295.09736	0.01859
2293.81159	0.01851
2292.52582	0.01849
2291.24005	0.01844
2289.95428	0.01840
2288.66851	0.01839
2287.38274	0.01841
2286.09697	0.01848
2284.81121	0.01865
2283.52544	0.01891
2282.23967	0.01912
2280.95390	0.01909
2279.66813	0.01872
2278.38236	0.01816
2277.09659	0.01766
2275.81082	0.01731
2274.52505	0.01700
2273.23929	0.01669
2271.95352	0.01660
2270.66775	0.01692
2269.38198	0.01756
2268.09621	0.01822
2266.81044	0.01869
2265.52467	0.01880
2264.23890	0.01842
2262.95314	0.01751
2261.66737	0.01632
2260.38160	0.01527
2259.09583	0.01476
2257.81006	0.01490
2256.52429	0.01530
2255.23852	0.01536
2253.95275	0.01478
2252.66698	0.01379
2251.38122	0.01296
2250.09545	0.01275
2248.80968	0.01320
2247.52391	0.01345
2246.23814	0.01333
2244.95237	0.01294
2243.66660	0.01259
2242.38083	0.01266
2241.09507	0.01338
2239.80930	0.01460
2238.52353	0.01576
2237.23776	0.01626
2235.95199	0.01594
2234.66622	0.01516
2233.38045	0.01443
2232.09468	0.01411
2230.80891	0.01424
2229.52315	0.01458
2228.23738	0.01470
2226.95161	0.01430
2225.66584	0.01345
2224.38007	0.01255
2223.09430	0.01208
2221.80853	0.01228
2220.52276	0.01309
2219.23700	0.01419
2217.95123	0.01517
2216.66546	0.01576
2215.37969	0.01596
2214.09392	0.01590
2212.80815	0.01570
2211.52238	0.01523
2210.23661	0.01434
2208.95084	0.01318
2207.66508	0.01227
2206.37931	0.01189
2205.09354	0.01178
2203.80777	0.01155
2202.52200	0.01123
2201.23623	0.01111
2199.95046	0.01107
2198.66469	0.01079
2197.37893	0.01031
2196.09316	0.01013
2194.80739	0.01061
2193.52162	0.01170
2192.23585	0.01313
2190.95008	0.01447
2189.66431	0.01495
2188.37854	0.01411
2187.09277	0.01254
2185.80701	0.01148
2184.52124	0.01141
2183.23547	0.01161
2181.94970	0.01124
2180.66393	0.01031
2179.37816	0.00934
2178.09239	0.00857
2176.80662	0.00797
2175.52085	0.00760
2174.23509	0.00763
2172.94932	0.00827
2171.66355	0.00958
2170.37778	0.01130
2169.09201	0.01284
2167.80624	0.01360
2166.52047	0.01331
2165.23470	0.01222
2163.94894	0.01085
2162.66317	0.00957
2161.37740	0.00831
2160.09163	0.00677
2158.80586	0.00518
2157.52009	0.00425
2156.23432	0.00446
2154.94855	0.00552
2153.66278	0.00686
2152.37702	0.00819
2151.09125	0.00950
2149.80548	0.01084
2148.51971	0.01195
2147.23394	0.01226
2145.94817	0.01148
2144.66240	0.01016
2143.37663	0.00925
2142.09087	0.00909
2140.80510	0.00926
2139.51933	0.00937
2138.23356	0.00946
2136.94779	0.00965
2135.66202	0.00979
2134.37625	0.00971
2133.09048	0.00954
2131.80471	0.00947
2130.51895	0.00956
2129.23318	0.00976
2127.94741	0.01010
2126.66164	0.01063
2125.37587	0.01127
2124.09010	0.01185
2122.80433	0.01232
2121.51856	0.01287
2120.23280	0.01356
2118.94703	0.01407
2117.66126	0.01399
2116.37549	0.01338
2115.08972	0.01278
2113.80395	0.01257
2112.51818	0.01260
2111.23241	0.01243
2109.94664	0.01187
2108.66088	0.01125
2107.37511	0.01120
2106.08934	0.01201
2104.80357	0.01328
2103.51780	0.01426
2102.23203	0.01453
2100.94626	0.01413
2099.66049	0.01265
2098.37473	0.01161
2097.08896	0.01125
2095.80319	0.01142
2094.51742	0.01187
2093.23165	0.01220
2091.94588	0.01216
2090.66011	0.01183
2089.37434	0.01147
2088.08857	0.01132
2086.80281	0.01138
2085.51704	0.01153
2084.23127	0.01159
2082.94550	0.01153
2081.65973	0.01145
2080.37396	0.01155
2079.08819	0.01190
2077.80242	0.01230
2076.51666	0.01239
2075.23089	0.01196
2073.94512	0.01122
2072.65935	0.01061
2071.37358	0.01037
2070.08781	0.01045
2068.80204	0.01065
2067.51627	0.01079
2066.23050	0.01071
2064.94474	0.01028
2063.65897	0.00967
2062.37320	0.00935
2061.08743	0.00971
2059.80166	0.01064
2058.51589	0.01156
2057.23012	0.01197
2055.94435	0.01198
2054.65859	0.01213
2053.37282	0.01281
2052.08705	0.01370
2050.80128	0.01408
2049.51551	0.01342
2048.22974	0.01186
2046.94397	0.01012
2045.65820	0.00894
2044.37243	0.00858
2043.08667	0.00873
2041.80090	0.00886
2040.51513	0.00869
2039.22936	0.00822
2037.94359	0.00758
2036.65782	0.00697
2035.37205	0.00673
2034.08628	0.00716
2032.80052	0.00799
2031.51475	0.00843
2030.22898	0.00784
2028.94321	0.00643
2027.65744	0.00505
2026.37167	0.00432
2025.08590	0.00410
2023.80013	0.00397
2022.51436	0.00382
2021.22860	0.00392
2019.94283	0.00444
2018.65706	0.00523
2017.37129	0.00605
2016.08552	0.00676
2014.79975	0.00721
2013.51398	0.00729
2012.22821	0.00706
2010.94245	0.00667
2009.65668	0.00632
2008.37091	0.00615
2007.08514	0.00631
2005.79937	0.00677
2004.51360	0.00734
2003.22783	0.00789
2001.94206	0.00841
2000.65629	0.00886
1999.37053	0.00903
1998.08476	0.00879
1996.79899	0.00836
1995.51322	0.00821
1994.22745	0.00858
1992.94168	0.00931
1991.65591	0.00993
1990.37014	0.01014
1989.08438	0.01004
1987.79861	0.00991
1986.51284	0.00984
1985.22707	0.00959
1983.94130	0.00893
1982.65553	0.00788
1981.36976	0.00669
1980.08399	0.00572
1978.79822	0.00523
1977.51246	0.00531
1976.22669	0.00576
1974.94092	0.00618
1973.65515	0.00633
1972.36938	0.00625
1971.08361	0.00621
1969.79784	0.00646
1968.51207	0.00693
1967.22631	0.00737
1965.94054	0.00747
1964.65477	0.00714
1963.36900	0.00655
1962.08323	0.00605
1960.79746	0.00600
1959.51169	0.00649
1958.22592	0.00725
1956.94015	0.00791
1955.65439	0.00831
1954.36862	0.00852
1953.08285	0.00864
1951.79708	0.00870
1950.51131	0.00861
1949.22554	0.00826
1947.93977	0.00766
1946.65400	0.00700
1945.36823	0.00658
1944.08247	0.00663
1942.79670	0.00721
1941.51093	0.00810
1940.22516	0.00889
1938.93939	0.00925
1937.65362	0.00911
1936.36785	0.00871
1935.08208	0.00842
1933.79632	0.00844
1932.51055	0.00874
1931.22478	0.00909
1929.93901	0.00929
1928.65324	0.00925
1927.36747	0.00902
1926.08170	0.00872
1924.79593	0.00844
1923.51016	0.00822
1922.22440	0.00806
1920.93863	0.00797
1919.65286	0.00800
1918.36709	0.00820
1917.08132	0.00852
1915.79555	0.00886
1914.50978	0.00916
1913.22401	0.00950
1911.93825	0.00985
1910.65248	0.01010
1909.36671	0.01012
1908.08094	0.00990
1906.79517	0.00958
1905.50940	0.00932
1904.22363	0.00921
1902.93786	0.00926
1901.65209	0.00939
1900.36633	0.00949
1899.08056	0.00954
1897.79479	0.00958
1896.50902	0.00967
1895.22325	0.00982
1893.93748	0.00995
1892.65171	0.00996
1891.36594	0.00984
1890.08018	0.00960
1888.79441	0.00935
1887.50864	0.00915
1886.22287	0.00908
1884.93710	0.00913
1883.65133	0.00926
1882.36556	0.00936
1881.07979	0.00941
1879.79402	0.00946
1878.50826	0.00959
1877.22249	0.00980
1875.93672	0.01005
1874.65095	0.01023
1873.36518	0.01027
1872.07941	0.01011
1870.79364	0.00980
1869.50787	0.00947
1868.22211	0.00928
1866.93634	0.00935
1865.65057	0.00961
1864.36480	0.00986
1863.07903	0.00994
1861.79326	0.00983
1860.50749	0.00963
1859.22172	0.00946
1857.93595	0.00938
1856.65019	0.00934
1855.36442	0.00933
1854.07865	0.00941
1852.79288	0.00962
1851.50711	0.00988
1850.22134	0.01003
1848.93557	0.00998
1847.64980	0.00977
1846.36404	0.00951
1845.07827	0.00931
1843.79250	0.00927
1842.50673	0.00936
1841.22096	0.00942
1839.93519	0.00935
1838.64942	0.00924
1837.36365	0.00922
1836.07788	0.00934
1834.79212	0.00955
1833.50635	0.00977
1832.22058	0.00997
1830.93481	0.01007
1829.64904	0.01001
1828.36327	0.00979
1827.07750	0.00949
1825.79173	0.00922
1824.50597	0.00905
1823.22020	0.00896
1821.93443	0.00886
1820.64866	0.00872
1819.36289	0.00855
1818.07712	0.00844
1816.79135	0.00850
1815.50558	0.00881
1814.21981	0.00931
1812.93405	0.00981
1811.64828	0.01015
1810.36251	0.01028
1809.07674	0.01025
1807.79097	0.01017
1806.50520	0.01011
1805.21943	0.01008
1803.93366	0.01000
1802.64790	0.00986
1801.36213	0.00971
1800.07636	0.00963
1798.79059	0.00967
1797.50482	0.00983
1796.21905	0.01002
1794.93328	0.01010
1793.64751	0.01000
1792.36174	0.00981
1791.07598	0.00970
1789.79021	0.00973
1788.50444	0.00982
1787.21867	0.00986
1785.93290	0.00984
1784.64713	0.00978
1783.36136	0.00973
1782.07559	0.00968
1780.78983	0.00965
1779.50406	0.00969
1778.21829	0.00974
1776.93252	0.00976
1775.64675	0.00971
1774.36098	0.00961
1773.07521	0.00954
1771.78944	0.00956
1770.50367	0.00965
1769.21791	0.00971
1767.93214	0.00972
1766.64637	0.00973
1765.36060	0.00979
1764.07483	0.00988
1762.78906	0.00996
1761.50329	0.01003
1760.21752	0.01008
1758.93176	0.01004
1757.64599	0.00995
1756.36022	0.00988
1755.07445	0.00985
1753.78868	0.00981
1752.50291	0.00973
1751.21714	0.00972
1749.93137	0.00987
1748.64560	0.01014
1747.35984	0.01041
1746.07407	0.01058
1744.78830	0.01066
1743.50253	0.01070
1742.21676	0.01075
1740.93099	0.01083
1739.64522	0.01100
1738.35945	0.01125
1737.07369	0.01142
1735.78792	0.01134
1734.50215	0.01111
1733.21638	0.01097
1731.93061	0.01105
1730.64484	0.01126
1729.35907	0.01151
1728.07330	0.01176
1726.78753	0.01200
1725.50177	0.01219
1724.21600	0.01231
1722.93023	0.01240
1721.64446	0.01248
1720.35869	0.01253
1719.07292	0.01250
1717.78715	0.01250
1716.50138	0.01264
1715.21561	0.01293
1713.92985	0.01328
1712.64408	0.01364
1711.35831	0.01403
1710.07254	0.01450
1708.78677	0.01503
1707.50100	0.01560
1706.21523	0.01620
1704.92946	0.01684
1703.64370	0.01747
1702.35793	0.01805
1701.07216	0.01866
1699.78639	0.01953
1698.50062	0.02055
1697.21485	0.02151
1695.92908	0.02241
1694.64331	0.02347
1693.35754	0.02468
1692.07178	0.02583
1690.78601	0.02689
1689.50024	0.02794
1688.21447	0.02898
1686.92870	0.02992
1685.64293	0.03075
1684.35716	0.03169
1683.07139	0.03288
1681.78563	0.03422
1680.49986	0.03557
1679.21409	0.03691
1677.92832	0.03823
1676.64255	0.03951
1675.35678	0.04079
1674.07101	0.04213
1672.78524	0.04344
1671.49947	0.04465
1670.21371	0.04583
1668.92794	0.04712
1667.64217	0.04855
1666.35640	0.05001
1665.07063	0.05138
1663.78486	0.05268
1662.49909	0.05398
1661.21332	0.05530
1659.92756	0.05657
1658.64179	0.05773
1657.35602	0.05873
1656.07025	0.05948
1654.78448	0.05993
1653.49871	0.06032
1652.21294	0.06100
1650.92717	0.06196
1649.64140	0.06286
1648.35564	0.06346
1647.06987	0.06384
1645.78410	0.06420
1644.49833	0.06462
1643.21256	0.06506
1641.92679	0.06544
1640.64102	0.06579
1639.35525	0.06607
1638.06949	0.06621
1636.78372	0.06616
1635.49795	0.06607
1634.21218	0.06612
1632.92641	0.06624
1631.64064	0.06629
1630.35487	0.06613
1629.06910	0.06576
1627.78333	0.06523
1626.49757	0.06458
1625.21180	0.06380
1623.92603	0.06293
1622.64026	0.06205
1621.35449	0.06114
1620.06872	0.06008
1618.78295	0.05876
1617.49718	0.05727
1616.21142	0.05583
1614.92565	0.05456
1613.63988	0.05339
1612.35411	0.05223
1611.06834	0.05105
1609.78257	0.04985
1608.49680	0.04862
1607.21103	0.04740
1605.92526	0.04623
1604.63950	0.04514
1603.35373	0.04416
1602.06796	0.04324
1600.78219	0.04237
1599.49642	0.04156
1598.21065	0.04082
1596.92488	0.04016
1595.63911	0.03956
1594.35335	0.03900
1593.06758	0.03845
1591.78181	0.03794
1590.49604	0.03752
1589.21027	0.03724
1587.92450	0.03709
1586.63873	0.03703
1585.35296	0.03701
1584.06719	0.03699
1582.78143	0.03702
1581.49566	0.03713
1580.20989	0.03729
1578.92412	0.03742
1577.63835	0.03747
1576.35258	0.03760
1575.06681	0.03799
1573.78104	0.03859
1572.49528	0.03920
1571.20951	0.03975
1569.92374	0.04030
1568.63797	0.04094
1567.35220	0.04164
1566.06643	0.04237
1564.78066	0.04317
1563.49489	0.04401
1562.20912	0.04474
1560.92336	0.04527
1559.63759	0.04575
1558.35182	0.04646
1557.06605	0.04742
1555.78028	0.04842
1554.49451	0.04936
1553.20874	0.05023
1551.92297	0.05101
1550.63721	0.05165
1549.35144	0.05217
1548.06567	0.05265
1546.77990	0.05311
1545.49413	0.05355
1544.20836	0.05396
1542.92259	0.05426
1541.63682	0.05439
1540.35105	0.05446
1539.06529	0.05466
1537.77952	0.05504
1536.49375	0.05540
1535.20798	0.05557
1533.92221	0.05558
1532.63644	0.05553
1531.35067	0.05548
1530.06490	0.05540
1528.77914	0.05527
1527.49337	0.05512
1526.20760	0.05498
1524.92183	0.05485
1523.63606	0.05465
1522.35029	0.05439
1521.06452	0.05414
1519.77875	0.05394
1518.49298	0.05373
1517.20722	0.05345
1515.92145	0.05314
1514.63568	0.05278
1513.34991	0.05233
1512.06414	0.05178
1510.77837	0.05114
1509.49260	0.05035
1508.20683	0.04939
1506.92107	0.04842
1505.63530	0.04763
1504.34953	0.04703
1503.06376	0.04640
1501.77799	0.04562
1500.49222	0.04469
1499.20645	0.04366
1497.92068	0.04264
1496.63491	0.04169
1495.34915	0.04087
1494.06338	0.04010
1492.77761	0.03927
1491.49184	0.03836
1490.20607	0.03749
1488.92030	0.03674
1487.63453	0.03609
1486.34876	0.03548
1485.06299	0.03489
1483.77723	0.03432
1482.49146	0.03384
1481.20569	0.03351
1479.91992	0.03336
1478.63415	0.03334
1477.34838	0.03339
1476.06261	0.03345
1474.77684	0.03349
1473.49108	0.03355
1472.20531	0.03376
1470.91954	0.03417
1469.63377	0.03469
1468.34800	0.03514
1467.06223	0.03543
1465.77646	0.03562
1464.49069	0.03585
1463.20492	0.03621
1461.91916	0.03664
1460.63339	0.03701
1459.34762	0.03725
1458.06185	0.03738
1456.77608	0.03757
1455.49031	0.03791
1454.20454	0.03833
1452.91877	0.03866
1451.63301	0.03884
1450.34724	0.03888
1449.06147	0.03883
1447.77570	0.03875
1446.48993	0.03867
1445.20416	0.03856
1443.91839	0.03840
1442.63262	0.03822
1441.34685	0.03806
1440.06109	0.03786
1438.77532	0.03758
1437.48955	0.03723
1436.20378	0.03693
1434.91801	0.03672
1433.63224	0.03652
1432.34647	0.03622
1431.06070	0.03585
1429.77494	0.03551
1428.48917	0.03527
1427.20340	0.03512
1425.91763	0.03503
1424.63186	0.03498
1423.34609	0.03496
1422.06032	0.03490
1420.77455	0.03480
1419.48878	0.03470
1418.20302	0.03469
1416.91725	0.03474
1415.63148	0.03477
1414.34571	0.03476
1413.05994	0.03475
1411.77417	0.03478
1410.48840	0.03489
1409.20263	0.03507
1407.91687	0.03525
1406.63110	0.03535
1405.34533	0.03537
1404.05956	0.03534
1402.77379	0.03529
1401.48802	0.03523
1400.20225	0.03516
1398.91648	0.03512
1397.63071	0.03512
1396.34495	0.03513
1395.05918	0.03515
1393.77341	0.03518
1392.48764	0.03520
1391.20187	0.03516
1389.91610	0.03504
1388.63033	0.03487
1387.34456	0.03472
1386.05880	0.03462
1384.77303	0.03458
1383.48726	0.03456
1382.20149	0.03453
1380.91572	0.03447
1379.62995	0.03437
1378.34418	0.03423
1377.05841	0.03403
1375.77264	0.03377
1374.48688	0.03346
1373.20111	0.03317
1371.91534	0.03290
1370.62957	0.03265
1369.34380	0.03239
1368.05803	0.03213
1366.77226	0.03186
1365.48649	0.03157
1364.20073	0.03125
1362.91496	0.03090
1361.62919	0.03059
1360.34342	0.03036
1359.05765	0.03021
1357.77188	0.03009
1356.48611	0.02996
1355.20034	0.02986
1353.91457	0.02984
1352.62881	0.02992
1351.34304	0.03009
1350.05727	0.03028
1348.77150	0.03044
1347.48573	0.03057
1346.19996	0.03067
1344.91419	0.03079
1343.62842	0.03094
1342.34266	0.03110
1341.05689	0.03124
1339.77112	0.03134
1338.48535	0.03140
1337.19958	0.03144
1335.91381	0.03144
1334.62804	0.03140
1333.34227	0.03133
1332.05650	0.03123
1330.77074	0.03111
1329.48497	0.03098
1328.19920	0.03083
1326.91343	0.03067
1325.62766	0.03053
1324.34189	0.03042
1323.05612	0.03033
1321.77035	0.03028
1320.48459	0.03027
1319.19882	0.03030
1317.91305	0.03034
1316.62728	0.03035
1315.34151	0.03030
1314.05574	0.03017
1312.76997	0.03000
1311.48420	0.02983
1310.19843	0.02969
1308.91267	0.02958
1307.62690	0.02948
1306.34113	0.02939
1305.05536	0.02929
1303.76959	0.02921
1302.48382	0.02918
1301.19805	0.02919
1299.91228	0.02921
1298.62652	0.02920
1297.34075	0.02917
1296.05498	0.02916
1294.76921	0.02920
1293.48344	0.02929
1292.19767	0.02942
1290.91190	0.02956
1289.62613	0.02971
1288.34036	0.02983
1287.05460	0.02994
1285.76883	0.03004
1284.48306	0.03014
1283.19729	0.03025
1281.91152	0.03037
1280.62575	0.03050
1279.33998	0.03063
1278.05421	0.03074
1276.76845	0.03083
1275.48268	0.03092
1274.19691	0.03102
1272.91114	0.03113
1271.62537	0.03120
1270.33960	0.03126
1269.05383	0.03132
1267.76806	0.03141
1266.48229	0.03154
1265.19653	0.03167
1263.91076	0.03181
1262.62499	0.03196
1261.33922	0.03215
1260.05345	0.03238
1258.76768	0.03265
1257.48191	0.03293
1256.19614	0.03323
1254.91037	0.03354
1253.62461	0.03385
1252.33884	0.03417
1251.05307	0.03448
1249.76730	0.03479
1248.48153	0.03510
1247.19576	0.03543
1245.90999	0.03579
1244.62422	0.03615
1243.33846	0.03648
1242.05269	0.03674
1240.76692	0.03697
1239.48115	0.03720
1238.19538	0.03747
1236.90961	0.03776
1235.62384	0.03801
1234.33807	0.03817
1233.05230	0.03822
1231.76654	0.03814
1230.48077	0.03793
1229.19500	0.03765
1227.90923	0.03734
1226.62346	0.03706
1225.33769	0.03683
1224.05192	0.03663
1222.76615	0.03642
1221.48039	0.03616
1220.19462	0.03586
1218.90885	0.03553
1217.62308	0.03521
1216.33731	0.03494
1215.05154	0.03473
1213.76577	0.03455
1212.48000	0.03440
1211.19423	0.03427
1209.90847	0.03418
1208.62270	0.03414
1207.33693	0.03414
1206.05116	0.03414
1204.76539	0.03411
1203.47962	0.03407
1202.19385	0.03400
1200.90808	0.03394
1199.62232	0.03392
1198.33655	0.03372
1197.05078	0.03346
1195.76501	0.03319
1194.47924	0.03293
1193.19347	0.03272
1191.90770	0.03256
1190.62193	0.03247
1189.33616	0.03242
1188.05040	0.03236
1186.76463	0.03224
1185.47886	0.03206
1184.19309	0.03188
1182.90732	0.03175
1181.62155	0.03169
1180.33578	0.03169
1179.05001	0.03175
1177.76425	0.03183
1176.47848	0.03191
1175.19271	0.03195
1173.90694	0.03199
1172.62117	0.03204
1171.33540	0.03213
1170.04963	0.03223
1168.76386	0.03235
1167.47809	0.03248
1166.19233	0.03265
1164.90656	0.03283
1163.62079	0.03298
1162.33502	0.03306
1161.04925	0.03309
1159.76348	0.03309
1158.47771	0.03307
1157.19194	0.03301
1155.90618	0.03293
1154.62041	0.03283
1153.33464	0.03273
1152.04887	0.03265
1150.76310	0.03259
1149.47733	0.03253
1148.19156	0.03242
1146.90579	0.03227
1145.62002	0.03212
1144.33426	0.03198
1143.04849	0.03187
1141.76272	0.03177
1140.47695	0.03171
1139.19118	0.03169
1137.90541	0.03170
1136.61964	0.03169
1135.33387	0.03164
1134.04811	0.03163
1132.76234	0.03171
1131.47657	0.03191
1130.19080	0.03211
1128.90503	0.03224
1127.61926	0.03227
1126.33349	0.03224
1125.04772	0.03224
1123.76195	0.03228
1122.47619	0.03237
1121.19042	0.03251
1119.90465	0.03269
1118.61888	0.03290
1117.33311	0.03310
1116.04734	0.03327
1114.76157	0.03344
1113.47580	0.03363
1112.19004	0.03383
1110.90427	0.03402
1109.61850	0.03416
1108.33273	0.03432
1107.04696	0.03454
1105.76119	0.03485
1104.47542	0.03517
1103.18965	0.03542
1101.90388	0.03558
1100.61812	0.03572
1099.33235	0.03588
1098.04658	0.03605
1096.76081	0.03615
1095.47504	0.03617
1094.18927	0.03619
1092.90350	0.03630
1091.61773	0.03651
1090.33197	0.03676
1089.04620	0.03699
1087.76043	0.03717
1086.47466	0.03731
1085.18889	0.03745
1083.90312	0.03764
1082.61735	0.03790
1081.33158	0.03814
1080.04581	0.03830
1078.76005	0.03837
1077.47428	0.03839
1076.18851	0.03840
1074.90274	0.03841
1073.61697	0.03841
1072.33120	0.03840
1071.04543	0.03841
1069.75966	0.03843
1068.47390	0.03850
1067.18813	0.03859
1065.90236	0.03867
1064.61659	0.03871
1063.33082	0.03872
1062.04505	0.03878
1060.75928	0.03888
1059.47351	0.03899
1058.18774	0.03908
1056.90198	0.03917
1055.61621	0.03928
1054.33044	0.03939
1053.04467	0.03947
1051.75890	0.03950
1050.47313	0.03949
1049.18736	0.03948
1047.90159	0.03951
1046.61583	0.03957
1045.33006	0.03964
1044.04429	0.03968
1042.75852	0.03973
1041.47275	0.03982
1040.18698	0.03997
1038.90121	0.04015
1037.61544	0.04031
1036.32967	0.04047
1035.04391	0.04063
1033.75814	0.04077
1032.47237	0.04083
1031.18660	0.04079
1029.90083	0.04066
1028.61506	0.04044
1027.32929	0.04018
1026.04352	0.03988
1024.75775	0.03956
1023.47199	0.03916
1022.18622	0.03867
1020.90045	0.03811
1019.61468	0.03757
1018.32891	0.03711
1017.04314	0.03670
1015.75737	0.03634
1014.47160	0.03603
1013.18584	0.03574
1011.90007	0.03544
1010.61430	0.03510
1009.32853	0.03475
1008.04276	0.03446
1006.75699	0.03423
1005.47122	0.03401
1004.18545	0.03376
1002.89968	0.03348
1001.61392	0.03321
1000.32815	0.03296
999.04238	0.03275
997.75661	0.03258
996.47084	0.03240
995.18507	0.03218
993.89930	0.03192
992.61353	0.03167
991.32777	0.03147
990.04200	0.03136
988.75623	0.03134
987.47046	0.03132
986.18469	0.03125
984.89892	0.03113
983.61315	0.03102
982.32738	0.03095
981.04161	0.03090
979.75585	0.03081
978.47008	0.03066
977.18431	0.03050
975.89854	0.03037
974.61277	0.03031
973.32700	0.03028
972.04123	0.03025
970.75546	0.03024
969.46970	0.03025
968.18393	0.03029
966.89816	0.03033
965.61239	0.03034
964.32662	0.03023
963.04085	0.03001
961.75508	0.02974
960.46931	0.02952
959.18354	0.02940
957.89778	0.02930
956.61201	0.02917
955.32624	0.02898
954.04047	0.02879
952.75470	0.02861
951.46893	0.02840
950.18316	0.02817
948.89739	0.02793
947.61163	0.02774
946.32586	0.02762
945.04009	0.02755
943.75432	0.02745
942.46855	0.02728
941.18278	0.02706
939.89701	0.02686
938.61124	0.02671
937.32547	0.02660
936.03971	0.02651
934.75394	0.02642
933.46817	0.02628
932.18240	0.02608
930.89663	0.02585
929.61086	0.02564
928.32509	0.02549
927.03932	0.02537
925.75356	0.02524
924.46779	0.02508
923.18202	0.02491
921.89625	0.02477
920.61048	0.02468
919.32471	0.02460
918.03894	0.02448
916.75317	0.02432
915.46740	0.02419
914.18164	0.02411
912.89587	0.02402
911.61010	0.02386
910.32433	0.02361
909.03856	0.02337
907.75279	0.02322
906.46702	0.02312
905.18125	0.02299
903.89549	0.02278
902.60972	0.02248
901.32395	0.02219
900.03818	0.02202
898.75241	0.02201
897.46664	0.02208
896.18087	0.02212
894.89510	0.02210
893.60933	0.02208
892.32357	0.02207
891.03780	0.02203
889.75203	0.02191
888.46626	0.02170
887.18049	0.02146
885.89472	0.02132
884.60895	0.02134
883.32318	0.02144
882.03742	0.02151
880.75165	0.02149
879.46588	0.02144
878.18011	0.02144
876.89434	0.02144
875.60857	0.02135
874.32280	0.02116
873.03703	0.02096
871.75126	0.02086
870.46550	0.02089
869.17973	0.02097
867.89396	0.02099
866.60819	0.02093
865.32242	0.02082
864.03665	0.02072
862.75088	0.02071
861.46511	0.02077
860.17935	0.02080
858.89358	0.02072
857.60781	0.02053
856.32204	0.02030
855.03627	0.02014
853.75050	0.02009
852.46473	0.02013
851.17896	0.02017
849.89319	0.02017
848.60743	0.02011
847.32166	0.01997
846.03589	0.01978
844.75012	0.01961
843.46435	0.01954
842.17858	0.01959
840.89281	0.01971
839.60704	0.01981
838.32128	0.01980
837.03551	0.01969
835.74974	0.01953
834.46397	0.01939
833.17820	0.01930
831.89243	0.01926
830.60666	0.01926
829.32089	0.01925
828.03512	0.01920
826.74936	0.01914
825.46359	0.01915
824.17782	0.01924
822.89205	0.01930
821.60628	0.01926
820.32051	0.01911
819.03474	0.01898
817.74897	0.01894
816.46321	0.01899
815.17744	0.01904
813.89167	0.01906
812.60590	0.01905
811.32013	0.01906
810.03436	0.01911
808.74859	0.01918
807.46282	0.01927
806.17705	0.01937
804.89129	0.01949
803.60552	0.01963
802.31975	0.01980
801.03398	0.02001
799.74821	0.02020
798.46244	0.02034
797.17667	0.02042
795.89090	0.02046
794.60513	0.02049
793.31937	0.02052
792.03360	0.02055
790.74783	0.02059
789.46206	0.02063
788.17629	0.02072
786.89052	0.02084
785.60475	0.02095
784.31898	0.02097
783.03322	0.02090
781.74745	0.02082
780.46168	0.02080
779.17591	0.02087
777.89014	0.02098
776.60437	0.02104
775.31860	0.02103
774.03283	0.02098
772.74706	0.02098
771.46130	0.02106
770.17553	0.02125
768.88976	0.02153
767.60399	0.02184
766.31822	0.02210
765.03245	0.02221
763.74668	0.02215
762.46091	0.02201
761.17515	0.02194
759.88938	0.02201
758.60361	0.02217
757.31784	0.02234
756.03207	0.02247
754.74630	0.02252
753.46053	0.02254
752.17476	0.02256
750.88899	0.02263
749.60323	0.02271
748.31746	0.02275
747.03169	0.02277
745.74592	0.02282
744.46015	0.02287
743.17438	0.02290
741.88861	0.02288
740.60284	0.02284
739.31708	0.02282
738.03131	0.02283
736.74554	0.02283
735.45977	0.02278
734.17400	0.02268
732.88823	0.02259
731.60246	0.02261
730.31669	0.02281
729.03092	0.02313
727.74516	0.02349
726.45939	0.02381
725.17362	0.02401
723.88785	0.02412
722.60208	0.02419
721.31631	0.02429
720.03054	0.02438
718.74477	0.02438
717.45901	0.02427
716.17324	0.02408
714.88747	0.02393
713.60170	0.02388
712.31593	0.02396
711.03016	0.02415
709.74439	0.02438
708.45862	0.02458
707.17285	0.02474
705.88709	0.02483
704.60132	0.02486
703.31555	0.02486
702.02978	0.02485
700.74401	0.02487
699.45824	0.02492
698.17247	0.02500
696.88670	0.02509
695.60094	0.02519
694.31517	0.02529
693.02940	0.02537
691.74363	0.02540
690.45786	0.02539
689.17209	0.02538
687.88632	0.02539
686.60055	0.02541
685.31478	0.02542
684.02902	0.02542
682.74325	0.02541
681.45748	0.02539
680.17171	0.02538
678.88594	0.02541
677.60017	0.02551
676.31440	0.02565
675.02863	0.02579
673.74287	0.02590
672.45710	0.02596
671.17133	0.02600
669.88556	0.02605
668.59979	0.02607
667.31402	0.02607
666.02825	0.02618
664.74248	0.02626
663.45671	0.02634
662.17095	0.02642
660.88518	0.02651
659.59941	0.02665
658.31364	0.02682
657.02787	0.02700
655.74210	0.02713
654.45633	0.02721
653.17056	0.02727
651.88480	0.02735
650.59903	0.02745
649.31326	0.02754
648.02749	0.02764
646.74172	0.02773
645.45595	0.02780
644.17018	0.02782
642.88441	0.02776
641.59864	0.02762
640.31288	0.02745
639.02711	0.02728
637.74134	0.02713
636.45557	0.02704
635.16980	0.02703
633.88403	0.02712
632.59826	0.02733
631.31249	0.02747
630.02673	0.02701
628.74096	0.02630
627.45519	0.02690
626.16942	0.02554
624.88365	0.02282
623.59788	0.02019
622.31211	0.01837
621.02634	0.01777
619.74057	0.01856
618.45481	0.02046
617.16904	0.02270
615.88327	0.02450
614.59750	0.02550
613.31173	0.02586
612.02596	0.02608
610.74019	0.02677
609.45442	0.02790
608.16866	0.02858
606.88289	0.02804
605.59712	0.02661
604.31135	0.02546
603.02558	0.02536
601.73981	0.02604
600.45404	0.02682
599.16827	0.02733
597.88250	0.02761
596.59674	0.02780
595.31097	0.02800
594.02520	0.02826
592.73943	0.02861
591.45366	0.02899
590.16789	0.02926
588.88212	0.02934
587.59635	0.02928
586.31059	0.02921
585.02482	0.02923
583.73905	0.02934
582.45328	0.02952
581.16751	0.02973
579.88174	0.02996
578.59597	0.03015
577.31020	0.03023
576.02443	0.03024
574.73867	0.03019
573.45290	0.03014
572.16713	0.03008
570.88136	0.03001
569.59559	0.02995
568.30982	0.02990
567.02405	0.02986
565.73828	0.02983
564.45251	0.02985
563.16675	0.02997
561.88098	0.03021
560.59521	0.03051
559.30944	0.03074
558.02367	0.03074
556.73790	0.03049
555.45213	0.03013
554.16636	0.02988
552.88060	0.02988
551.59483	0.03008
550.30906	0.03033
549.02329	0.03051
547.73752	0.03055
546.45175	0.03045
545.16598	0.03024
543.88021	0.03002
542.59444	0.02993
541.30868	0.03005
540.02291	0.03032
538.73714	0.03061
537.45137	0.03081
536.16560	0.03090
534.87983	0.03095
533.59406	0.03105
532.30829	0.03121
531.02253	0.03137
529.73676	0.03145
528.45099	0.03146
527.16522	0.03144
525.87945	0.03144
524.59368	0.03145
523.30791	0.03144
522.02214	0.03140
520.73637	0.03132
519.45061	0.03121
518.16484	0.03107
516.87907	0.03088
515.59330	0.03065
514.30753	0.03044
513.02176	0.03033
511.73599	0.03035
510.45022	0.03048
509.16446	0.03059
507.87869	0.03056
506.59292	0.03034
505.30715	0.02999
504.02138	0.02966
502.73561	0.02944
501.44984	0.02932
500.16407	0.02925
498.87830	0.02913
497.59254	0.02897
496.30677	0.02881
495.02100	0.02870
493.73523	0.02862
492.44946	0.02852
491.16369	0.02834
489.87792	0.02811
488.59215	0.02789
487.30639	0.02778
486.02062	0.02782
484.73485	0.02801
483.44908	0.02825
482.16331	0.02845
480.87754	0.02850
479.59177	0.02838
478.30600	0.02816
477.02023	0.02796
475.73447	0.02788
474.44870	0.02788
473.16293	0.02790
471.87716	0.02786
470.59139	0.02772
469.30562	0.02758
468.01985	0.02753
466.73408	0.02759
465.44832	0.02763
464.16255	0.02755
462.87678	0.02731
461.59101	0.02701
460.30524	0.02671
459.01947	0.02646
457.73370	0.02630
456.44793	0.02624
455.16216	0.02623
453.87640	0.02618
452.59063	0.02605
451.30486	0.02586
450.01909	0.02567
448.73332	0.02553
447.44755	0.02545
446.16178	0.02541
444.87601	0.02539
443.59025	0.02538
442.30448	0.02542
441.01871	0.02547
439.73294	0.02549
438.44717	0.02545
437.16140	0.02537
435.87563	0.02532
434.58986	0.02535
433.30409	0.02542
432.01833	0.02548
430.73256	0.02550
429.44679	0.02547
428.16102	0.02538
426.87525	0.02523
425.58948	0.02503
424.30371	0.02483
423.01794	0.02468
421.73218	0.02459
420.44641	0.02454
419.16064	0.02450
417.87487	0.02445
416.58910	0.02437
415.30333	0.02425
414.01756	0.02411
412.73179	0.02395
411.44602	0.02378
410.16026	0.02363
408.87449	0.02352
407.58872	0.02345
406.30295	0.02340
405.01718	0.02337
403.73141	0.02339
402.44564	0.02346
401.15987	0.02355
399.87411	0.02362
