3997.45528	0.03936
3996.16951	0.03883
3994.88374	0.03829
3993.59798	0.03788
3992.31221	0.03779
3991.02644	0.03791
3989.74067	0.03793
3988.45490	0.03776
3987.16913	0.03763
3985.88336	0.03784
3984.59759	0.03830
3983.31183	0.03858
3982.02606	0.03837
3980.74029	0.03786
3979.45452	0.03759
3978.16875	0.03785
3976.88298	0.03833
3975.59721	0.03844
3974.31144	0.03792
3973.02567	0.03700
3971.73991	0.03608
3970.45414	0.03537
3969.16837	0.03486
3967.88260	0.03455
3966.59683	0.03442
3965.31106	0.03443
3964.02529	0.03445
3962.73952	0.03441
3961.45376	0.03441
3960.16799	0.03460
3958.88222	0.03500
3957.59645	0.03541
3956.31068	0.03567
3955.02491	0.03583
3953.73914	0.03596
3952.45337	0.03604
3951.16760	0.03599
3949.88184	0.03587
3948.59607	0.03592
3947.31030	0.03632
3946.02453	0.03703
3944.73876	0.03771
3943.45299	0.03793
3942.16722	0.03753
3940.88145	0.03683
3939.59569	0.03627
3938.30992	0.03609
3937.02415	0.03621
3935.73838	0.03642
3934.45261	0.03650
3933.16684	0.03632
3931.88107	0.03596
3930.59530	0.03568
3929.30953	0.03565
3928.02377	0.03583
3926.73800	0.03605
3925.45223	0.03613
3924.16646	0.03605
3922.88069	0.03598
3921.59492	0.03613
3920.30915	0.03645
3919.02338	0.03670
3917.73762	0.03666
3916.45185	0.03621
3915.16608	0.03554
3913.88031	0.03500
3912.59454	0.03484
3911.30877	0.03514
3910.02300	0.03582
3908.73723	0.03665
3907.45146	0.03728
3906.16570	0.03749
3904.87993	0.03724
3903.59416	0.03663
3902.30839	0.03584
3901.02262	0.03517
3899.73685	0.03471
3898.45108	0.03442
3897.16531	0.03436
3895.87955	0.03466
3894.59378	0.03533
3893.30801	0.03615
3892.02224	0.03678
3890.73647	0.03705
3889.45070	0.03726
3888.16493	0.03787
3886.87916	0.03862
3885.59339	0.03869
3884.30763	0.03805
3883.02186	0.03747
3881.73609	0.03737
3880.45032	0.03716
3879.16455	0.03636
3877.87878	0.03540
3876.59301	0.03494
3875.30724	0.03501
3874.02148	0.03520
3872.73571	0.03545
3871.44994	0.03584
3870.16417	0.03599
3868.87840	0.03562
3867.59263	0.03529
3866.30686	0.03559
3865.02109	0.03627
3863.73532	0.03681
3862.44956	0.03704
3861.16379	0.03686
3859.87802	0.03620
3858.59225	0.03530
3857.30648	0.03470
3856.02071	0.03469
3854.73494	0.03473
3853.44917	0.03404
3852.16341	0.03280
3850.87764	0.03207
3849.59187	0.03240
3848.30610	0.03327
3847.02033	0.03400
3845.73456	0.03426
3844.44879	0.03410
3843.16302	0.03382
3841.87725	0.03376
3840.59149	0.03419
3839.30572	0.03492
3838.01995	0.03529
3836.73418	0.03494
3835.44841	0.03441
3834.16264	0.03441
3832.87687	0.03494
3831.59110	0.03539
3830.30534	0.03542
3829.01957	0.03520
3827.73380	0.03506
3826.44803	0.03492
3825.16226	0.03455
3823.87649	0.03397
3822.59072	0.03316
3821.30495	0.03193
3820.01918	0.03070
3818.73342	0.03057
3817.44765	0.03181
3816.16188	0.03307
3814.87611	0.03316
3813.59034	0.03261
3812.30457	0.03242
3811.01880	0.03268
3809.73303	0.03312
3808.44726	0.03368
3807.16150	0.03402
3805.87573	0.03375
3804.58996	0.03321
3803.30419	0.03301
3802.01842	0.03295
3800.73265	0.03253
3799.44688	0.03210
3798.16111	0.03234
3796.87535	0.03299
3795.58958	0.03328
3794.30381	0.03308
3793.01804	0.03279
3791.73227	0.03268
3790.44650	0.03280
3789.16073	0.03315
3787.87496	0.03367
3786.58919	0.03424
3785.30343	0.03466
3784.01766	0.03477
3782.73189	0.03465
3781.44612	0.03451
3780.16035	0.03445
3778.87458	0.03436
3777.58881	0.03417
3776.30304	0.03389
3775.01728	0.03348
3773.73151	0.03300
3772.44574	0.03270
3771.15997	0.03270
3769.87420	0.03270
3768.58843	0.03249
3767.30266	0.03226
3766.01689	0.03221
3764.73112	0.03229
3763.44536	0.03250
3762.15959	0.03285
3760.87382	0.03318
3759.58805	0.03332
3758.30228	0.03351
3757.01651	0.03399
3755.73074	0.03473
3754.44497	0.03547
3753.15921	0.03575
3751.87344	0.03528
3750.58767	0.03426
3749.30190	0.03312
3748.01613	0.03234
3746.73036	0.03257
3745.44459	0.03347
3744.15882	0.03366
3742.87305	0.03274
3741.58729	0.03183
3740.30152	0.03159
3739.01575	0.03172
3737.72998	0.03185
3736.44421	0.03190
3735.15844	0.03194
3733.87267	0.03220
3732.58690	0.03258
3731.30114	0.03260
3730.01537	0.03217
3728.72960	0.03182
3727.44383	0.03193
3726.15806	0.03240
3724.87229	0.03304
3723.58652	0.03361
3722.30075	0.03373
3721.01498	0.03322
3719.72922	0.03229
3718.44345	0.03132
3717.15768	0.03061
3715.87191	0.03039
3714.58614	0.03069
3713.30037	0.03113
3712.01460	0.03120
3710.72883	0.03080
3709.44307	0.03031
3708.15730	0.02998
3706.87153	0.02977
3705.58576	0.02972
3704.29999	0.02991
3703.01422	0.03044
3701.72845	0.03128
3700.44268	0.03219
3699.15691	0.03269
3697.87115	0.03253
3696.58538	0.03183
3695.29961	0.03101
3694.01384	0.03068
3692.72807	0.03098
3691.44230	0.03144
3690.15653	0.03134
3688.87076	0.03036
3687.58500	0.02883
3686.29923	0.02770
3685.01346	0.02776
3683.72769	0.02870
3682.44192	0.02954
3681.15615	0.02980
3679.87038	0.02960
3678.58461	0.02939
3677.29884	0.02956
3676.01308	0.02985
3674.72731	0.02993
3673.44154	0.03018
3672.15577	0.03112
3670.87000	0.03225
3669.58423	0.03270
3668.29846	0.03245
3667.01269	0.03192
3665.72693	0.03120
3664.44116	0.03042
3663.15539	0.03004
3661.86962	0.03035
3660.58385	0.03109
3659.29808	0.03172
3658.01231	0.03196
3656.72654	0.03177
3655.44077	0.03119
3654.15501	0.03055
3652.86924	0.03019
3651.58347	0.03011
3650.29770	0.02998
3649.01193	0.02971
3647.72616	0.02953
3646.44039	0.02978
3645.15462	0.03047
3643.86886	0.03130
3642.58309	0.03187
3641.29732	0.03201
3640.01155	0.03191
3638.72578	0.03183
3637.44001	0.03188
3636.15424	0.03204
3634.86847	0.03231
3633.58270	0.03267
3632.29694	0.03322
3631.01117	0.03394
3629.72540	0.03438
3628.43963	0.03417
3627.15386	0.03375
3625.86809	0.03384
3624.58232	0.03437
3623.29655	0.03465
3622.01079	0.03444
3620.72502	0.03409
3619.43925	0.03395
3618.15348	0.03399
3616.86771	0.03410
3615.58194	0.03418
3614.29617	0.03420
3613.01040	0.03418
3611.72463	0.03426
3610.43887	0.03451
3609.15310	0.03492
3607.86733	0.03545
3606.58156	0.03621
3605.29579	0.03715
3604.01002	0.03788
3602.72425	0.03814
3601.43848	0.03806
3600.15272	0.03788
3598.86695	0.03752
3597.58118	0.03683
3596.29541	0.03584
3595.00964	0.03493
3593.72387	0.03440
3592.43810	0.03446
3591.15233	0.03505
3589.86656	0.03581
3588.58080	0.03635
3587.29503	0.03657
3586.00926	0.03666
3584.72349	0.03677
3583.43772	0.03703
3582.15195	0.03751
3580.86618	0.03823
3579.58041	0.03920
3578.29464	0.04026
3577.00888	0.04117
3575.72311	0.04171
3574.43734	0.04180
3573.15157	0.04150
3571.86580	0.04100
3570.58003	0.04056
3569.29426	0.04036
3568.00849	0.04042
3566.72273	0.04060
3565.43696	0.04074
3564.15119	0.04079
3562.86542	0.04070
3561.57965	0.04049
3560.29388	0.04024
3559.00811	0.04007
3557.72234	0.04011
3556.43657	0.04041
3555.15081	0.04089
3553.86504	0.04143
3552.57927	0.04193
3551.29350	0.04232
3550.00773	0.04263
3548.72196	0.04288
3547.43619	0.04302
3546.15042	0.04300
3544.86466	0.04287
3543.57889	0.04280
3542.29312	0.04295
3541.00735	0.04337
3539.72158	0.04403
3538.43581	0.04479
3537.15004	0.04548
3535.86427	0.04587
3534.57850	0.04585
3533.29274	0.04558
3532.00697	0.04540
3530.72120	0.04556
3529.43543	0.04606
3528.14966	0.04669
3526.86389	0.04725
3525.57812	0.04767
3524.29235	0.04786
3523.00659	0.04770
3521.72082	0.04722
3520.43505	0.04673
3519.14928	0.04657
3517.86351	0.04677
3516.57774	0.04715
3515.29197	0.04751
3514.00620	0.04777
3512.72043	0.04793
3511.43467	0.04807
3510.14890	0.04827
3508.86313	0.04857
3507.57736	0.04883
3506.29159	0.04893
3505.00582	0.04892
3503.72005	0.04896
3502.43428	0.04913
3501.14852	0.04923
3499.86275	0.04906
3498.57698	0.04865
3497.29121	0.04838
3496.00544	0.04859
3494.71967	0.04921
3493.43390	0.04986
3492.14813	0.05024
3490.86236	0.05039
3489.57660	0.05052
3488.29083	0.05068
3487.00506	0.05074
3485.71929	0.05067
3484.43352	0.05064
3483.14775	0.05088
3481.86198	0.05138
3480.57621	0.05190
3479.29045	0.05226
3478.00468	0.05247
3476.71891	0.05269
3475.43314	0.05291
3474.14737	0.05301
3472.86160	0.05288
3471.57583	0.05266
3470.29006	0.05257
3469.00429	0.05268
3467.71853	0.05287
3466.43276	0.05304
3465.14699	0.05321
3463.86122	0.05344
3462.57545	0.05369
3461.28968	0.05394
3460.00391	0.05416
3458.71814	0.05430
3457.43238	0.05427
3456.14661	0.05406
3454.86084	0.05392
3453.57507	0.05406
3452.28930	0.05444
3451.00353	0.05481
3449.71776	0.05504
3448.43199	0.05521
3447.14622	0.05545
3445.86046	0.05579
3444.57469	0.05618
3443.28892	0.05656
3442.00315	0.05684
3440.71738	0.05694
3439.43161	0.05686
3438.14584	0.05672
3436.86007	0.05670
3435.57431	0.05690
3434.28854	0.05733
3433.00277	0.05781
3431.71700	0.05809
3430.43123	0.05806
3429.14546	0.05789
3427.85969	0.05794
3426.57392	0.05834
3425.28815	0.05881
3424.00239	0.05896
3422.71662	0.05874
3421.43085	0.05841
3420.14508	0.05824
3418.85931	0.05822
3417.57354	0.05820
3416.28777	0.05814
3415.00200	0.05819
3413.71624	0.05851
3412.43047	0.05902
3411.14470	0.05952
3409.85893	0.05990
3408.57316	0.06009
3407.28739	0.06010
3406.00162	0.06000
3404.71585	0.05996
3403.43008	0.06014
3402.14432	0.06055
3400.85855	0.06100
3399.57278	0.06124
3398.28701	0.06117
3397.00124	0.06106
3395.71547	0.06119
3394.42970	0.06176
3393.14393	0.06262
3391.85817	0.06338
3390.57240	0.06363
3389.28663	0.06331
3388.00086	0.06275
3386.71509	0.06239
3385.42932	0.06243
3384.14355	0.06276
3382.85778	0.06312
3381.57201	0.06335
3380.28625	0.06338
3379.00048	0.06330
3377.71471	0.06321
3376.42894	0.06315
3375.14317	0.06309
3373.85740	0.06311
3372.57163	0.06338
3371.28586	0.06398
3370.00010	0.06480
3368.71433	0.06555
3367.42856	0.06599
3366.14279	0.06613
3364.85702	0.06620
3363.57125	0.06641
3362.28548	0.06674
3360.99971	0.06703
3359.71394	0.06718
3358.42818	0.06737
3357.14241	0.06779
3355.85664	0.06836
3354.57087	0.06877
3353.28510	0.06887
3351.99933	0.06887
3350.71356	0.06911
3349.42779	0.06964
3348.14202	0.07012
3346.85626	0.07034
3345.57049	0.07043
3344.28472	0.07055
3342.99895	0.07065
3341.71318	0.07064
3340.42741	0.07058
3339.14164	0.07062
3337.85587	0.07080
3336.57011	0.07110
3335.28434	0.07158
3333.99857	0.07220
3332.71280	0.07278
3331.42703	0.07314
3330.14126	0.07324
3328.85549	0.07324
3327.56972	0.07331
3326.28395	0.07357
3324.99819	0.07397
3323.71242	0.07441
3322.42665	0.07478
3321.14088	0.07508
3319.85511	0.07533
3318.56934	0.07553
3317.28357	0.07571
3315.99780	0.07588
3314.71204	0.07605
3313.42627	0.07625
3312.14050	0.07650
3310.85473	0.07676
3309.56896	0.07687
3308.28319	0.07671
3306.99742	0.07643
3305.71165	0.07631
3304.42588	0.07654
3303.14012	0.07703
3301.85435	0.07749
3300.56858	0.07766
3299.28281	0.07759
3297.99704	0.07759
3296.71127	0.07796
3295.42550	0.07873
3294.13973	0.07955
3292.85397	0.07998
3291.56820	0.07979
3290.28243	0.07918
3288.99666	0.07858
3287.71089	0.07823
3286.42512	0.07802
3285.13935	0.07777
3283.85358	0.07748
3282.56781	0.07738
3281.28205	0.07761
3279.99628	0.07803
3278.71051	0.07832
3277.42474	0.07829
3276.13897	0.07802
3274.85320	0.07769
3273.56743	0.07745
3272.28166	0.07743
3270.99590	0.07770
3269.71013	0.07813
3268.42436	0.07847
3267.13859	0.07853
3265.85282	0.07829
3264.56705	0.07792
3263.28128	0.07756
3261.99551	0.07733
3260.70974	0.07725
3259.42398	0.07727
3258.13821	0.07726
3256.85244	0.07707
3255.56667	0.07665
3254.28090	0.07613
3252.99513	0.07571
3251.70936	0.07547
3250.42359	0.07526
3249.13783	0.07493
3247.85206	0.07454
3246.56629	0.07422
3245.28052	0.07404
3243.99475	0.07389
3242.70898	0.07371
3241.42321	0.07358
3240.13744	0.07358
3238.85167	0.07367
3237.56591	0.07370
3236.28014	0.07357
3234.99437	0.07331
3233.70860	0.07307
3232.42283	0.07294
3231.13706	0.07289
3229.85129	0.07282
3228.56552	0.07266
3227.27976	0.07248
3225.99399	0.07234
3224.70822	0.07226
3223.42245	0.07217
3222.13668	0.07204
3220.85091	0.07184
3219.56514	0.07151
3218.27937	0.07101
3216.99360	0.07042
3215.70784	0.06997
3214.42207	0.06982
3213.13630	0.06996
3211.85053	0.07019
3210.56476	0.07035
3209.27899	0.07040
3207.99322	0.07043
3206.70745	0.07051
3205.42169	0.07064
3204.13592	0.07074
3202.85015	0.07073
3201.56438	0.07057
3200.27861	0.07033
3198.99284	0.07008
3197.70707	0.06983
3196.42130	0.06951
3195.13553	0.06907
3193.84977	0.06860
3192.56400	0.06832
3191.27823	0.06833
3189.99246	0.06855
3188.70669	0.06881
3187.42092	0.06896
3186.13515	0.06898
3184.84938	0.06883
3183.56362	0.06850
3182.27785	0.06807
3180.99208	0.06764
3179.70631	0.06733
3178.42054	0.06710
3177.13477	0.06682
3175.84900	0.06636
3174.56323	0.06583
3173.27746	0.06548
3171.99170	0.06544
3170.70593	0.06558
3169.42016	0.06559
3168.13439	0.06532
3166.84862	0.06484
3165.56285	0.06436
3164.27708	0.06408
3162.99131	0.06411
3161.70555	0.06434
3160.41978	0.06451
3159.13401	0.06439
3157.84824	0.06402
3156.56247	0.06363
3155.27670	0.06341
3153.99093	0.06334
3152.70516	0.06321
3151.41939	0.06289
3150.13363	0.06248
3148.84786	0.06217
3147.56209	0.06204
3146.27632	0.06195
3144.99055	0.06172
3143.70478	0.06135
3142.41901	0.06101
3141.13324	0.06080
3139.84748	0.06065
3138.56171	0.06048
3137.27594	0.06029
3135.99017	0.06006
3134.70440	0.05982
3133.41863	0.05965
3132.13286	0.05970
3130.84709	0.05997
3129.56132	0.06025
3128.27556	0.06022
3126.98979	0.05977
3125.70402	0.05908
3124.41825	0.05850
3123.13248	0.05826
3121.84671	0.05838
3120.56094	0.05866
3119.27517	0.05883
3117.98940	0.05873
3116.70364	0.05840
3115.41787	0.05805
3114.13210	0.05784
3112.84633	0.05778
3111.56056	0.05776
3110.27479	0.05774
3108.98902	0.05776
3107.70325	0.05777
3106.41749	0.05772
3105.13172	0.05761
3103.84595	0.05762
3102.56018	0.05792
3101.27441	0.05853
3099.98864	0.05915
3098.70287	0.05941
3097.41710	0.05917
3096.13133	0.05868
3094.84557	0.05837
3093.55980	0.05849
3092.27403	0.05889
3090.98826	0.05922
3089.70249	0.05928
3088.41672	0.05919
3087.13095	0.05915
3085.84518	0.05921
3084.55942	0.05926
3083.27365	0.05924
3081.98788	0.05917
3080.70211	0.05914
3079.41634	0.05916
3078.13057	0.05924
3076.84480	0.05930
3075.55903	0.05927
3074.27326	0.05912
3072.98750	0.05893
3071.70173	0.05887
3070.41596	0.05903
3069.13019	0.05935
3067.84442	0.05961
3066.55865	0.05966
3065.27288	0.05948
3063.98711	0.05920
3062.70135	0.05893
3061.41558	0.05869
3060.12981	0.05848
3058.84404	0.05838
3057.55827	0.05847
3056.27250	0.05863
3054.98673	0.05865
3053.70096	0.05844
3052.41519	0.05812
3051.12943	0.05793
3049.84366	0.05794
3048.55789	0.05806
3047.27212	0.05812
3045.98635	0.05801
3044.70058	0.05775
3043.41481	0.05739
3042.12904	0.05701
3040.84328	0.05664
3039.55751	0.05636
3038.27174	0.05624
3036.98597	0.05625
3035.70020	0.05622
3034.41443	0.05604
3033.12866	0.05571
3031.84289	0.05535
3030.55712	0.05505
3029.27136	0.05479
3027.98559	0.05453
3026.69982	0.05426
3025.41405	0.05406
3024.12828	0.05401
3022.84251	0.05417
3021.55674	0.05444
3020.27097	0.05456
3018.98521	0.05433
3017.69944	0.05379
3016.41367	0.05321
3015.12790	0.05284
3013.84213	0.05274
3012.55636	0.05277
3011.27059	0.05277
3009.98482	0.05267
3008.69905	0.05247
3007.41329	0.05224
3006.12752	0.05204
3004.84175	0.05183
3003.55598	0.05157
3002.27021	0.05136
3000.98444	0.05137
2999.69867	0.05167
2998.41290	0.05223
2997.12714	0.05269
2995.84137	0.05283
2994.55560	0.05273
2993.26983	0.05264
2991.98406	0.05269
2990.69829	0.05279
2989.41252	0.05278
2988.12675	0.05261
2986.84098	0.05243
2985.55522	0.05246
2984.26945	0.05277
2982.98368	0.05327
2981.69791	0.05385
2980.41214	0.05434
2979.12637	0.05465
2977.84060	0.05480
2976.55483	0.05490
2975.26907	0.05508
2973.98330	0.05538
2972.69753	0.05576
2971.41176	0.05616
2970.12599	0.05652
2968.84022	0.05680
2967.55445	0.05699
2966.26868	0.05715
2964.98291	0.05735
2963.69715	0.05763
2962.41138	0.05791
2961.12561	0.05811
2959.83984	0.05823
2958.55407	0.05831
2957.26830	0.05833
2955.98253	0.05825
2954.69676	0.05811
2953.41100	0.05802
2952.12523	0.05807
2950.83946	0.05821
2949.55369	0.05829
2948.26792	0.05817
2946.98215	0.05792
2945.69638	0.05775
2944.41061	0.05785
2943.12484	0.05824
2941.83908	0.05873
2940.55331	0.05917
2939.26754	0.05949
2937.98177	0.05970
2936.69600	0.05982
2935.41023	0.05988
2934.12446	0.05995
2932.83869	0.06016
2931.55293	0.06051
2930.26716	0.06088
2928.98139	0.06111
2927.69562	0.06115
2926.40985	0.06111
2925.12408	0.06114
2923.83831	0.06127
2922.55254	0.06135
2921.26677	0.06126
2919.98101	0.06103
2918.69524	0.06075
2917.40947	0.06041
2916.12370	0.05985
2914.83793	0.05901
2913.55216	0.05808
2912.26639	0.05733
2910.98062	0.05688
2909.69486	0.05661
2908.40909	0.05635
2907.12332	0.05612
2905.83755	0.05603
2904.55178	0.05602
2903.26601	0.05588
2901.98024	0.05552
2900.69447	0.05506
2899.40870	0.05471
2898.12294	0.05456
2896.83717	0.05455
2895.55140	0.05460
2894.26563	0.05458
2892.97986	0.05440
2891.69409	0.05412
2890.40832	0.05395
2889.12255	0.05399
2887.83678	0.05411
2886.55102	0.05404
2885.26525	0.05369
2883.97948	0.05323
2882.69371	0.05289
2881.40794	0.05272
2880.12217	0.05262
2878.83640	0.05257
2877.55063	0.05265
2876.26487	0.05294
2874.97910	0.05333
2873.69333	0.05367
2872.40756	0.05383
2871.12179	0.05379
2869.83602	0.05361
2868.55025	0.05339
2867.26448	0.05321
2865.97871	0.05308
2864.69295	0.05291
2863.40718	0.05261
2862.12141	0.05220
2860.83564	0.05186
2859.54987	0.05177
2858.26410	0.05195
2856.97833	0.05220
2855.69256	0.05232
2854.40680	0.05225
2853.12103	0.05205
2851.83526	0.05182
2850.54949	0.05161
2849.26372	0.05144
2847.97795	0.05125
2846.69218	0.05100
2845.40641	0.05068
2844.12064	0.05032
2842.83488	0.04999
2841.54911	0.04967
2840.26334	0.04933
2838.97757	0.04896
2837.69180	0.04859
2836.40603	0.04825
2835.12026	0.04792
2833.83449	0.04767
2832.54873	0.04759
2831.26296	0.04772
2829.97719	0.04790
2828.69142	0.04791
2827.40565	0.04770
2826.11988	0.04746
2824.83411	0.04740
2823.54834	0.04750
2822.26257	0.04749
2820.97681	0.04716
2819.69104	0.04661
2818.40527	0.04614
2817.11950	0.04598
2815.83373	0.04602
2814.54796	0.04603
2813.26219	0.04589
2811.97642	0.04569
2810.69066	0.04558
2809.40489	0.04559
2808.11912	0.04562
2806.83335	0.04556
2805.54758	0.04536
2804.26181	0.04508
2802.97604	0.04478
2801.69027	0.04456
2800.40450	0.04447
2799.11874	0.04454
2797.83297	0.04470
2796.54720	0.04480
2795.26143	0.04474
2793.97566	0.04456
2792.68989	0.04440
2791.40412	0.04439
2790.11835	0.04450
2788.83259	0.04462
2787.54682	0.04469
2786.26105	0.04476
2784.97528	0.04486
2783.68951	0.04496
2782.40374	0.04500
2781.11797	0.04494
2779.83220	0.04479
2778.54643	0.04455
2777.26067	0.04428
2775.97490	0.04407
2774.68913	0.04398
2773.40336	0.04398
2772.11759	0.04396
2770.83182	0.04381
2769.54605	0.04350
2768.26028	0.04313
2766.97452	0.04281
2765.68875	0.04263
2764.40298	0.04257
2763.11721	0.04257
2761.83144	0.04260
2760.54567	0.04265
2759.25990	0.04270
2757.97413	0.04269
2756.68836	0.04259
2755.40260	0.04243
2754.11683	0.04228
2752.83106	0.04217
2751.54529	0.04206
2750.25952	0.04192
2748.97375	0.04179
2747.68798	0.04178
2746.40221	0.04190
2745.11645	0.04203
2743.83068	0.04200
2742.54491	0.04183
2741.25914	0.04164
2739.97337	0.04154
2738.68760	0.04153
2737.40183	0.04153
2736.11606	0.04150
2734.83029	0.04140
2733.54453	0.04122
2732.25876	0.04097
2730.97299	0.04069
2729.68722	0.04052
2728.40145	0.04052
2727.11568	0.04069
2725.82991	0.04096
2724.54414	0.04119
2723.25838	0.04128
2721.97261	0.04118
2720.68684	0.04096
2719.40107	0.04071
2718.11530	0.04048
2716.82953	0.04027
2715.54376	0.04010
2714.25799	0.03996
2712.97222	0.03983
2711.68646	0.03970
2710.40069	0.03958
2709.11492	0.03948
2707.82915	0.03942
2706.54338	0.03942
2705.25761	0.03946
2703.97184	0.03947
2702.68607	0.03947
2701.40031	0.03950
2700.11454	0.03964
2698.82877	0.03985
2697.54300	0.04005
2696.25723	0.04016
2694.97146	0.04012
2693.68569	0.03989
2692.39992	0.03949
2691.11415	0.03907
2689.82839	0.03878
2688.54262	0.03867
2687.25685	0.03862
2685.97108	0.03848
2684.68531	0.03827
2683.39954	0.03811
2682.11377	0.03811
2680.82800	0.03821
2679.54224	0.03832
2678.25647	0.03841
2676.97070	0.03851
2675.68493	0.03860
2674.39916	0.03866
2673.11339	0.03870
2671.82762	0.03876
2670.54185	0.03881
2669.25608	0.03884
2667.97032	0.03889
2666.68455	0.03895
2665.39878	0.03898
2664.11301	0.03893
2662.82724	0.03887
2661.54147	0.03894
2660.25570	0.03919
2658.96993	0.03952
2657.68417	0.03974
2656.39840	0.03969
2655.11263	0.03944
2653.82686	0.03921
2652.54109	0.03911
2651.25532	0.03910
2649.96955	0.03902
2648.68378	0.03882
2647.39801	0.03854
2646.11225	0.03831
2644.82648	0.03816
2643.54071	0.03807
2642.25494	0.03801
2640.96917	0.03799
2639.68340	0.03800
2638.39763	0.03791
2637.11186	0.03760
2635.82609	0.03713
2634.54033	0.03674
2633.25456	0.03659
2631.96879	0.03663
2630.68302	0.03674
2629.39725	0.03685
2628.11148	0.03687
2626.82571	0.03674
2625.53994	0.03647
2624.25418	0.03621
2622.96841	0.03611
2621.68264	0.03613
2620.39687	0.03616
2619.11110	0.03612
2617.82533	0.03606
2616.53956	0.03604
2615.25379	0.03602
2613.96802	0.03587
2612.68226	0.03552
2611.39649	0.03506
2610.11072	0.03470
2608.82495	0.03459
2607.53918	0.03467
2606.25341	0.03473
2604.96764	0.03456
2603.68187	0.03417
2602.39611	0.03372
2601.11034	0.03339
2599.82457	0.03326
2598.53880	0.03332
2597.25303	0.03350
2595.96726	0.03367
2594.68149	0.03366
2593.39572	0.03342
2592.10995	0.03310
2590.82419	0.03286
2589.53842	0.03283
2588.25265	0.03303
2586.96688	0.03336
2585.68111	0.03359
2584.39534	0.03355
2583.10957	0.03326
2581.82380	0.03294
2580.53804	0.03278
2579.25227	0.03276
2577.96650	0.03268
2576.68073	0.03240
2575.39496	0.03198
2574.10919	0.03159
2572.82342	0.03136
2571.53765	0.03132
2570.25188	0.03141
2568.96612	0.03153
2567.68035	0.03159
2566.39458	0.03157
2565.10881	0.03144
2563.82304	0.03121
2562.53727	0.03092
2561.25150	0.03063
2559.96573	0.03032
2558.67997	0.03005
2557.39420	0.02995
2556.10843	0.03015
2554.82266	0.03055
2553.53689	0.03094
2552.25112	0.03115
2550.96535	0.03124
2549.67958	0.03124
2548.39381	0.03110
2547.10805	0.03076
2545.82228	0.03025
2544.53651	0.02973
2543.25074	0.02941
2541.96497	0.02942
2540.67920	0.02968
2539.39343	0.03001
2538.10766	0.03031
2536.82190	0.03056
2535.53613	0.03076
2534.25036	0.03083
2532.96459	0.03070
2531.67882	0.03038
2530.39305	0.02991
2529.10728	0.02935
2527.82151	0.02880
2526.53574	0.02854
2525.24998	0.02876
2523.96421	0.02937
2522.67844	0.02998
2521.39267	0.03023
2520.10690	0.03006
2518.82113	0.02964
2517.53536	0.02921
2516.24959	0.02896
2514.96383	0.02891
2513.67806	0.02892
2512.39229	0.02892
2511.10652	0.02897
2509.82075	0.02921
2508.53498	0.02961
2507.24921	0.03008
2505.96344	0.03050
2504.67767	0.03075
2503.39191	0.03073
2502.10614	0.03054
2500.82037	0.03039
2499.53460	0.03034
2498.24883	0.03030
2496.96306	0.03015
2495.67729	0.02995
2494.39152	0.02979
2493.10576	0.02964
2491.81999	0.02947
2490.53422	0.02934
2489.24845	0.02928
2487.96268	0.02921
2486.67691	0.02898
2485.39114	0.02862
2484.10537	0.02822
2482.81960	0.02788
2481.53384	0.02766
2480.24807	0.02763
2478.96230	0.02774
2477.67653	0.02782
2476.39076	0.02780
2475.10499	0.02786
2473.81922	0.02815
2472.53345	0.02854
2471.24769	0.02872
2469.96192	0.02854
2468.67615	0.02817
2467.39038	0.02785
2466.10461	0.02767
2464.81884	0.02760
2463.53307	0.02758
2462.24730	0.02758
2460.96153	0.02759
2459.67577	0.02767
2458.39000	0.02784
2457.10423	0.02796
2455.81846	0.02785
2454.53269	0.02751
2453.24692	0.02721
2451.96115	0.02721
2450.67538	0.02747
2449.38962	0.02772
2448.10385	0.02777
2446.81808	0.02765
2445.53231	0.02746
2444.24654	0.02721
2442.96077	0.02695
2441.67500	0.02677
2440.38923	0.02683
2439.10346	0.02720
2437.81770	0.02779
2436.53193	0.02826
2435.24616	0.02833
2433.96039	0.02793
2432.67462	0.02733
2431.38885	0.02684
2430.10308	0.02663
2428.81731	0.02664
2427.53155	0.02674
2426.24578	0.02687
2424.96001	0.02704
2423.67424	0.02726
2422.38847	0.02745
2421.10270	0.02753
2419.81693	0.02746
2418.53116	0.02731
2417.24539	0.02712
2415.95963	0.02693
2414.67386	0.02679
2413.38809	0.02679
2412.10232	0.02698
2410.81655	0.02723
2409.53078	0.02735
2408.24501	0.02723
2406.95924	0.02695
2405.67347	0.02663
2404.38771	0.02630
2403.10194	0.02595
2401.81617	0.02566
2400.53040	0.02559
2399.24463	0.02579
2397.95886	0.02595
2396.67309	0.02611
2395.38732	0.02623
2394.10156	0.02630
2392.81579	0.02635
2391.53002	0.02645
2390.24425	0.02664
2388.95848	0.02688
2387.67271	0.02698
2386.38694	0.02678
2385.10117	0.02638
2383.81540	0.02602
2382.52964	0.02593
2381.24387	0.02611
2379.95810	0.02633
2378.67233	0.02662
2377.38656	0.02677
2376.10079	0.02654
2374.81502	0.02616
2373.52925	0.02646
2372.24349	0.02731
2370.95772	0.02788
2369.67195	0.02793
2368.38618	0.02778
2367.10041	0.02795
2365.81464	0.02833
2364.52887	0.02878
2363.24310	0.02914
2361.95733	0.02948
2360.67157	0.03000
2359.38580	0.03024
2358.10003	0.02993
2356.81426	0.02921
2355.52849	0.02830
2354.24272	0.02732
2352.95695	0.02668
2351.67118	0.02703
2350.38542	0.02758
2349.09965	0.02739
2347.81388	0.02702
2346.52811	0.02748
2345.24234	0.02812
2343.95657	0.02776
2342.67080	0.02650
2341.38503	0.02737
2340.09926	0.02968
2338.81350	0.02959
2337.52773	0.02751
2336.24196	0.02786
2334.95619	0.02950
2333.67042	0.02886
2332.38465	0.02685
2331.09888	0.02803
2329.81311	0.02877
2328.52735	0.02782
2327.24158	0.02882
2325.95581	0.03061
2324.67004	0.03099
2323.38427	0.03075
2322.09850	0.03117
2320.81273	0.03051
2319.52696	0.02985
2318.24119	0.02950
2316.95543	0.02890
2315.66966	0.02868
2314.38389	0.02846
2313.09812	0.02803
2311.81235	0.02784
2310.52658	0.02730
2309.24081	0.02652
2307.95504	0.02611
2306.66928	0.02593
2305.38351	0.02605
2304.09774	0.02615
2302.81197	0.02612
2301.52620	0.02618
2300.24043	0.02626
2298.95466	0.02635
2297.66889	0.02637
2296.38312	0.02632
2295.09736	0.02628
2293.81159	0.02629
2292.52582	0.02637
2291.24005	0.02641
2289.95428	0.02641
2288.66851	0.02639
2287.38274	0.02637
2286.09697	0.02628
2284.81121	0.02604
2283.52544	0.02569
2282.23967	0.02530
2280.95390	0.02493
2279.66813	0.02462
2278.38236	0.02439
2277.09659	0.02428
2275.81082	0.02424
2274.52505	0.02416
2273.23929	0.02406
2271.95352	0.02412
2270.66775	0.02446
2269.38198	0.02490
2268.09621	0.02507
2266.81044	0.02477
2265.52467	0.02402
2264.23890	0.02301
2262.95314	0.02209
2261.66737	0.02158
2260.38160	0.02148
2259.09583	0.02153
2257.81006	0.02144
2256.52429	0.02104
2255.23852	0.02035
2253.95275	0.01952
2252.66698	0.01878
2251.38122	0.01832
2250.09545	0.01828
2248.80968	0.01871
2247.52391	0.01894
2246.23814	0.01905
2244.95237	0.01897
2243.66660	0.01873
2242.38083	0.01859
2241.09507	0.01882
2239.80930	0.01932
2238.52353	0.01970
2237.23776	0.01974
2235.95199	0.01965
2234.66622	0.01967
2233.38045	0.01974
2232.09468	0.01967
2230.80891	0.01953
2229.52315	0.01950
2228.23738	0.01956
2226.95161	0.01945
2225.66584	0.01906
2224.38007	0.01865
2223.09430	0.01859
2221.80853	0.01896
2220.52276	0.01951
2219.23700	0.01993
2217.95123	0.02008
2216.66546	0.01997
2215.37969	0.01968
2214.09392	0.01931
2212.80815	0.01893
2211.52238	0.01839
2210.23661	0.01744
2208.95084	0.01622
2207.66508	0.01529
2206.37931	0.01519
2205.09354	0.01581
2203.80777	0.01654
2202.52200	0.01696
2201.23623	0.01701
2199.95046	0.01677
2198.66469	0.01622
2197.37893	0.01558
2196.09316	0.01526
2194.80739	0.01557
2193.52162	0.01642
2192.23585	0.01763
2190.95008	0.01882
2189.66431	0.01931
2188.37854	0.01841
2187.09277	0.01637
2185.80701	0.01436
2184.52124	0.01332
2183.23547	0.01320
2181.94970	0.01344
2180.66393	0.01370
2179.37816	0.01376
2178.09239	0.01329
2176.80662	0.01223
2175.52085	0.01108
2174.23509	0.01044
2172.94932	0.01045
2171.66355	0.01091
2170.37778	0.01174
2169.09201	0.01302
2167.80624	0.01468
2166.52047	0.01627
2165.23470	0.01722
2163.94894	0.01723
2162.66317	0.01637
2161.37740	0.01480
2160.09163	0.01270
2158.80586	0.01066
2157.52009	0.00960
2156.23432	0.00972
2154.94855	0.01018
2153.66278	0.01008
2152.37702	0.00951
2151.09125	0.00932
2149.80548	0.01011
2148.51971	0.01160
2147.23394	0.01300
2145.94817	0.01360
2144.66240	0.01330
2143.37663	0.01254
2142.09087	0.01197
2140.80510	0.01193
2139.51933	0.01239
2138.23356	0.01306
2136.94779	0.01364
2135.66202	0.01403
2134.37625	0.01441
2133.09048	0.01504
2131.80471	0.01587
2130.51895	0.01654
2129.23318	0.01685
2127.94741	0.01694
2126.66164	0.01705
2125.37587	0.01719
2124.09010	0.01718
2122.80433	0.01696
2121.51856	0.01666
2120.23280	0.01648
2118.94703	0.01653
2117.66126	0.01684
2116.37549	0.01743
2115.08972	0.01821
2113.80395	0.01893
2112.51818	0.01927
2111.23241	0.01907
2109.94664	0.01853
2108.66088	0.01807
2107.37511	0.01800
2106.08934	0.01824
2104.80357	0.01847
2103.51780	0.01857
2102.23203	0.01871
2100.94626	0.01883
2099.66049	0.01762
2098.37473	0.01627
2097.08896	0.01505
2095.80319	0.01431
2094.51742	0.01440
2093.23165	0.01514
2091.94588	0.01603
2090.66011	0.01661
2089.37434	0.01670
2088.08857	0.01637
2086.80281	0.01588
2085.51704	0.01539
2084.23127	0.01493
2082.94550	0.01450
2081.65973	0.01426
2080.37396	0.01443
2079.08819	0.01500
2077.80242	0.01565
2076.51666	0.01597
2075.23089	0.01581
2073.94512	0.01538
2072.65935	0.01502
2071.37358	0.01496
2070.08781	0.01517
2068.80204	0.01545
2067.51627	0.01557
2066.23050	0.01538
2064.94474	0.01481
2063.65897	0.01397
2062.37320	0.01328
2061.08743	0.01321
2059.80166	0.01377
2058.51589	0.01436
2057.23012	0.01429
2055.94435	0.01364
2054.65859	0.01319
2053.37282	0.01357
2052.08705	0.01455
2050.80128	0.01529
2049.51551	0.01515
2048.22974	0.01417
2046.94397	0.01284
2045.65820	0.01175
2044.37243	0.01122
2043.08667	0.01104
2041.80090	0.01068
2040.51513	0.00985
2039.22936	0.00886
2037.94359	0.00823
2036.65782	0.00817
2035.37205	0.00844
2034.08628	0.00877
2032.80052	0.00911
2031.51475	0.00950
2030.22898	0.00985
2028.94321	0.00998
2027.65744	0.00973
2026.37167	0.00903
2025.08590	0.00785
2023.80013	0.00629
2022.51436	0.00476
2021.22860	0.00394
2019.94283	0.00430
2018.65706	0.00559
2017.37129	0.00688
2016.08552	0.00740
2014.79975	0.00725
2013.51398	0.00726
2012.22821	0.00807
2010.94245	0.00932
2009.65668	0.00999
2008.37091	0.00944
2007.08514	0.00805
2005.79937	0.00685
2004.51360	0.00661
2003.22783	0.00732
2001.94206	0.00845
2000.65629	0.00943
1999.37053	0.00996
1998.08476	0.01018
1996.79899	0.01045
1995.51322	0.01097
1994.22745	0.01169
1992.94168	0.01240
1991.65591	0.01300
1990.37014	0.01353
1989.08438	0.01398
1987.79861	0.01428
1986.51284	0.01426
1985.22707	0.01384
1983.94130	0.01305
1982.65553	0.01202
1981.36976	0.01095
1980.08399	0.01005
1978.79822	0.00940
1977.51246	0.00885
1976.22669	0.00828
1974.94092	0.00773
1973.65515	0.00740
1972.36938	0.00735
1971.08361	0.00749
1969.79784	0.00778
1968.51207	0.00819
1967.22631	0.00852
1965.94054	0.00850
1964.65477	0.00816
1963.36900	0.00784
1962.08323	0.00783
1960.79746	0.00808
1959.51169	0.00842
1958.22592	0.00889
1956.94015	0.00968
1955.65439	0.01081
1954.36862	0.01202
1953.08285	0.01287
1951.79708	0.01309
1950.51131	0.01279
1949.22554	0.01229
1947.93977	0.01190
1946.65400	0.01160
1945.36823	0.01132
1944.08247	0.01110
1942.79670	0.01112
1941.51093	0.01143
1940.22516	0.01188
1938.93939	0.01231
1937.65362	0.01266
1936.36785	0.01296
1935.08208	0.01320
1933.79632	0.01325
1932.51055	0.01303
1931.22478	0.01263
1929.93901	0.01227
1928.65324	0.01210
1927.36747	0.01217
1926.08170	0.01234
1924.79593	0.01243
1923.51016	0.01238
1922.22440	0.01227
1920.93863	0.01227
1919.65286	0.01250
1918.36709	0.01288
1917.08132	0.01322
1915.79555	0.01350
1914.50978	0.01374
1913.22401	0.01390
1911.93825	0.01389
1910.65248	0.01369
1909.36671	0.01346
1908.08094	0.01341
1906.79517	0.01361
1905.50940	0.01387
1904.22363	0.01392
1902.93786	0.01371
1901.65209	0.01342
1900.36633	0.01324
1899.08056	0.01321
1897.79479	0.01327
1896.50902	0.01333
1895.22325	0.01339
1893.93748	0.01345
1892.65171	0.01355
1891.36594	0.01373
1890.08018	0.01398
1888.79441	0.01420
1887.50864	0.01429
1886.22287	0.01428
1884.93710	0.01423
1883.65133	0.01427
1882.36556	0.01446
1881.07979	0.01467
1879.79402	0.01476
1878.50826	0.01466
1877.22249	0.01447
1875.93672	0.01431
1874.65095	0.01422
1873.36518	0.01414
1872.07941	0.01405
1870.79364	0.01394
1869.50787	0.01383
1868.22211	0.01381
1866.93634	0.01399
1865.65057	0.01434
1864.36480	0.01466
1863.07903	0.01472
1861.79326	0.01452
1860.50749	0.01425
1859.22172	0.01408
1857.93595	0.01402
1856.65019	0.01398
1855.36442	0.01391
1854.07865	0.01390
1852.79288	0.01401
1851.50711	0.01423
1850.22134	0.01446
1848.93557	0.01457
1847.64980	0.01452
1846.36404	0.01440
1845.07827	0.01425
1843.79250	0.01402
1842.50673	0.01376
1841.22096	0.01366
1839.93519	0.01379
1838.64942	0.01399
1837.36365	0.01409
1836.07788	0.01406
1834.79212	0.01398
1833.50635	0.01399
1832.22058	0.01420
1830.93481	0.01454
1829.64904	0.01473
1828.36327	0.01462
1827.07750	0.01428
1825.79173	0.01386
1824.50597	0.01345
1823.22020	0.01309
1821.93443	0.01287
1820.64866	0.01274
1819.36289	0.01265
1818.07712	0.01260
1816.79135	0.01266
1815.50558	0.01288
1814.21981	0.01326
1812.93405	0.01370
1811.64828	0.01406
1810.36251	0.01426
1809.07674	0.01432
1807.79097	0.01434
1806.50520	0.01441
1805.21943	0.01451
1803.93366	0.01456
1802.64790	0.01450
1801.36213	0.01430
1800.07636	0.01404
1798.79059	0.01386
1797.50482	0.01385
1796.21905	0.01395
1794.93328	0.01407
1793.64751	0.01413
1792.36174	0.01404
1791.07598	0.01382
1789.79021	0.01362
1788.50444	0.01362
1787.21867	0.01377
1785.93290	0.01390
1784.64713	0.01390
1783.36136	0.01380
1782.07559	0.01373
1780.78983	0.01373
1779.50406	0.01369
1778.21829	0.01358
1776.93252	0.01343
1775.64675	0.01337
1774.36098	0.01344
1773.07521	0.01354
1771.78944	0.01348
1770.50367	0.01335
1769.21791	0.01332
1767.93214	0.01338
1766.64637	0.01337
1765.36060	0.01338
1764.07483	0.01355
1762.78906	0.01378
1761.50329	0.01387
1760.21752	0.01379
1758.93176	0.01374
1757.64599	0.01380
1756.36022	0.01384
1755.07445	0.01381
1753.78868	0.01383
1752.50291	0.01394
1751.21714	0.01402
1749.93137	0.01404
1748.64560	0.01413
1747.35984	0.01440
1746.07407	0.01474
1744.78830	0.01502
1743.50253	0.01522
1742.21676	0.01540
1740.93099	0.01561
1739.64522	0.01575
1738.35945	0.01574
1737.07369	0.01577
1735.78792	0.01602
1734.50215	0.01628
1733.21638	0.01631
1731.93061	0.01626
1730.64484	0.01648
1729.35907	0.01692
1728.07330	0.01732
1726.78753	0.01757
1725.50177	0.01774
1724.21600	0.01788
1722.93023	0.01795
1721.64446	0.01799
1720.35869	0.01812
1719.07292	0.01838
1717.78715	0.01857
1716.50138	0.01860
1715.21561	0.01868
1713.92985	0.01898
1712.64408	0.01946
1711.35831	0.02000
1710.07254	0.02056
1708.78677	0.02118
1707.50100	0.02187
1706.21523	0.02258
1704.92946	0.02319
1703.64370	0.02381
1702.35793	0.02473
1701.07216	0.02580
1699.78639	0.02666
1698.50062	0.02748
1697.21485	0.02874
1695.92908	0.03027
1694.64331	0.03156
1693.35754	0.03267
1692.07178	0.03399
1690.78601	0.03544
1689.50024	0.03670
1688.21447	0.03777
1686.92870	0.03896
1685.64293	0.04036
1684.35716	0.04165
1683.07139	0.04272
1681.78563	0.04395
1680.49986	0.04554
1679.21409	0.04723
1677.92832	0.04886
1676.64255	0.05045
1675.35678	0.05197
1674.07101	0.05334
1672.78524	0.05474
1671.49947	0.05634
1670.21371	0.05805
1668.92794	0.05970
1667.64217	0.06124
1666.35640	0.06280
1665.07063	0.06448
1663.78486	0.06619
1662.49909	0.06780
1661.21332	0.06928
1659.92756	0.07066
1658.64179	0.07191
1657.35602	0.07295
1656.07025	0.07401
1654.78448	0.07528
1653.49871	0.07645
1652.21294	0.07710
1650.92717	0.07742
1649.64140	0.07804
1648.35564	0.07904
1647.06987	0.07996
1645.78410	0.08053
1644.49833	0.08093
1643.21256	0.08144
1641.92679	0.08205
1640.64102	0.08253
1639.35525	0.08277
1638.06949	0.08290
1636.78372	0.08303
1635.49795	0.08302
1634.21218	0.08284
1632.92641	0.08269
1631.64064	0.08270
1630.35487	0.08270
1629.06910	0.08241
1627.78333	0.08178
1626.49757	0.08088
1625.21180	0.07991
1623.92603	0.07890
1622.64026	0.07775
1621.35449	0.07641
1620.06872	0.07502
1618.78295	0.07371
1617.49718	0.07236
1616.21142	0.07073
1614.92565	0.06891
1613.63988	0.06721
1612.35411	0.06576
1611.06834	0.06438
1609.78257	0.06295
1608.49680	0.06149
1607.21103	0.06005
1605.92526	0.05863
1604.63950	0.05728
1603.35373	0.05600
1602.06796	0.05482
1600.78219	0.05371
1599.49642	0.05266
1598.21065	0.05167
1596.92488	0.05076
1595.63911	0.04995
1594.35335	0.04920
1593.06758	0.04848
1591.78181	0.04779
1590.49604	0.04718
1589.21027	0.04671
1587.92450	0.04642
1586.63873	0.04627
1585.35296	0.04619
1584.06719	0.04614
1582.78143	0.04608
1581.49566	0.04599
1580.20989	0.04589
1578.92412	0.04592
1577.63835	0.04618
1576.35258	0.04650
1575.06681	0.04668
1573.78104	0.04687
1572.49528	0.04740
1571.20951	0.04822
1569.92374	0.04908
1568.63797	0.04983
1567.35220	0.05062
1566.06643	0.05154
1564.78066	0.05241
1563.49489	0.05313
1562.20912	0.05387
1560.92336	0.05480
1559.63759	0.05575
1558.35182	0.05644
1557.06605	0.05705
1555.78028	0.05798
1554.49451	0.05922
1553.20874	0.06042
1551.92297	0.06147
1550.63721	0.06243
1549.35144	0.06325
1548.06567	0.06392
1546.77990	0.06452
1545.49413	0.06508
1544.20836	0.06554
1542.92259	0.06594
1541.63682	0.06637
1540.35105	0.06679
1539.06529	0.06701
1537.77952	0.06706
1536.49375	0.06725
1535.20798	0.06772
1533.92221	0.06819
1532.63644	0.06839
1531.35067	0.06840
1530.06490	0.06840
1528.77914	0.06842
1527.49337	0.06838
1526.20760	0.06823
1524.92183	0.06800
1523.63606	0.06786
1522.35029	0.06781
1521.06452	0.06765
1519.77875	0.06732
1518.49298	0.06704
1517.20722	0.06686
1515.92145	0.06661
1514.63568	0.06623
1513.34991	0.06576
1512.06414	0.06514
1510.77837	0.06430
1509.49260	0.06336
1508.20683	0.06249
1506.92107	0.06160
1505.63530	0.06050
1504.34953	0.05930
1503.06376	0.05828
1501.77799	0.05746
1500.49222	0.05663
1499.20645	0.05569
1497.92068	0.05470
1496.63491	0.05364
1495.34915	0.05245
1494.06338	0.05122
1492.77761	0.05011
1491.49184	0.04912
1490.20607	0.04814
1488.92030	0.04715
1487.63453	0.04623
1486.34876	0.04543
1485.06299	0.04471
1483.77723	0.04408
1482.49146	0.04357
1481.20569	0.04320
1479.91992	0.04295
1478.63415	0.04282
1477.34838	0.04276
1476.06261	0.04275
1474.77684	0.04284
1473.49108	0.04305
1472.20531	0.04331
1470.91954	0.04358
1469.63377	0.04394
1468.34800	0.04441
1467.06223	0.04490
1465.77646	0.04531
1464.49069	0.04562
1463.20492	0.04589
1461.91916	0.04620
1460.63339	0.04658
1459.34762	0.04705
1458.06185	0.04755
1456.77608	0.04789
1455.49031	0.04802
1454.20454	0.04818
1452.91877	0.04847
1451.63301	0.04873
1450.34724	0.04884
1449.06147	0.04883
1447.77570	0.04873
1446.48993	0.04854
1445.20416	0.04831
1443.91839	0.04810
1442.63262	0.04791
1441.34685	0.04770
1440.06109	0.04749
1438.77532	0.04734
1437.48955	0.04719
1436.20378	0.04691
1434.91801	0.04650
1433.63224	0.04613
1432.34647	0.04583
1431.06070	0.04552
1429.77494	0.04514
1428.48917	0.04478
1427.20340	0.04453
1425.91763	0.04443
1424.63186	0.04443
1423.34609	0.04440
1422.06032	0.04438
1420.77455	0.04440
1419.48878	0.04437
1418.20302	0.04420
1416.91725	0.04400
1415.63148	0.04393
1414.34571	0.04397
1413.05994	0.04404
1411.77417	0.04411
1410.48840	0.04417
1409.20263	0.04421
1407.91687	0.04419
1406.63110	0.04412
1405.34533	0.04399
1404.05956	0.04384
1402.77379	0.04372
1401.48802	0.04368
1400.20225	0.04369
1398.91648	0.04366
1397.63071	0.04358
1396.34495	0.04355
1395.05918	0.04357
1393.77341	0.04354
1392.48764	0.04343
1391.20187	0.04332
1389.91610	0.04328
1388.63033	0.04324
1387.34456	0.04314
1386.05880	0.04297
1384.77303	0.04282
1383.48726	0.04276
1382.20149	0.04275
1380.91572	0.04270
1379.62995	0.04257
1378.34418	0.04235
1377.05841	0.04207
1375.77264	0.04177
1374.48688	0.04145
1373.20111	0.04111
1371.91534	0.04079
1370.62957	0.04052
1369.34380	0.04026
1368.05803	0.03996
1366.77226	0.03960
1365.48649	0.03923
1364.20073	0.03886
1362.91496	0.03850
1361.62919	0.03816
1360.34342	0.03788
1359.05765	0.03771
1357.77188	0.03760
1356.48611	0.03751
1355.20034	0.03740
1353.91457	0.03731
1352.62881	0.03730
1351.34304	0.03739
1350.05727	0.03754
1348.77150	0.03768
1347.48573	0.03779
1346.19996	0.03786
1344.91419	0.03794
1343.62842	0.03806
1342.34266	0.03822
1341.05689	0.03839
1339.77112	0.03856
1338.48535	0.03869
1337.19958	0.03877
1335.91381	0.03875
1334.62804	0.03863
1333.34227	0.03845
1332.05650	0.03828
1330.77074	0.03813
1329.48497	0.03799
1328.19920	0.03783
1326.91343	0.03766
1325.62766	0.03752
1324.34189	0.03739
1323.05612	0.03727
1321.77035	0.03714
1320.48459	0.03704
1319.19882	0.03698
1317.91305	0.03696
1316.62728	0.03695
1315.34151	0.03689
1314.05574	0.03676
1312.76997	0.03660
1311.48420	0.03646
1310.19843	0.03636
1308.91267	0.03629
1307.62690	0.03621
1306.34113	0.03611
1305.05536	0.03600
1303.76959	0.03592
1302.48382	0.03590
1301.19805	0.03591
1299.91228	0.03588
1298.62652	0.03580
1297.34075	0.03567
1296.05498	0.03556
1294.76921	0.03549
1293.48344	0.03551
1292.19767	0.03562
1290.91190	0.03581
1289.62613	0.03603
1288.34036	0.03626
1287.05460	0.03645
1285.76883	0.03660
1284.48306	0.03671
1283.19729	0.03680
1281.91152	0.03689
1280.62575	0.03699
1279.33998	0.03709
1278.05421	0.03719
1276.76845	0.03730
1275.48268	0.03741
1274.19691	0.03751
1272.91114	0.03757
1271.62537	0.03760
1270.33960	0.03763
1269.05383	0.03771
1267.76806	0.03785
1266.48229	0.03802
1265.19653	0.03820
1263.91076	0.03836
1262.62499	0.03850
1261.33922	0.03863
1260.05345	0.03878
1258.76768	0.03897
1257.48191	0.03922
1256.19614	0.03953
1254.91037	0.03987
1253.62461	0.04021
1252.33884	0.04056
1251.05307	0.04092
1249.76730	0.04129
1248.48153	0.04165
1247.19576	0.04201
1245.90999	0.04235
1244.62422	0.04270
1243.33846	0.04303
1242.05269	0.04334
1240.76692	0.04362
1239.48115	0.04390
1238.19538	0.04420
1236.90961	0.04450
1235.62384	0.04475
1234.33807	0.04491
1233.05230	0.04495
1231.76654	0.04490
1230.48077	0.04479
1229.19500	0.04465
1227.90923	0.04447
1226.62346	0.04423
1225.33769	0.04397
1224.05192	0.04370
1222.76615	0.04344
1221.48039	0.04318
1220.19462	0.04290
1218.90885	0.04261
1217.62308	0.04233
1216.33731	0.04207
1215.05154	0.04182
1213.76577	0.04154
1212.48000	0.04127
1211.19423	0.04107
1209.90847	0.04099
1208.62270	0.04103
1207.33693	0.04111
1206.05116	0.04117
1204.76539	0.04117
1203.47962	0.04111
1202.19385	0.04100
1200.90808	0.04091
1199.62232	0.04093
1198.33655	0.04079
1197.05078	0.04062
1195.76501	0.04041
1194.47924	0.04017
1193.19347	0.03992
1191.90770	0.03971
1190.62193	0.03958
1189.33616	0.03954
1188.05040	0.03952
1186.76463	0.03942
1185.47886	0.03924
1184.19309	0.03906
1182.90732	0.03894
1181.62155	0.03889
1180.33578	0.03890
1179.05001	0.03896
1177.76425	0.03904
1176.47848	0.03910
1175.19271	0.03911
1173.90694	0.03915
1172.62117	0.03926
1171.33540	0.03946
1170.04963	0.03970
1168.76386	0.03993
1167.47809	0.04013
1166.19233	0.04033
1164.90656	0.04054
1163.62079	0.04072
1162.33502	0.04084
1161.04925	0.04093
1159.76348	0.04100
1158.47771	0.04108
1157.19194	0.04114
1155.90618	0.04114
1154.62041	0.04108
1153.33464	0.04099
1152.04887	0.04087
1150.76310	0.04074
1149.47733	0.04060
1148.19156	0.04047
1146.90579	0.04036
1145.62002	0.04026
1144.33426	0.04016
1143.04849	0.04007
1141.76272	0.03998
1140.47695	0.03989
1139.19118	0.03981
1137.90541	0.03977
1136.61964	0.03979
1135.33387	0.03986
1134.04811	0.03998
1132.76234	0.04014
1131.47657	0.04037
1130.19080	0.04067
1128.90503	0.04105
1127.61926	0.04151
1126.33349	0.04203
1125.04772	0.04265
1123.76195	0.04336
1122.47619	0.04412
1121.19042	0.04484
1119.90465	0.04550
1118.61888	0.04612
1117.33311	0.04680
1116.04734	0.04756
1114.76157	0.04839
1113.47580	0.04922
1112.19004	0.05004
1110.90427	0.05082
1109.61850	0.05156
1108.33273	0.05228
1107.04696	0.05304
1105.76119	0.05385
1104.47542	0.05469
1103.18965	0.05548
1101.90388	0.05619
1100.61812	0.05681
1099.33235	0.05736
1098.04658	0.05783
1096.76081	0.05826
1095.47504	0.05866
1094.18927	0.05899
1092.90350	0.05921
1091.61773	0.05932
1090.33197	0.05934
1089.04620	0.05931
1087.76043	0.05928
1086.47466	0.05934
1085.18889	0.05955
1083.90312	0.05997
1082.61735	0.06059
1081.33158	0.06131
1080.04581	0.06205
1078.76005	0.06276
1077.47428	0.06344
1076.18851	0.06409
1074.90274	0.06467
1073.61697	0.06516
1072.33120	0.06560
1071.04543	0.06609
1069.75966	0.06670
1068.47390	0.06742
1067.18813	0.06818
1065.90236	0.06889
1064.61659	0.06950
1063.33082	0.07007
1062.04505	0.07064
1060.75928	0.07127
1059.47351	0.07194
1058.18774	0.07262
1056.90198	0.07331
1055.61621	0.07400
1054.33044	0.07474
1053.04467	0.07554
1051.75890	0.07634
1050.47313	0.07707
1049.18736	0.07773
1047.90159	0.07840
1046.61583	0.07918
1045.33006	0.08003
1044.04429	0.08090
1042.75852	0.08173
1041.47275	0.08255
1040.18698	0.08341
1038.90121	0.08431
1037.61544	0.08524
1036.32967	0.08620
1035.04391	0.08720
1033.75814	0.08816
1032.47237	0.08898
1031.18660	0.08958
1029.90083	0.08990
1028.61506	0.08993
1027.32929	0.08968
1026.04352	0.08920
1024.75775	0.08855
1023.47199	0.08779
1022.18622	0.08691
1020.90045	0.08589
1019.61468	0.08474
1018.32891	0.08351
1017.04314	0.08223
1015.75737	0.08089
1014.47160	0.07950
1013.18584	0.07812
1011.90007	0.07680
1010.61430	0.07557
1009.32853	0.07441
1008.04276	0.07330
1006.75699	0.07222
1005.47122	0.07118
1004.18545	0.07020
1002.89968	0.06925
1001.61392	0.06830
1000.32815	0.06733
999.04238	0.06636
997.75661	0.06541
996.47084	0.06449
995.18507	0.06357
993.89930	0.06266
992.61353	0.06180
991.32777	0.06100
990.04200	0.06026
988.75623	0.05955
987.47046	0.05884
986.18469	0.05817
984.89892	0.05756
983.61315	0.05702
982.32738	0.05651
981.04161	0.05598
979.75585	0.05539
978.47008	0.05477
977.18431	0.05415
975.89854	0.05355
974.61277	0.05302
973.32700	0.05261
972.04123	0.05237
970.75546	0.05230
969.46970	0.05237
968.18393	0.05250
966.89816	0.05262
965.61239	0.05266
964.32662	0.05253
963.04085	0.05218
961.75508	0.05169
960.46931	0.05117
959.18354	0.05066
957.89778	0.05014
956.61201	0.04959
955.32624	0.04905
954.04047	0.04856
952.75470	0.04810
951.46893	0.04763
950.18316	0.04717
948.89739	0.04675
947.61163	0.04640
946.32586	0.04613
945.04009	0.04588
943.75432	0.04559
942.46855	0.04525
941.18278	0.04491
939.89701	0.04460
938.61124	0.04430
937.32547	0.04394
936.03971	0.04353
934.75394	0.04312
933.46817	0.04276
932.18240	0.04244
930.89663	0.04211
929.61086	0.04173
928.32509	0.04131
927.03932	0.04095
925.75356	0.04070
924.46779	0.04053
923.18202	0.04038
921.89625	0.04019
920.61048	0.04000
919.32471	0.03979
918.03894	0.03953
916.75317	0.03920
915.46740	0.03886
914.18164	0.03857
912.89587	0.03831
911.61010	0.03799
910.32433	0.03758
909.03856	0.03717
907.75279	0.03684
906.46702	0.03658
905.18125	0.03632
903.89549	0.03602
902.60972	0.03573
901.32395	0.03549
900.03818	0.03533
898.75241	0.03517
897.46664	0.03497
896.18087	0.03471
894.89510	0.03443
893.60933	0.03419
892.32357	0.03400
891.03780	0.03382
889.75203	0.03360
888.46626	0.03333
887.18049	0.03306
885.89472	0.03286
884.60895	0.03276
883.32318	0.03273
882.03742	0.03271
880.75165	0.03271
879.46588	0.03278
878.18011	0.03290
876.89434	0.03299
875.60857	0.03297
874.32280	0.03282
873.03703	0.03262
871.75126	0.03243
870.46550	0.03228
869.17973	0.03216
867.89396	0.03204
866.60819	0.03190
865.32242	0.03177
864.03665	0.03170
862.75088	0.03170
861.46511	0.03173
860.17935	0.03168
858.89358	0.03148
857.60781	0.03117
856.32204	0.03084
855.03627	0.03059
853.75050	0.03044
852.46473	0.03035
851.17896	0.03027
849.89319	0.03012
848.60743	0.02992
847.32166	0.02969
846.03589	0.02945
844.75012	0.02923
843.46435	0.02903
842.17858	0.02889
840.89281	0.02880
839.60704	0.02874
838.32128	0.02863
837.03551	0.02846
835.74974	0.02831
834.46397	0.02824
833.17820	0.02825
831.89243	0.02833
830.60666	0.02839
829.32089	0.02836
828.03512	0.02820
826.74936	0.02799
825.46359	0.02780
824.17782	0.02768
822.89205	0.02760
821.60628	0.02752
820.32051	0.02745
819.03474	0.02739
817.74897	0.02734
816.46321	0.02726
815.17744	0.02718
813.89167	0.02709
812.60590	0.02700
811.32013	0.02695
810.03436	0.02698
808.74859	0.02711
807.46282	0.02732
806.17705	0.02755
804.89129	0.02775
803.60552	0.02791
802.31975	0.02805
801.03398	0.02821
799.74821	0.02834
798.46244	0.02837
797.17667	0.02829
795.89090	0.02819
794.60513	0.02817
793.31937	0.02826
792.03360	0.02838
790.74783	0.02847
789.46206	0.02853
788.17629	0.02858
786.89052	0.02866
785.60475	0.02876
784.31898	0.02887
783.03322	0.02891
781.74745	0.02889
780.46168	0.02884
779.17591	0.02883
777.89014	0.02889
776.60437	0.02899
775.31860	0.02903
774.03283	0.02898
772.74706	0.02887
771.46130	0.02877
770.17553	0.02877
768.88976	0.02888
767.60399	0.02904
766.31822	0.02920
765.03245	0.02933
763.74668	0.02943
762.46091	0.02954
761.17515	0.02964
759.88938	0.02968
758.60361	0.02968
757.31784	0.02970
756.03207	0.02975
754.74630	0.02977
753.46053	0.02973
752.17476	0.02966
750.88899	0.02964
749.60323	0.02969
748.31746	0.02981
747.03169	0.02995
745.74592	0.03007
744.46015	0.03010
743.17438	0.03002
741.88861	0.02989
740.60284	0.02981
739.31708	0.02982
738.03131	0.02989
736.74554	0.02996
735.45977	0.02997
734.17400	0.02990
732.88823	0.02978
731.60246	0.02973
730.31669	0.02982
729.03092	0.03005
727.74516	0.03033
726.45939	0.03057
725.17362	0.03073
723.88785	0.03082
722.60208	0.03091
721.31631	0.03103
720.03054	0.03111
718.74477	0.03110
717.45901	0.03100
716.17324	0.03083
714.88747	0.03068
713.60170	0.03061
712.31593	0.03062
711.03016	0.03071
709.74439	0.03084
708.45862	0.03096
707.17285	0.03105
705.88709	0.03110
704.60132	0.03113
703.31555	0.03116
702.02978	0.03121
700.74401	0.03128
699.45824	0.03139
698.17247	0.03152
696.88670	0.03165
695.60094	0.03178
694.31517	0.03187
693.02940	0.03191
691.74363	0.03185
690.45786	0.03172
689.17209	0.03160
687.88632	0.03153
686.60055	0.03148
685.31478	0.03144
684.02902	0.03142
682.74325	0.03144
681.45748	0.03146
680.17171	0.03145
678.88594	0.03143
677.60017	0.03144
676.31440	0.03155
675.02863	0.03168
673.74287	0.03174
672.45710	0.03173
671.17133	0.03174
669.88556	0.03183
668.59979	0.03194
667.31402	0.03192
666.02825	0.03196
664.74248	0.03201
663.45671	0.03211
662.17095	0.03226
660.88518	0.03241
659.59941	0.03255
658.31364	0.03268
657.02787	0.03279
655.74210	0.03291
654.45633	0.03306
653.17056	0.03323
651.88480	0.03338
650.59903	0.03351
649.31326	0.03360
648.02749	0.03361
646.74172	0.03356
645.45595	0.03350
644.17018	0.03343
642.88441	0.03337
641.59864	0.03330
640.31288	0.03321
639.02711	0.03311
637.74134	0.03302
636.45557	0.03296
635.16980	0.03294
633.88403	0.03299
632.59826	0.03315
631.31249	0.03323
630.02673	0.03268
628.74096	0.03199
627.45519	0.03307
626.16942	0.03223
624.88365	0.03002
623.59788	0.02793
622.31211	0.02663
621.02634	0.02638
619.74057	0.02706
618.45481	0.02832
617.16904	0.02981
615.88327	0.03125
614.59750	0.03248
613.31173	0.03354
612.02596	0.03487
610.74019	0.03688
609.45442	0.03928
608.16866	0.04103
606.88289	0.04148
605.59712	0.04115
604.31135	0.04112
603.02558	0.04192
601.73981	0.04318
600.45404	0.04419
599.16827	0.04460
597.88250	0.04448
596.59674	0.04400
595.31097	0.04337
594.02520	0.04276
592.73943	0.04234
591.45366	0.04215
590.16789	0.04208
588.88212	0.04204
587.59635	0.04204
586.31059	0.04224
585.02482	0.04273
583.73905	0.04346
582.45328	0.04429
581.16751	0.04514
579.88174	0.04598
578.59597	0.04680
577.31020	0.04751
576.02443	0.04805
574.73867	0.04837
573.45290	0.04854
572.16713	0.04862
570.88136	0.04876
569.59559	0.04906
568.30982	0.04958
567.02405	0.05027
565.73828	0.05098
564.45251	0.05154
563.16675	0.05183
561.88098	0.05184
560.59521	0.05157
559.30944	0.05109
558.02367	0.05049
556.73790	0.04986
555.45213	0.04921
554.16636	0.04853
552.88060	0.04786
551.59483	0.04727
550.30906	0.04677
549.02329	0.04631
547.73752	0.04583
546.45175	0.04533
545.16598	0.04486
543.88021	0.04452
542.59444	0.04428
541.30868	0.04408
540.02291	0.04385
538.73714	0.04359
537.45137	0.04336
536.16560	0.04319
534.87983	0.04309
533.59406	0.04306
532.30829	0.04305
531.02253	0.04302
529.73676	0.04290
528.45099	0.04270
527.16522	0.04243
525.87945	0.04213
524.59368	0.04184
523.30791	0.04156
522.02214	0.04125
520.73637	0.04087
519.45061	0.04041
518.16484	0.03996
516.87907	0.03961
515.59330	0.03936
514.30753	0.03921
513.02176	0.03915
511.73599	0.03916
510.45022	0.03919
509.16446	0.03909
507.87869	0.03878
506.59292	0.03829
505.30715	0.03780
504.02138	0.03749
502.73561	0.03737
501.44984	0.03735
500.16407	0.03728
498.87830	0.03708
497.59254	0.03677
496.30677	0.03639
495.02100	0.03604
493.73523	0.03576
492.44946	0.03555
491.16369	0.03536
489.87792	0.03517
488.59215	0.03498
487.30639	0.03482
486.02062	0.03474
484.73485	0.03476
483.44908	0.03484
482.16331	0.03492
480.87754	0.03497
479.59177	0.03497
478.30600	0.03496
477.02023	0.03498
475.73447	0.03506
474.44870	0.03518
473.16293	0.03530
471.87716	0.03535
470.59139	0.03535
469.30562	0.03536
468.01985	0.03543
466.73408	0.03550
465.44832	0.03547
464.16255	0.03527
462.87678	0.03494
461.59101	0.03457
460.30524	0.03425
459.01947	0.03400
457.73370	0.03380
456.44793	0.03363
455.16216	0.03351
453.87640	0.03342
452.59063	0.03332
451.30486	0.03316
450.01909	0.03293
448.73332	0.03265
447.44755	0.03239
446.16178	0.03219
444.87601	0.03206
443.59025	0.03198
442.30448	0.03192
441.01871	0.03184
439.73294	0.03175
438.44717	0.03168
437.16140	0.03166
435.87563	0.03167
434.58986	0.03167
433.30409	0.03159
432.01833	0.03145
430.73256	0.03130
429.44679	0.03119
428.16102	0.03113
426.87525	0.03104
425.58948	0.03091
424.30371	0.03077
423.01794	0.03067
421.73218	0.03064
420.44641	0.03063
419.16064	0.03059
417.87487	0.03045
416.58910	0.03026
415.30333	0.03009
414.01756	0.02995
412.73179	0.02980
411.44602	0.02961
410.16026	0.02940
408.87449	0.02924
407.58872	0.02915
406.30295	0.02911
405.01718	0.02908
403.73141	0.02904
402.44564	0.02905
401.15987	0.02915
399.87411	0.02931
