3997.45528	0.01366
3996.16951	0.01355
3994.88374	0.01361
3993.59798	0.01391
3992.31221	0.01433
3991.02644	0.01462
3989.74067	0.01460
3988.45490	0.01423
3987.16913	0.01371
3985.88336	0.01330
3984.59759	0.01313
3983.31183	0.01319
3982.02606	0.01334
3980.74029	0.01346
3979.45452	0.01350
3978.16875	0.01354
3976.88298	0.01373
3975.59721	0.01414
3974.31144	0.01470
3973.02567	0.01525
3971.73991	0.01567
3970.45414	0.01592
3969.16837	0.01606
3967.88260	0.01603
3966.59683	0.01579
3965.31106	0.01541
3964.02529	0.01510
3962.73952	0.01506
3961.45376	0.01531
3960.16799	0.01572
3958.88222	0.01613
3957.59645	0.01638
3956.31068	0.01631
3955.02491	0.01581
3953.73914	0.01493
3952.45337	0.01396
3951.16760	0.01334
3949.88184	0.01336
3948.59607	0.01387
3947.31030	0.01448
3946.02453	0.01479
3944.73876	0.01471
3943.45299	0.01444
3942.16722	0.01420
3940.88145	0.01402
3939.59569	0.01380
3938.30992	0.01350
3937.02415	0.01323
3935.73838	0.01306
3934.45261	0.01291
3933.16684	0.01264
3931.88107	0.01237
3930.59530	0.01230
3929.30953	0.01246
3928.02377	0.01262
3926.73800	0.01264
3925.45223	0.01272
3924.16646	0.01307
3922.88069	0.01358
3921.59492	0.01391
3920.30915	0.01379
3919.02338	0.01332
3917.73762	0.01284
3916.45185	0.01273
3915.16608	0.01302
3913.88031	0.01344
3912.59454	0.01364
3911.30877	0.01353
3910.02300	0.01328
3908.73723	0.01308
3907.45146	0.01304
3906.16570	0.01312
3904.87993	0.01322
3903.59416	0.01328
3902.30839	0.01320
3901.02262	0.01294
3899.73685	0.01256
3898.45108	0.01226
3897.16531	0.01230
3895.87955	0.01274
3894.59378	0.01337
3893.30801	0.01371
3892.02224	0.01334
3890.73647	0.01227
3889.45070	0.01100
3888.16493	0.01026
3886.87916	0.01044
3885.59339	0.01136
3884.30763	0.01245
3883.02186	0.01329
3881.73609	0.01376
3880.45032	0.01400
3879.16455	0.01408
3877.87878	0.01400
3876.59301	0.01380
3875.30724	0.01364
3874.02148	0.01367
3872.73571	0.01389
3871.44994	0.01411
3870.16417	0.01405
3868.87840	0.01354
3867.59263	0.01264
3866.30686	0.01166
3865.02109	0.01101
3863.73532	0.01093
3862.44956	0.01126
3861.16379	0.01158
3859.87802	0.01161
3858.59225	0.01143
3857.30648	0.01133
3856.02071	0.01152
3854.73494	0.01201
3853.44917	0.01261
3852.16341	0.01301
3850.87764	0.01305
3849.59187	0.01281
3848.30610	0.01247
3847.02033	0.01210
3845.73456	0.01168
3844.44879	0.01143
3843.16302	0.01163
3841.87725	0.01232
3840.59149	0.01322
3839.30572	0.01386
3838.01995	0.01401
3836.73418	0.01377
3835.44841	0.01339
3834.16264	0.01309
3832.87687	0.01295
3831.59110	0.01295
3830.30534	0.01305
3829.01957	0.01320
3827.73380	0.01332
3826.44803	0.01338
3825.16226	0.01342
3823.87649	0.01341
3822.59072	0.01322
3821.30495	0.01286
3820.01918	0.01256
3818.73342	0.01254
3817.44765	0.01276
3816.16188	0.01299
3814.87611	0.01310
3813.59034	0.01319
3812.30457	0.01332
3811.01880	0.01330
3809.73303	0.01298
3808.44726	0.01254
3807.16150	0.01237
3805.87573	0.01259
3804.58996	0.01286
3803.30419	0.01278
3802.01842	0.01229
3800.73265	0.01173
3799.44688	0.01149
3798.16111	0.01174
3796.87535	0.01237
3795.58958	0.01308
3794.30381	0.01354
3793.01804	0.01361
3791.73227	0.01345
3790.44650	0.01332
3789.16073	0.01326
3787.87496	0.01317
3786.58919	0.01306
3785.30343	0.01318
3784.01766	0.01377
3782.73189	0.01471
3781.44612	0.01547
3780.16035	0.01550
3778.87458	0.01466
3777.58881	0.01341
3776.30304	0.01240
3775.01728	0.01199
3773.73151	0.01204
3772.44574	0.01220
3771.15997	0.01224
3769.87420	0.01220
3768.58843	0.01227
3767.30266	0.01251
3766.01689	0.01274
3764.73112	0.01266
3763.44536	0.01221
3762.15959	0.01163
3760.87382	0.01125
3759.58805	0.01116
3758.30228	0.01118
3757.01651	0.01111
3755.73074	0.01096
3754.44497	0.01082
3753.15921	0.01073
3751.87344	0.01067
3750.58767	0.01063
3749.30190	0.01064
3748.01613	0.01073
3746.73036	0.01097
3745.44459	0.01140
3744.15882	0.01197
3742.87305	0.01250
3741.58729	0.01284
3740.30152	0.01297
3739.01575	0.01295
3737.72998	0.01281
3736.44421	0.01255
3735.15844	0.01222
3733.87267	0.01190
3732.58690	0.01169
3731.30114	0.01169
3730.01537	0.01190
3728.72960	0.01224
3727.44383	0.01249
3726.15806	0.01251
3724.87229	0.01235
3723.58652	0.01219
3722.30075	0.01216
3721.01498	0.01223
3719.72922	0.01233
3718.44345	0.01242
3717.15768	0.01251
3715.87191	0.01260
3714.58614	0.01266
3713.30037	0.01269
3712.01460	0.01275
3710.72883	0.01280
3709.44307	0.01271
3708.15730	0.01240
3706.87153	0.01200
3705.58576	0.01172
3704.29999	0.01168
3703.01422	0.01187
3701.72845	0.01224
3700.44268	0.01265
3699.15691	0.01289
3697.87115	0.01285
3696.58538	0.01258
3695.29961	0.01207
3694.01384	0.01143
3692.72807	0.01101
3691.44230	0.01098
3690.15653	0.01125
3688.87076	0.01170
3687.58500	0.01218
3686.29923	0.01257
3685.01346	0.01287
3683.72769	0.01302
3682.44192	0.01292
3681.15615	0.01262
3679.87038	0.01229
3678.58461	0.01208
3677.29884	0.01215
3676.01308	0.01249
3674.72731	0.01291
3673.44154	0.01314
3672.15577	0.01298
3670.87000	0.01263
3669.58423	0.01238
3668.29846	0.01235
3667.01269	0.01232
3665.72693	0.01215
3664.44116	0.01197
3663.15539	0.01204
3661.86962	0.01243
3660.58385	0.01296
3659.29808	0.01339
3658.01231	0.01359
3656.72654	0.01360
3655.44077	0.01357
3654.15501	0.01357
3652.86924	0.01359
3651.58347	0.01353
3650.29770	0.01336
3649.01193	0.01313
3647.72616	0.01288
3646.44039	0.01261
3645.15462	0.01234
3643.86886	0.01216
3642.58309	0.01208
3641.29732	0.01211
3640.01155	0.01223
3638.72578	0.01248
3637.44001	0.01287
3636.15424	0.01329
3634.86847	0.01360
3633.58270	0.01369
3632.29694	0.01348
3631.01117	0.01305
3629.72540	0.01259
3628.43963	0.01235
3627.15386	0.01236
3625.86809	0.01240
3624.58232	0.01228
3623.29655	0.01205
3622.01079	0.01201
3620.72502	0.01234
3619.43925	0.01295
3618.15348	0.01360
3616.86771	0.01406
3615.58194	0.01427
3614.29617	0.01423
3613.01040	0.01404
3611.72463	0.01388
3610.43887	0.01393
3609.15310	0.01424
3607.86733	0.01468
3606.58156	0.01505
3605.29579	0.01525
3604.01002	0.01530
3602.72425	0.01536
3601.43848	0.01565
3600.15272	0.01620
3598.86695	0.01679
3597.58118	0.01712
3596.29541	0.01721
3595.00964	0.01719
3593.72387	0.01713
3592.43810	0.01698
3591.15233	0.01668
3589.86656	0.01622
3588.58080	0.01577
3587.29503	0.01562
3586.00926	0.01586
3584.72349	0.01629
3583.43772	0.01664
3582.15195	0.01673
3580.86618	0.01666
3579.58041	0.01667
3578.29464	0.01697
3577.00888	0.01749
3575.72311	0.01806
3574.43734	0.01842
3573.15157	0.01851
3571.86580	0.01842
3570.58003	0.01834
3569.29426	0.01843
3568.00849	0.01872
3566.72273	0.01911
3565.43696	0.01940
3564.15119	0.01942
3562.86542	0.01927
3561.57965	0.01925
3560.29388	0.01962
3559.00811	0.02028
3557.72234	0.02086
3556.43657	0.02109
3555.15081	0.02090
3553.86504	0.02047
3552.57927	0.02000
3551.29350	0.01966
3550.00773	0.01948
3548.72196	0.01942
3547.43619	0.01944
3546.15042	0.01954
3544.86466	0.01972
3543.57889	0.01989
3542.29312	0.01999
3541.00735	0.02000
3539.72158	0.01994
3538.43581	0.01984
3537.15004	0.01975
3535.86427	0.01979
3534.57850	0.02004
3533.29274	0.02049
3532.00697	0.02105
3530.72120	0.02146
3529.43543	0.02152
3528.14966	0.02124
3526.86389	0.02093
3525.57812	0.02098
3524.29235	0.02151
3523.00659	0.02227
3521.72082	0.02290
3520.43505	0.02317
3519.14928	0.02311
3517.86351	0.02297
3516.57774	0.02289
3515.29197	0.02285
3514.00620	0.02272
3512.72043	0.02248
3511.43467	0.02226
3510.14890	0.02223
3508.86313	0.02236
3507.57736	0.02254
3506.29159	0.02269
3505.00582	0.02276
3503.72005	0.02276
3502.43428	0.02269
3501.14852	0.02257
3499.86275	0.02249
3498.57698	0.02256
3497.29121	0.02280
3496.00544	0.02310
3494.71967	0.02331
3493.43390	0.02338
3492.14813	0.02344
3490.86236	0.02362
3489.57660	0.02396
3488.29083	0.02436
3487.00506	0.02470
3485.71929	0.02491
3484.43352	0.02498
3483.14775	0.02493
3481.86198	0.02483
3480.57621	0.02475
3479.29045	0.02480
3478.00468	0.02498
3476.71891	0.02518
3475.43314	0.02534
3474.14737	0.02547
3472.86160	0.02562
3471.57583	0.02570
3470.29006	0.02559
3469.00429	0.02533
3467.71853	0.02511
3466.43276	0.02509
3465.14699	0.02519
3463.86122	0.02521
3462.57545	0.02504
3461.28968	0.02482
3460.00391	0.02481
3458.71814	0.02517
3457.43238	0.02581
3456.14661	0.02644
3454.86084	0.02673
3453.57507	0.02656
3452.28930	0.02609
3451.00353	0.02563
3449.71776	0.02534
3448.43199	0.02516
3447.14622	0.02504
3445.86046	0.02501
3444.57469	0.02512
3443.28892	0.02533
3442.00315	0.02558
3440.71738	0.02591
3439.43161	0.02638
3438.14584	0.02701
3436.86007	0.02767
3435.57431	0.02820
3434.28854	0.02846
3433.00277	0.02851
3431.71700	0.02843
3430.43123	0.02829
3429.14546	0.02805
3427.85969	0.02770
3426.57392	0.02732
3425.28815	0.02704
3424.00239	0.02695
3422.71662	0.02708
3421.43085	0.02736
3420.14508	0.02773
3418.85931	0.02809
3417.57354	0.02840
3416.28777	0.02860
3415.00200	0.02865
3413.71624	0.02852
3412.43047	0.02825
3411.14470	0.02801
3409.85893	0.02791
3408.57316	0.02795
3407.28739	0.02805
3406.00162	0.02819
3404.71585	0.02840
3403.43008	0.02860
3402.14432	0.02870
3400.85855	0.02876
3399.57278	0.02890
3398.28701	0.02910
3397.00124	0.02929
3395.71547	0.02936
3394.42970	0.02932
3393.14393	0.02936
3391.85817	0.02964
3390.57240	0.03009
3389.28663	0.03052
3388.00086	0.03077
3386.71509	0.03079
3385.42932	0.03069
3384.14355	0.03066
3382.85778	0.03082
3381.57201	0.03108
3380.28625	0.03131
3379.00048	0.03147
3377.71471	0.03162
3376.42894	0.03177
3375.14317	0.03189
3373.85740	0.03190
3372.57163	0.03180
3371.28586	0.03165
3370.00010	0.03150
3368.71433	0.03134
3367.42856	0.03117
3366.14279	0.03102
3364.85702	0.03101
3363.57125	0.03124
3362.28548	0.03169
3360.99971	0.03225
3359.71394	0.03277
3358.42818	0.03312
3357.14241	0.03324
3355.85664	0.03314
3354.57087	0.03292
3353.28510	0.03278
3351.99933	0.03285
3350.71356	0.03320
3349.42779	0.03373
3348.14202	0.03430
3346.85626	0.03478
3345.57049	0.03511
3344.28472	0.03527
3342.99895	0.03532
3341.71318	0.03534
3340.42741	0.03539
3339.14164	0.03550
3337.85587	0.03562
3336.57011	0.03573
3335.28434	0.03583
3333.99857	0.03605
3332.71280	0.03645
3331.42703	0.03698
3330.14126	0.03744
3328.85549	0.03768
3327.56972	0.03766
3326.28395	0.03751
3324.99819	0.03743
3323.71242	0.03759
3322.42665	0.03798
3321.14088	0.03844
3319.85511	0.03868
3318.56934	0.03861
3317.28357	0.03839
3315.99780	0.03827
3314.71204	0.03835
3313.42627	0.03856
3312.14050	0.03875
3310.85473	0.03890
3309.56896	0.03902
3308.28319	0.03906
3306.99742	0.03897
3305.71165	0.03882
3304.42588	0.03875
3303.14012	0.03884
3301.85435	0.03899
3300.56858	0.03906
3299.28281	0.03903
3297.99704	0.03898
3296.71127	0.03902
3295.42550	0.03913
3294.13973	0.03931
3292.85397	0.03954
3291.56820	0.03979
3290.28243	0.03997
3288.99666	0.03995
3287.71089	0.03972
3286.42512	0.03938
3285.13935	0.03907
3283.85358	0.03893
3282.56781	0.03900
3281.28205	0.03916
3279.99628	0.03923
3278.71051	0.03909
3277.42474	0.03877
3276.13897	0.03845
3274.85320	0.03827
3273.56743	0.03830
3272.28166	0.03849
3270.99590	0.03866
3269.71013	0.03866
3268.42436	0.03851
3267.13859	0.03844
3265.85282	0.03860
3264.56705	0.03887
3263.28128	0.03903
3261.99551	0.03899
3260.70974	0.03887
3259.42398	0.03880
3258.13821	0.03878
3256.85244	0.03872
3255.56667	0.03866
3254.28090	0.03873
3252.99513	0.03893
3251.70936	0.03908
3250.42359	0.03896
3249.13783	0.03856
3247.85206	0.03810
3246.56629	0.03776
3245.28052	0.03755
3243.99475	0.03731
3242.70898	0.03696
3241.42321	0.03661
3240.13744	0.03645
3238.85167	0.03658
3237.56591	0.03694
3236.28014	0.03733
3234.99437	0.03758
3233.70860	0.03760
3232.42283	0.03742
3231.13706	0.03715
3229.85129	0.03689
3228.56552	0.03665
3227.27976	0.03645
3225.99399	0.03639
3224.70822	0.03658
3223.42245	0.03696
3222.13668	0.03733
3220.85091	0.03749
3219.56514	0.03744
3218.27937	0.03736
3216.99360	0.03734
3215.70784	0.03735
3214.42207	0.03726
3213.13630	0.03705
3211.85053	0.03679
3210.56476	0.03656
3209.27899	0.03634
3207.99322	0.03607
3206.70745	0.03575
3205.42169	0.03545
3204.13592	0.03521
3202.85015	0.03505
3201.56438	0.03495
3200.27861	0.03497
3198.99284	0.03519
3197.70707	0.03553
3196.42130	0.03576
3195.13553	0.03566
3193.84977	0.03527
3192.56400	0.03490
3191.27823	0.03479
3189.99246	0.03487
3188.70669	0.03490
3187.42092	0.03470
3186.13515	0.03433
3184.84938	0.03398
3183.56362	0.03377
3182.27785	0.03370
3180.99208	0.03370
3179.70631	0.03378
3178.42054	0.03391
3177.13477	0.03404
3175.84900	0.03406
3174.56323	0.03391
3173.27746	0.03364
3171.99170	0.03334
3170.70593	0.03313
3169.42016	0.03307
3168.13439	0.03315
3166.84862	0.03325
3165.56285	0.03328
3164.27708	0.03326
3162.99131	0.03324
3161.70555	0.03325
3160.41978	0.03325
3159.13401	0.03321
3157.84824	0.03321
3156.56247	0.03332
3155.27670	0.03347
3153.99093	0.03350
3152.70516	0.03327
3151.41939	0.03284
3150.13363	0.03235
3148.84786	0.03192
3147.56209	0.03162
3146.27632	0.03146
3144.99055	0.03137
3143.70478	0.03132
3142.41901	0.03130
3141.13324	0.03129
3139.84748	0.03124
3138.56171	0.03112
3137.27594	0.03097
3135.99017	0.03084
3134.70440	0.03078
3133.41863	0.03084
3132.13286	0.03095
3130.84709	0.03102
3129.56132	0.03099
3128.27556	0.03091
3126.98979	0.03089
3125.70402	0.03092
3124.41825	0.03094
3123.13248	0.03090
3121.84671	0.03087
3120.56094	0.03090
3119.27517	0.03101
3117.98940	0.03119
3116.70364	0.03143
3115.41787	0.03173
3114.13210	0.03199
3112.84633	0.03205
3111.56056	0.03189
3110.27479	0.03162
3108.98902	0.03141
3107.70325	0.03131
3106.41749	0.03134
3105.13172	0.03147
3103.84595	0.03160
3102.56018	0.03160
3101.27441	0.03146
3099.98864	0.03132
3098.70287	0.03137
3097.41710	0.03161
3096.13133	0.03185
3094.84557	0.03190
3093.55980	0.03173
3092.27403	0.03145
3090.98826	0.03124
3089.70249	0.03123
3088.41672	0.03145
3087.13095	0.03181
3085.84518	0.03211
3084.55942	0.03224
3083.27365	0.03219
3081.98788	0.03206
3080.70211	0.03190
3079.41634	0.03176
3078.13057	0.03165
3076.84480	0.03160
3075.55903	0.03159
3074.27326	0.03161
3072.98750	0.03163
3071.70173	0.03167
3070.41596	0.03174
3069.13019	0.03177
3067.84442	0.03163
3066.55865	0.03139
3065.27288	0.03127
3063.98711	0.03137
3062.70135	0.03156
3061.41558	0.03164
3060.12981	0.03157
3058.84404	0.03150
3057.55827	0.03152
3056.27250	0.03157
3054.98673	0.03159
3053.70096	0.03159
3052.41519	0.03160
3051.12943	0.03161
3049.84366	0.03157
3048.55789	0.03142
3047.27212	0.03114
3045.98635	0.03077
3044.70058	0.03041
3043.41481	0.03017
3042.12904	0.03009
3040.84328	0.03010
3039.55751	0.03011
3038.27174	0.03006
3036.98597	0.02992
3035.70020	0.02973
3034.41443	0.02957
3033.12866	0.02954
3031.84289	0.02961
3030.55712	0.02963
3029.27136	0.02955
3027.98559	0.02946
3026.69982	0.02945
3025.41405	0.02943
3024.12828	0.02923
3022.84251	0.02889
3021.55674	0.02871
3020.27097	0.02900
3018.98521	0.02967
3017.69944	0.03026
3016.41367	0.03036
3015.12790	0.02997
3013.84213	0.02938
3012.55636	0.02885
3011.27059	0.02852
3009.98482	0.02838
3008.69905	0.02838
3007.41329	0.02839
3006.12752	0.02836
3004.84175	0.02828
3003.55598	0.02821
3002.27021	0.02816
3000.98444	0.02805
2999.69867	0.02787
2998.41290	0.02787
2997.12714	0.02798
2995.84137	0.02823
2994.55560	0.02854
2993.26983	0.02872
2991.98406	0.02865
2990.69829	0.02842
2989.41252	0.02829
2988.12675	0.02841
2986.84098	0.02872
2985.55522	0.02909
2984.26945	0.02941
2982.98368	0.02959
2981.69791	0.02954
2980.41214	0.02923
2979.12637	0.02884
2977.84060	0.02861
2976.55483	0.02865
2975.26907	0.02890
2973.98330	0.02914
2972.69753	0.02914
2971.41176	0.02881
2970.12599	0.02832
2968.84022	0.02797
2967.55445	0.02792
2966.26868	0.02806
2964.98291	0.02820
2963.69715	0.02829
2962.41138	0.02834
2961.12561	0.02845
2959.83984	0.02863
2958.55407	0.02885
2957.26830	0.02905
2955.98253	0.02914
2954.69676	0.02908
2953.41100	0.02890
2952.12523	0.02873
2950.83946	0.02873
2949.55369	0.02897
2948.26792	0.02930
2946.98215	0.02952
2945.69638	0.02957
2944.41061	0.02948
2943.12484	0.02932
2941.83908	0.02912
2940.55331	0.02893
2939.26754	0.02879
2937.98177	0.02871
2936.69600	0.02867
2935.41023	0.02869
2934.12446	0.02879
2932.83869	0.02888
2931.55293	0.02883
2930.26716	0.02856
2928.98139	0.02822
2927.69562	0.02794
2926.40985	0.02771
2925.12408	0.02739
2923.83831	0.02701
2922.55254	0.02673
2921.26677	0.02673
2919.98101	0.02698
2918.69524	0.02731
2917.40947	0.02759
2916.12370	0.02770
2914.83793	0.02764
2913.55216	0.02749
2912.26639	0.02738
2910.98062	0.02739
2909.69486	0.02748
2908.40909	0.02760
2907.12332	0.02770
2905.83755	0.02777
2904.55178	0.02782
2903.26601	0.02783
2901.98024	0.02782
2900.69447	0.02781
2899.40870	0.02776
2898.12294	0.02761
2896.83717	0.02731
2895.55140	0.02694
2894.26563	0.02670
2892.97986	0.02676
2891.69409	0.02709
2890.40832	0.02747
2889.12255	0.02767
2887.83678	0.02762
2886.55102	0.02740
2885.26525	0.02719
2883.97948	0.02712
2882.69371	0.02722
2881.40794	0.02738
2880.12217	0.02743
2878.83640	0.02730
2877.55063	0.02709
2876.26487	0.02698
2874.97910	0.02704
2873.69333	0.02715
2872.40756	0.02717
2871.12179	0.02709
2869.83602	0.02697
2868.55025	0.02688
2867.26448	0.02676
2865.97871	0.02660
2864.69295	0.02640
2863.40718	0.02623
2862.12141	0.02610
2860.83564	0.02594
2859.54987	0.02567
2858.26410	0.02527
2856.97833	0.02488
2855.69256	0.02462
2854.40680	0.02452
2853.12103	0.02461
2851.83526	0.02492
2850.54949	0.02537
2849.26372	0.02574
2847.97795	0.02586
2846.69218	0.02574
2845.40641	0.02553
2844.12064	0.02538
2842.83488	0.02533
2841.54911	0.02540
2840.26334	0.02556
2838.97757	0.02569
2837.69180	0.02566
2836.40603	0.02548
2835.12026	0.02529
2833.83449	0.02518
2832.54873	0.02511
2831.26296	0.02501
2829.97719	0.02485
2828.69142	0.02467
2827.40565	0.02450
2826.11988	0.02440
2824.83411	0.02440
2823.54834	0.02452
2822.26257	0.02469
2820.97681	0.02481
2819.69104	0.02479
2818.40527	0.02465
2817.11950	0.02447
2815.83373	0.02432
2814.54796	0.02423
2813.26219	0.02421
2811.97642	0.02425
2810.69066	0.02430
2809.40489	0.02430
2808.11912	0.02420
2806.83335	0.02403
2805.54758	0.02389
2804.26181	0.02391
2802.97604	0.02411
2801.69027	0.02439
2800.40450	0.02460
2799.11874	0.02463
2797.83297	0.02447
2796.54720	0.02419
2795.26143	0.02393
2793.97566	0.02374
2792.68989	0.02363
2791.40412	0.02359
2790.11835	0.02357
2788.83259	0.02354
2787.54682	0.02346
2786.26105	0.02330
2784.97528	0.02312
2783.68951	0.02305
2782.40374	0.02315
2781.11797	0.02332
2779.83220	0.02343
2778.54643	0.02347
2777.26067	0.02351
2775.97490	0.02359
2774.68913	0.02366
2773.40336	0.02365
2772.11759	0.02356
2770.83182	0.02349
2769.54605	0.02347
2768.26028	0.02349
2766.97452	0.02348
2765.68875	0.02337
2764.40298	0.02317
2763.11721	0.02294
2761.83144	0.02277
2760.54567	0.02268
2759.25990	0.02267
2757.97413	0.02268
2756.68836	0.02268
2755.40260	0.02267
2754.11683	0.02271
2752.83106	0.02283
2751.54529	0.02296
2750.25952	0.02301
2748.97375	0.02298
2747.68798	0.02293
2746.40221	0.02288
2745.11645	0.02276
2743.83068	0.02249
2742.54491	0.02217
2741.25914	0.02198
2739.97337	0.02203
2738.68760	0.02224
2737.40183	0.02238
2736.11606	0.02235
2734.83029	0.02222
2733.54453	0.02214
2732.25876	0.02216
2730.97299	0.02221
2729.68722	0.02220
2728.40145	0.02211
2727.11568	0.02197
2725.82991	0.02182
2724.54414	0.02169
2723.25838	0.02161
2721.97261	0.02156
2720.68684	0.02155
2719.40107	0.02160
2718.11530	0.02172
2716.82953	0.02187
2715.54376	0.02191
2714.25799	0.02176
2712.97222	0.02151
2711.68646	0.02136
2710.40069	0.02141
2709.11492	0.02153
2707.82915	0.02155
2706.54338	0.02142
2705.25761	0.02124
2703.97184	0.02110
2702.68607	0.02105
2701.40031	0.02105
2700.11454	0.02104
2698.82877	0.02103
2697.54300	0.02104
2696.25723	0.02110
2694.97146	0.02120
2693.68569	0.02133
2692.39992	0.02147
2691.11415	0.02157
2689.82839	0.02152
2688.54262	0.02132
2687.25685	0.02109
2685.97108	0.02098
2684.68531	0.02098
2683.39954	0.02097
2682.11377	0.02083
2680.82800	0.02059
2679.54224	0.02037
2678.25647	0.02027
2676.97070	0.02034
2675.68493	0.02050
2674.39916	0.02059
2673.11339	0.02050
2671.82762	0.02026
2670.54185	0.02001
2669.25608	0.01986
2667.97032	0.01980
2666.68455	0.01985
2665.39878	0.02001
2664.11301	0.02025
2662.82724	0.02045
2661.54147	0.02056
2660.25570	0.02061
2658.96993	0.02073
2657.68417	0.02095
2656.39840	0.02123
2655.11263	0.02145
2653.82686	0.02150
2652.54109	0.02133
2651.25532	0.02100
2649.96955	0.02062
2648.68378	0.02029
2647.39801	0.02008
2646.11225	0.02002
2644.82648	0.02005
2643.54071	0.02014
2642.25494	0.02025
2640.96917	0.02031
2639.68340	0.02023
2638.39763	0.01996
2637.11186	0.01955
2635.82609	0.01915
2634.54033	0.01890
2633.25456	0.01881
2631.96879	0.01889
2630.68302	0.01909
2629.39725	0.01936
2628.11148	0.01962
2626.82571	0.01981
2625.53994	0.01985
2624.25418	0.01975
2622.96841	0.01955
2621.68264	0.01934
2620.39687	0.01910
2619.11110	0.01880
2617.82533	0.01842
2616.53956	0.01810
2615.25379	0.01799
2613.96802	0.01819
2612.68226	0.01856
2611.39649	0.01886
2610.11072	0.01889
2608.82495	0.01871
2607.53918	0.01845
2606.25341	0.01824
2604.96764	0.01812
2603.68187	0.01813
2602.39611	0.01825
2601.11034	0.01835
2599.82457	0.01827
2598.53880	0.01799
2597.25303	0.01764
2595.96726	0.01740
2594.68149	0.01734
2593.39572	0.01744
2592.10995	0.01766
2590.82419	0.01794
2589.53842	0.01817
2588.25265	0.01829
2586.96688	0.01839
2585.68111	0.01859
2584.39534	0.01879
2583.10957	0.01879
2581.82380	0.01846
2580.53804	0.01794
2579.25227	0.01742
2577.96650	0.01702
2576.68073	0.01677
2575.39496	0.01667
2574.10919	0.01667
2572.82342	0.01667
2571.53765	0.01661
2570.25188	0.01654
2568.96612	0.01659
2567.68035	0.01676
2566.39458	0.01690
2565.10881	0.01688
2563.82304	0.01671
2562.53727	0.01649
2561.25150	0.01628
2559.96573	0.01616
2558.67997	0.01616
2557.39420	0.01620
2556.10843	0.01616
2554.82266	0.01598
2553.53689	0.01581
2552.25112	0.01578
2550.96535	0.01591
2549.67958	0.01612
2548.39381	0.01631
2547.10805	0.01635
2545.82228	0.01621
2544.53651	0.01599
2543.25074	0.01583
2541.96497	0.01578
2540.67920	0.01581
2539.39343	0.01588
2538.10766	0.01596
2536.82190	0.01610
2535.53613	0.01624
2534.25036	0.01629
2532.96459	0.01614
2531.67882	0.01580
2530.39305	0.01537
2529.10728	0.01497
2527.82151	0.01473
2526.53574	0.01477
2525.24998	0.01504
2523.96421	0.01537
2522.67844	0.01566
2521.39267	0.01594
2520.10690	0.01631
2518.82113	0.01668
2517.53536	0.01689
2516.24959	0.01693
2514.96383	0.01692
2513.67806	0.01693
2512.39229	0.01689
2511.10652	0.01664
2509.82075	0.01609
2508.53498	0.01533
2507.24921	0.01464
2505.96344	0.01435
2504.67767	0.01457
2503.39191	0.01513
2502.10614	0.01571
2500.82037	0.01614
2499.53460	0.01638
2498.24883	0.01641
2496.96306	0.01620
2495.67729	0.01580
2494.39152	0.01536
2493.10576	0.01500
2491.81999	0.01477
2490.53422	0.01465
2489.24845	0.01459
2487.96268	0.01457
2486.67691	0.01457
2485.39114	0.01458
2484.10537	0.01453
2482.81960	0.01438
2481.53384	0.01422
2480.24807	0.01416
2478.96230	0.01429
2477.67653	0.01458
2476.39076	0.01495
2475.10499	0.01528
2473.81922	0.01541
2472.53345	0.01531
2471.24769	0.01506
2469.96192	0.01485
2468.67615	0.01475
2467.39038	0.01472
2466.10461	0.01473
2464.81884	0.01483
2463.53307	0.01512
2462.24730	0.01556
2460.96153	0.01590
2459.67577	0.01584
2458.39000	0.01537
2457.10423	0.01475
2455.81846	0.01428
2454.53269	0.01403
2453.24692	0.01395
2451.96115	0.01395
2450.67538	0.01407
2449.38962	0.01433
2448.10385	0.01463
2446.81808	0.01483
2445.53231	0.01491
2444.24654	0.01500
2442.96077	0.01512
2441.67500	0.01520
2440.38923	0.01514
2439.10346	0.01502
2437.81770	0.01496
2436.53193	0.01498
2435.24616	0.01500
2433.96039	0.01500
2432.67462	0.01501
2431.38885	0.01501
2430.10308	0.01494
2428.81731	0.01475
2427.53155	0.01449
2426.24578	0.01429
2424.96001	0.01417
2423.67424	0.01410
2422.38847	0.01408
2421.10270	0.01412
2419.81693	0.01420
2418.53116	0.01421
2417.24539	0.01409
2415.95963	0.01403
2414.67386	0.01422
2413.38809	0.01461
2412.10232	0.01492
2410.81655	0.01501
2409.53078	0.01504
2408.24501	0.01521
2406.95924	0.01541
2405.67347	0.01536
2404.38771	0.01501
2403.10194	0.01459
2401.81617	0.01433
2400.53040	0.01425
2399.24463	0.01423
2397.95886	0.01409
2396.67309	0.01388
2395.38732	0.01373
2394.10156	0.01377
2392.81579	0.01394
2391.53002	0.01412
2390.24425	0.01421
2388.95848	0.01419
2387.67271	0.01413
2386.38694	0.01407
2385.10117	0.01406
2383.81540	0.01413
2382.52964	0.01427
2381.24387	0.01443
2379.95810	0.01456
2378.67233	0.01466
2377.38656	0.01481
2376.10079	0.01506
2374.81502	0.01529
2373.52925	0.01550
2372.24349	0.01564
2370.95772	0.01586
2369.67195	0.01594
2368.38618	0.01591
2367.10041	0.01595
2365.81464	0.01616
2364.52887	0.01620
2363.24310	0.01625
2361.95733	0.01662
2360.67157	0.01729
2359.38580	0.01751
2358.10003	0.01725
2356.81426	0.01681
2355.52849	0.01642
2354.24272	0.01612
2352.95695	0.01584
2351.67118	0.01591
2350.38542	0.01626
2349.09965	0.01622
2347.81388	0.01570
2346.52811	0.01575
2345.24234	0.01635
2343.95657	0.01644
2342.67080	0.01577
2341.38503	0.01596
2340.09926	0.01712
2338.81350	0.01709
2337.52773	0.01590
2336.24196	0.01613
2334.95619	0.01745
2333.67042	0.01725
2332.38465	0.01589
2331.09888	0.01647
2329.81311	0.01734
2328.52735	0.01636
2327.24158	0.01691
2325.95581	0.01820
2324.67004	0.01741
2323.38427	0.01671
2322.09850	0.01671
2320.81273	0.01536
2319.52696	0.01479
2318.24119	0.01497
2316.95543	0.01446
2315.66966	0.01459
2314.38389	0.01502
2313.09812	0.01494
2311.81235	0.01508
2310.52658	0.01497
2309.24081	0.01488
2307.95504	0.01508
2306.66928	0.01498
2305.38351	0.01477
2304.09774	0.01432
2302.81197	0.01371
2301.52620	0.01341
2300.24043	0.01344
2298.95466	0.01387
2297.66889	0.01437
2296.38312	0.01472
2295.09736	0.01489
2293.81159	0.01488
2292.52582	0.01481
2291.24005	0.01468
2289.95428	0.01456
2288.66851	0.01446
2287.38274	0.01429
2286.09697	0.01398
2284.81121	0.01354
2283.52544	0.01321
2282.23967	0.01311
2280.95390	0.01321
2279.66813	0.01327
2278.38236	0.01319
2277.09659	0.01301
2275.81082	0.01281
2274.52505	0.01260
2273.23929	0.01244
2271.95352	0.01246
2270.66775	0.01265
2269.38198	0.01282
2268.09621	0.01278
2266.81044	0.01260
2265.52467	0.01253
2264.23890	0.01265
2262.95314	0.01287
2261.66737	0.01301
2260.38160	0.01292
2259.09583	0.01257
2257.81006	0.01208
2256.52429	0.01157
2255.23852	0.01119
2253.95275	0.01113
2252.66698	0.01147
2251.38122	0.01197
2250.09545	0.01218
2248.80968	0.01178
2247.52391	0.01109
2246.23814	0.01058
2244.95237	0.01073
2243.66660	0.01143
2242.38083	0.01208
2241.09507	0.01208
2239.80930	0.01141
2238.52353	0.01057
2237.23776	0.01012
2235.95199	0.01022
2234.66622	0.01057
2233.38045	0.01084
2232.09468	0.01097
2230.80891	0.01099
2229.52315	0.01092
2228.23738	0.01077
2226.95161	0.01073
2225.66584	0.01106
2224.38007	0.01166
2223.09430	0.01196
2221.80853	0.01141
2220.52276	0.01009
2219.23700	0.00878
2217.95123	0.00822
2216.66546	0.00832
2215.37969	0.00848
2214.09392	0.00838
2212.80815	0.00836
2211.52238	0.00876
2210.23661	0.00936
2208.95084	0.00958
2207.66508	0.00918
2206.37931	0.00858
2205.09354	0.00838
2203.80777	0.00877
2202.52200	0.00942
2201.23623	0.00984
2199.95046	0.00997
2198.66469	0.01005
2197.37893	0.01032
2196.09316	0.01063
2194.80739	0.01075
2193.52162	0.01070
2192.23585	0.01072
2190.95008	0.01093
2189.66431	0.01105
2188.37854	0.01074
2187.09277	0.01010
2185.80701	0.00965
2184.52124	0.00975
2183.23547	0.01017
2181.94970	0.01036
2180.66393	0.00997
2179.37816	0.00908
2178.09239	0.00805
2176.80662	0.00729
2175.52085	0.00709
2174.23509	0.00739
2172.94932	0.00785
2171.66355	0.00825
2170.37778	0.00867
2169.09201	0.00930
2167.80624	0.01015
2166.52047	0.01108
2165.23470	0.01197
2163.94894	0.01249
2162.66317	0.01212
2161.37740	0.01057
2160.09163	0.00828
2158.80586	0.00630
2157.52009	0.00544
2156.23432	0.00570
2154.94855	0.00651
2153.66278	0.00724
2152.37702	0.00760
2151.09125	0.00763
2149.80548	0.00747
2148.51971	0.00718
2147.23394	0.00677
2145.94817	0.00631
2144.66240	0.00596
2143.37663	0.00594
2142.09087	0.00633
2140.80510	0.00693
2139.51933	0.00740
2138.23356	0.00760
2136.94779	0.00764
2135.66202	0.00762
2134.37625	0.00751
2133.09048	0.00740
2131.80471	0.00759
2130.51895	0.00811
2129.23318	0.00859
2127.94741	0.00870
2126.66164	0.00847
2125.37587	0.00825
2124.09010	0.00827
2122.80433	0.00849
2121.51856	0.00882
2120.23280	0.00922
2118.94703	0.00967
2117.66126	0.01011
2116.37549	0.01039
2115.08972	0.01041
2113.80395	0.01018
2112.51818	0.00987
2111.23241	0.00971
2109.94664	0.00978
2108.66088	0.00994
2107.37511	0.01000
2106.08934	0.00994
2104.80357	0.00996
2103.51780	0.01021
2102.23203	0.01034
2100.94626	0.01032
2099.66049	0.01705
2098.37473	0.02026
2097.08896	0.02021
2095.80319	0.01925
2094.51742	0.01756
2093.23165	0.01516
2091.94588	0.01263
2090.66011	0.01064
2089.37434	0.00956
2088.08857	0.00932
2086.80281	0.00959
2085.51704	0.01007
2084.23127	0.01062
2082.94550	0.01133
2081.65973	0.01231
2080.37396	0.01353
2079.08819	0.01484
2077.80242	0.01608
2076.51666	0.01724
2075.23089	0.01829
2073.94512	0.01911
2072.65935	0.01954
2071.37358	0.01957
2070.08781	0.01935
2068.80204	0.01896
2067.51627	0.01838
2066.23050	0.01758
2064.94474	0.01665
2063.65897	0.01568
2062.37320	0.01466
2061.08743	0.01356
2059.80166	0.01241
2058.51589	0.01124
2057.23012	0.00994
2055.94435	0.00840
2054.65859	0.00707
2053.37282	0.00704
2052.08705	0.00947
2050.80128	0.01424
2049.51551	0.01962
2048.22974	0.02348
2046.94397	0.02493
2045.65820	0.02461
2044.37243	0.02368
2043.08667	0.02278
2041.80090	0.02205
2040.51513	0.02151
2039.22936	0.02135
2037.94359	0.02171
2036.65782	0.02250
2035.37205	0.02338
2034.08628	0.02387
2032.80052	0.02361
2031.51475	0.02245
2030.22898	0.02052
2028.94321	0.01822
2027.65744	0.01610
2026.37167	0.01460
2025.08590	0.01384
2023.80013	0.01361
2022.51436	0.01363
2021.22860	0.01374
2019.94283	0.01384
2018.65706	0.01398
2017.37129	0.01445
2016.08552	0.01562
2014.79975	0.01751
2013.51398	0.01963
2012.22821	0.02149
2010.94245	0.02303
2009.65668	0.02442
2008.37091	0.02544
2007.08514	0.02534
2005.79937	0.02345
2004.51360	0.02003
2003.22783	0.01617
2001.94206	0.01300
2000.65629	0.01093
1999.37053	0.00960
1998.08476	0.00851
1996.79899	0.00748
1995.51322	0.00669
1994.22745	0.00628
1992.94168	0.00612
1991.65591	0.00594
1990.37014	0.00563
1989.08438	0.00543
1987.79861	0.00579
1986.51284	0.00691
1985.22707	0.00875
1983.94130	0.01139
1982.65553	0.01521
1981.36976	0.02045
1980.08399	0.02655
1978.79822	0.03200
1977.51246	0.03516
1976.22669	0.03538
1974.94092	0.03326
1973.65515	0.03002
1972.36938	0.02664
1971.08361	0.02369
1969.79784	0.02147
1968.51207	0.02007
1967.22631	0.01942
1965.94054	0.01933
1964.65477	0.01955
1963.36900	0.01973
1962.08323	0.01948
1960.79746	0.01851
1959.51169	0.01679
1958.22592	0.01470
1956.94015	0.01289
1955.65439	0.01188
1954.36862	0.01166
1953.08285	0.01176
1951.79708	0.01179
1950.51131	0.01186
1949.22554	0.01238
1947.93977	0.01358
1946.65400	0.01513
1945.36823	0.01645
1944.08247	0.01717
1942.79670	0.01733
1941.51093	0.01713
1940.22516	0.01680
1938.93939	0.01650
1937.65362	0.01637
1936.36785	0.01640
1935.08208	0.01641
1933.79632	0.01628
1932.51055	0.01607
1931.22478	0.01588
1929.93901	0.01570
1928.65324	0.01539
1927.36747	0.01489
1926.08170	0.01428
1924.79593	0.01364
1923.51016	0.01310
1922.22440	0.01278
1920.93863	0.01275
1919.65286	0.01295
1918.36709	0.01321
1917.08132	0.01344
1915.79555	0.01369
1914.50978	0.01402
1913.22401	0.01442
1911.93825	0.01480
1910.65248	0.01505
1909.36671	0.01509
1908.08094	0.01496
1906.79517	0.01473
1905.50940	0.01446
1904.22363	0.01420
1902.93786	0.01404
1901.65209	0.01405
1900.36633	0.01422
1899.08056	0.01447
1897.79479	0.01469
1896.50902	0.01483
1895.22325	0.01488
1893.93748	0.01482
1892.65171	0.01465
1891.36594	0.01437
1890.08018	0.01403
1888.79441	0.01361
1887.50864	0.01318
1886.22287	0.01282
1884.93710	0.01265
1883.65133	0.01269
1882.36556	0.01283
1881.07979	0.01296
1879.79402	0.01303
1878.50826	0.01305
1877.22249	0.01306
1875.93672	0.01308
1874.65095	0.01308
1873.36518	0.01302
1872.07941	0.01292
1870.79364	0.01282
1869.50787	0.01282
1868.22211	0.01285
1866.93634	0.01282
1865.65057	0.01267
1864.36480	0.01249
1863.07903	0.01241
1861.79326	0.01247
1860.50749	0.01260
1859.22172	0.01278
1857.93595	0.01295
1856.65019	0.01305
1855.36442	0.01301
1854.07865	0.01287
1852.79288	0.01270
1851.50711	0.01260
1850.22134	0.01256
1848.93557	0.01246
1847.64980	0.01224
1846.36404	0.01192
1845.07827	0.01165
1843.79250	0.01155
1842.50673	0.01155
1841.22096	0.01150
1839.93519	0.01130
1838.64942	0.01097
1837.36365	0.01065
1836.07788	0.01053
1834.79212	0.01067
1833.50635	0.01102
1832.22058	0.01146
1830.93481	0.01188
1829.64904	0.01221
1828.36327	0.01252
1827.07750	0.01294
1825.79173	0.01359
1824.50597	0.01452
1823.22020	0.01564
1821.93443	0.01672
1820.64866	0.01741
1819.36289	0.01728
1818.07712	0.01611
1816.79135	0.01408
1815.50558	0.01175
1814.21981	0.00976
1812.93405	0.00844
1811.64828	0.00778
1810.36251	0.00757
1809.07674	0.00762
1807.79097	0.00783
1806.50520	0.00816
1805.21943	0.00853
1803.93366	0.00886
1802.64790	0.00909
1801.36213	0.00928
1800.07636	0.00949
1798.79059	0.00972
1797.50482	0.00993
1796.21905	0.01011
1794.93328	0.01028
1793.64751	0.01049
1792.36174	0.01073
1791.07598	0.01093
1789.79021	0.01106
1788.50444	0.01111
1787.21867	0.01112
1785.93290	0.01113
1784.64713	0.01115
1783.36136	0.01117
1782.07559	0.01124
1780.78983	0.01133
1779.50406	0.01136
1778.21829	0.01119
1776.93252	0.01076
1775.64675	0.01021
1774.36098	0.00971
1773.07521	0.00940
1771.78944	0.00927
1770.50367	0.00925
1769.21791	0.00926
1767.93214	0.00923
1766.64637	0.00915
1765.36060	0.00904
1764.07483	0.00897
1762.78906	0.00894
1761.50329	0.00894
1760.21752	0.00891
1758.93176	0.00884
1757.64599	0.00876
1756.36022	0.00869
1755.07445	0.00862
1753.78868	0.00854
1752.50291	0.00845
1751.21714	0.00838
1749.93137	0.00838
1748.64560	0.00845
1747.35984	0.00857
1746.07407	0.00870
1744.78830	0.00879
1743.50253	0.00880
1742.21676	0.00874
1740.93099	0.00867
1739.64522	0.00867
1738.35945	0.00877
1737.07369	0.00892
1735.78792	0.00903
1734.50215	0.00904
1733.21638	0.00895
1731.93061	0.00888
1730.64484	0.00889
1729.35907	0.00897
1728.07330	0.00906
1726.78753	0.00910
1725.50177	0.00908
1724.21600	0.00907
1722.93023	0.00911
1721.64446	0.00922
1720.35869	0.00935
1719.07292	0.00947
1717.78715	0.00956
1716.50138	0.00965
1715.21561	0.00978
1713.92985	0.00995
1712.64408	0.01017
1711.35831	0.01042
1710.07254	0.01070
1708.78677	0.01104
1707.50100	0.01144
1706.21523	0.01191
1704.92946	0.01240
1703.64370	0.01289
1702.35793	0.01338
1701.07216	0.01394
1699.78639	0.01463
1698.50062	0.01544
1697.21485	0.01627
1695.92908	0.01706
1694.64331	0.01781
1693.35754	0.01856
1692.07178	0.01932
1690.78601	0.02006
1689.50024	0.02079
1688.21447	0.02152
1686.92870	0.02230
1685.64293	0.02314
1684.35716	0.02402
1683.07139	0.02489
1681.78563	0.02573
1680.49986	0.02657
1679.21409	0.02747
1677.92832	0.02844
1676.64255	0.02946
1675.35678	0.03048
1674.07101	0.03143
1672.78524	0.03232
1671.49947	0.03323
1670.21371	0.03421
1668.92794	0.03523
1667.64217	0.03621
1666.35640	0.03711
1665.07063	0.03797
1663.78486	0.03884
1662.49909	0.03973
1661.21332	0.04058
1659.92756	0.04135
1658.64179	0.04203
1657.35602	0.04267
1656.07025	0.04327
1654.78448	0.04382
1653.49871	0.04432
1652.21294	0.04474
1650.92717	0.04509
1649.64140	0.04538
1648.35564	0.04564
1647.06987	0.04593
1645.78410	0.04623
1644.49833	0.04651
1643.21256	0.04672
1641.92679	0.04685
1640.64102	0.04694
1639.35525	0.04702
1638.06949	0.04713
1636.78372	0.04728
1635.49795	0.04742
1634.21218	0.04749
1632.92641	0.04747
1631.64064	0.04734
1630.35487	0.04707
1629.06910	0.04666
1627.78333	0.04615
1626.49757	0.04559
1625.21180	0.04501
1623.92603	0.04437
1622.64026	0.04362
1621.35449	0.04275
1620.06872	0.04183
1618.78295	0.04092
1617.49718	0.04004
1616.21142	0.03917
1614.92565	0.03829
1613.63988	0.03738
1612.35411	0.03644
1611.06834	0.03550
1609.78257	0.03459
1608.49680	0.03371
1607.21103	0.03289
1605.92526	0.03215
1604.63950	0.03150
1603.35373	0.03091
1602.06796	0.03037
1600.78219	0.02985
1599.49642	0.02936
1598.21065	0.02890
1596.92488	0.02843
1595.63911	0.02796
1594.35335	0.02752
1593.06758	0.02715
1591.78181	0.02690
1590.49604	0.02675
1589.21027	0.02666
1587.92450	0.02658
1586.63873	0.02649
1585.35296	0.02642
1584.06719	0.02639
1582.78143	0.02639
1581.49566	0.02640
1580.20989	0.02645
1578.92412	0.02654
1577.63835	0.02671
1576.35258	0.02694
1575.06681	0.02721
1573.78104	0.02751
1572.49528	0.02785
1571.20951	0.02823
1569.92374	0.02865
1568.63797	0.02908
1567.35220	0.02949
1566.06643	0.02992
1564.78066	0.03037
1563.49489	0.03086
1562.20912	0.03137
1560.92336	0.03189
1559.63759	0.03245
1558.35182	0.03304
1557.06605	0.03365
1555.78028	0.03425
1554.49451	0.03480
1553.20874	0.03529
1551.92297	0.03575
1550.63721	0.03618
1549.35144	0.03659
1548.06567	0.03696
1546.77990	0.03729
1545.49413	0.03759
1544.20836	0.03789
1542.92259	0.03817
1541.63682	0.03842
1540.35105	0.03863
1539.06529	0.03877
1537.77952	0.03884
1536.49375	0.03887
1535.20798	0.03892
1533.92221	0.03902
1532.63644	0.03915
1531.35067	0.03927
1530.06490	0.03934
1528.77914	0.03936
1527.49337	0.03934
1526.20760	0.03929
1524.92183	0.03919
1523.63606	0.03906
1522.35029	0.03890
1521.06452	0.03873
1519.77875	0.03857
1518.49298	0.03840
1517.20722	0.03820
1515.92145	0.03793
1514.63568	0.03758
1513.34991	0.03717
1512.06414	0.03674
1510.77837	0.03632
1509.49260	0.03591
1508.20683	0.03546
1506.92107	0.03495
1505.63530	0.03436
1504.34953	0.03375
1503.06376	0.03317
1501.77799	0.03261
1500.49222	0.03204
1499.20645	0.03144
1497.92068	0.03081
1496.63491	0.03021
1495.34915	0.02967
1494.06338	0.02917
1492.77761	0.02866
1491.49184	0.02811
1490.20607	0.02755
1488.92030	0.02698
1487.63453	0.02647
1486.34876	0.02602
1485.06299	0.02565
1483.77723	0.02535
1482.49146	0.02510
1481.20569	0.02486
1479.91992	0.02465
1478.63415	0.02445
1477.34838	0.02431
1476.06261	0.02422
1474.77684	0.02423
1473.49108	0.02432
1472.20531	0.02448
1470.91954	0.02470
1469.63377	0.02496
1468.34800	0.02526
1467.06223	0.02557
1465.77646	0.02588
1464.49069	0.02619
1463.20492	0.02653
1461.91916	0.02692
1460.63339	0.02736
1459.34762	0.02784
1458.06185	0.02835
1456.77608	0.02889
1455.49031	0.02944
1454.20454	0.02993
1452.91877	0.03028
1451.63301	0.03048
1450.34724	0.03052
1449.06147	0.03048
1447.77570	0.03037
1446.48993	0.03023
1445.20416	0.03003
1443.91839	0.02976
1442.63262	0.02945
1441.34685	0.02916
1440.06109	0.02894
1438.77532	0.02875
1437.48955	0.02851
1436.20378	0.02817
1434.91801	0.02774
1433.63224	0.02732
1432.34647	0.02696
1431.06070	0.02669
1429.77494	0.02647
1428.48917	0.02629
1427.20340	0.02613
1425.91763	0.02600
1424.63186	0.02590
1423.34609	0.02581
1422.06032	0.02576
1420.77455	0.02576
1419.48878	0.02580
1418.20302	0.02585
1416.91725	0.02588
1415.63148	0.02588
1414.34571	0.02585
1413.05994	0.02581
1411.77417	0.02576
1410.48840	0.02574
1409.20263	0.02577
1407.91687	0.02584
1406.63110	0.02592
1405.34533	0.02597
1404.05956	0.02597
1402.77379	0.02594
1401.48802	0.02590
1400.20225	0.02589
1398.91648	0.02589
1397.63071	0.02587
1396.34495	0.02581
1395.05918	0.02573
1393.77341	0.02566
1392.48764	0.02560
1391.20187	0.02557
1389.91610	0.02553
1388.63033	0.02546
1387.34456	0.02538
1386.05880	0.02529
1384.77303	0.02517
1383.48726	0.02504
1382.20149	0.02491
1380.91572	0.02480
1379.62995	0.02469
1378.34418	0.02457
1377.05841	0.02441
1375.77264	0.02425
1374.48688	0.02408
1373.20111	0.02389
1371.91534	0.02370
1370.62957	0.02351
1369.34380	0.02332
1368.05803	0.02312
1366.77226	0.02291
1365.48649	0.02270
1364.20073	0.02249
1362.91496	0.02228
1361.62919	0.02207
1360.34342	0.02185
1359.05765	0.02165
1357.77188	0.02146
1356.48611	0.02132
1355.20034	0.02121
1353.91457	0.02113
1352.62881	0.02105
1351.34304	0.02099
1350.05727	0.02096
1348.77150	0.02096
1347.48573	0.02097
1346.19996	0.02099
1344.91419	0.02104
1343.62842	0.02113
1342.34266	0.02124
1341.05689	0.02134
1339.77112	0.02143
1338.48535	0.02155
1337.19958	0.02171
1335.91381	0.02189
1334.62804	0.02202
1333.34227	0.02204
1332.05650	0.02194
1330.77074	0.02176
1329.48497	0.02157
1328.19920	0.02141
1326.91343	0.02130
1325.62766	0.02122
1324.34189	0.02119
1323.05612	0.02119
1321.77035	0.02123
1320.48459	0.02129
1319.19882	0.02131
1317.91305	0.02126
1316.62728	0.02115
1315.34151	0.02103
1314.05574	0.02095
1312.76997	0.02091
1311.48420	0.02087
1310.19843	0.02080
1308.91267	0.02075
1307.62690	0.02078
1306.34113	0.02087
1305.05536	0.02096
1303.76959	0.02097
1302.48382	0.02089
1301.19805	0.02080
1299.91228	0.02073
1298.62652	0.02067
1297.34075	0.02060
1296.05498	0.02053
1294.76921	0.02046
1293.48344	0.02044
1292.19767	0.02045
1290.91190	0.02051
1289.62613	0.02059
1288.34036	0.02068
1287.05460	0.02077
1285.76883	0.02086
1284.48306	0.02094
1283.19729	0.02100
1281.91152	0.02101
1280.62575	0.02098
1279.33998	0.02093
1278.05421	0.02089
1276.76845	0.02087
1275.48268	0.02088
1274.19691	0.02091
1272.91114	0.02097
1271.62537	0.02104
1270.33960	0.02113
1269.05383	0.02123
1267.76806	0.02134
1266.48229	0.02147
1265.19653	0.02161
1263.91076	0.02175
1262.62499	0.02188
1261.33922	0.02201
1260.05345	0.02211
1258.76768	0.02220
1257.48191	0.02228
1256.19614	0.02237
1254.91037	0.02251
1253.62461	0.02269
1252.33884	0.02291
1251.05307	0.02313
1249.76730	0.02336
1248.48153	0.02361
1247.19576	0.02389
1245.90999	0.02419
1244.62422	0.02449
1243.33846	0.02479
1242.05269	0.02508
1240.76692	0.02533
1239.48115	0.02554
1238.19538	0.02571
1236.90961	0.02585
1235.62384	0.02596
1234.33807	0.02604
1233.05230	0.02606
1231.76654	0.02600
1230.48077	0.02588
1229.19500	0.02570
1227.90923	0.02550
1226.62346	0.02530
1225.33769	0.02510
1224.05192	0.02489
1222.76615	0.02463
1221.48039	0.02437
1220.19462	0.02412
1218.90885	0.02390
1217.62308	0.02370
1216.33731	0.02350
1215.05154	0.02332
1213.76577	0.02314
1212.48000	0.02300
1211.19423	0.02289
1209.90847	0.02286
1208.62270	0.02291
1207.33693	0.02304
1206.05116	0.02321
1204.76539	0.02341
1203.47962	0.02364
1202.19385	0.02382
1200.90808	0.02347
1199.62232	0.02237
1198.33655	0.02231
1197.05078	0.02221
1195.76501	0.02203
1194.47924	0.02181
1193.19347	0.02160
1191.90770	0.02140
1190.62193	0.02119
1189.33616	0.02098
1188.05040	0.02081
1186.76463	0.02068
1185.47886	0.02061
1184.19309	0.02054
1182.90732	0.02047
1181.62155	0.02040
1180.33578	0.02035
1179.05001	0.02030
1177.76425	0.02027
1176.47848	0.02024
1175.19271	0.02019
1173.90694	0.02015
1172.62117	0.02017
1171.33540	0.02028
1170.04963	0.02043
1168.76386	0.02055
1167.47809	0.02060
1166.19233	0.02063
1164.90656	0.02071
1163.62079	0.02086
1162.33502	0.02103
1161.04925	0.02117
1159.76348	0.02127
1158.47771	0.02135
1157.19194	0.02141
1155.90618	0.02146
1154.62041	0.02151
1153.33464	0.02156
1152.04887	0.02158
1150.76310	0.02152
1149.47733	0.02136
1148.19156	0.02114
1146.90579	0.02092
1145.62002	0.02076
1144.33426	0.02066
1143.04849	0.02064
1141.76272	0.02067
1140.47695	0.02076
1139.19118	0.02088
1137.90541	0.02102
1136.61964	0.02119
1135.33387	0.02138
1134.04811	0.02156
1132.76234	0.02168
1131.47657	0.02178
1130.19080	0.02190
1128.90503	0.02208
1127.61926	0.02233
1126.33349	0.02266
1125.04772	0.02313
1123.76195	0.02372
1122.47619	0.02438
1121.19042	0.02500
1119.90465	0.02557
1118.61888	0.02618
1117.33311	0.02686
1116.04734	0.02758
1114.76157	0.02824
1113.47580	0.02884
1112.19004	0.02943
1110.90427	0.03006
1109.61850	0.03068
1108.33273	0.03128
1107.04696	0.03186
1105.76119	0.03247
1104.47542	0.03311
1103.18965	0.03373
1101.90388	0.03430
1100.61812	0.03481
1099.33235	0.03530
1098.04658	0.03575
1096.76081	0.03612
1095.47504	0.03638
1094.18927	0.03654
1092.90350	0.03662
1091.61773	0.03661
1090.33197	0.03655
1089.04620	0.03649
1087.76043	0.03651
1086.47466	0.03664
1085.18889	0.03687
1083.90312	0.03721
1082.61735	0.03763
1081.33158	0.03812
1080.04581	0.03865
1078.76005	0.03916
1077.47428	0.03966
1076.18851	0.04013
1074.90274	0.04059
1073.61697	0.04105
1072.33120	0.04151
1071.04543	0.04198
1069.75966	0.04246
1068.47390	0.04294
1067.18813	0.04338
1065.90236	0.04377
1064.61659	0.04416
1063.33082	0.04458
1062.04505	0.04507
1060.75928	0.04562
1059.47351	0.04613
1058.18774	0.04656
1056.90198	0.04694
1055.61621	0.04736
1054.33044	0.04785
1053.04467	0.04836
1051.75890	0.04883
1050.47313	0.04924
1049.18736	0.04964
1047.90159	0.05009
1046.61583	0.05058
1045.33006	0.05114
1044.04429	0.05175
1042.75852	0.05243
1041.47275	0.05313
1040.18698	0.05383
1038.90121	0.05449
1037.61544	0.05513
1036.32967	0.05577
1035.04391	0.05644
1033.75814	0.05716
1032.47237	0.05784
1031.18660	0.05840
1029.90083	0.05876
1028.61506	0.05889
1027.32929	0.05881
1026.04352	0.05851
1024.75775	0.05803
1023.47199	0.05742
1022.18622	0.05672
1020.90045	0.05595
1019.61468	0.05507
1018.32891	0.05406
1017.04314	0.05298
1015.75737	0.05195
1014.47160	0.05102
1013.18584	0.05017
1011.90007	0.04941
1010.61430	0.04870
1009.32853	0.04806
1008.04276	0.04743
1006.75699	0.04678
1005.47122	0.04610
1004.18545	0.04541
1002.89968	0.04475
1001.61392	0.04412
1000.32815	0.04349
999.04238	0.04283
997.75661	0.04220
996.47084	0.04163
995.18507	0.04116
993.89930	0.04078
992.61353	0.04039
991.32777	0.03991
990.04200	0.03933
988.75623	0.03872
987.47046	0.03816
986.18469	0.03768
984.89892	0.03723
983.61315	0.03676
982.32738	0.03629
981.04161	0.03589
979.75585	0.03560
978.47008	0.03537
977.18431	0.03515
975.89854	0.03489
974.61277	0.03461
973.32700	0.03433
972.04123	0.03407
970.75546	0.03385
969.46970	0.03370
968.18393	0.03368
966.89816	0.03378
965.61239	0.03393
964.32662	0.03405
963.04085	0.03408
961.75508	0.03396
960.46931	0.03371
959.18354	0.03335
957.89778	0.03292
956.61201	0.03250
955.32624	0.03213
954.04047	0.03185
952.75470	0.03167
951.46893	0.03151
950.18316	0.03129
948.89739	0.03095
947.61163	0.03052
946.32586	0.03009
945.04009	0.02975
943.75432	0.02950
942.46855	0.02929
941.18278	0.02910
939.89701	0.02887
938.61124	0.02861
937.32547	0.02833
936.03971	0.02803
934.75394	0.02773
933.46817	0.02749
932.18240	0.02734
930.89663	0.02725
929.61086	0.02715
928.32509	0.02697
927.03932	0.02672
925.75356	0.02643
924.46779	0.02612
923.18202	0.02583
921.89625	0.02560
920.61048	0.02545
919.32471	0.02533
918.03894	0.02521
916.75317	0.02505
915.46740	0.02483
914.18164	0.02457
912.89587	0.02425
911.61010	0.02393
910.32433	0.02363
909.03856	0.02340
907.75279	0.02321
906.46702	0.02303
905.18125	0.02290
903.89549	0.02280
902.60972	0.02268
901.32395	0.02246
900.03818	0.02219
898.75241	0.02195
897.46664	0.02183
896.18087	0.02184
894.89510	0.02192
893.60933	0.02199
892.32357	0.02198
891.03780	0.02185
889.75203	0.02165
888.46626	0.02148
887.18049	0.02139
885.89472	0.02134
884.60895	0.02124
883.32318	0.02104
882.03742	0.02084
880.75165	0.02075
879.46588	0.02084
878.18011	0.02105
876.89434	0.02127
875.60857	0.02140
874.32280	0.02143
873.03703	0.02143
871.75126	0.02147
870.46550	0.02156
869.17973	0.02160
867.89396	0.02152
866.60819	0.02134
865.32242	0.02115
864.03665	0.02100
862.75088	0.02092
861.46511	0.02088
860.17935	0.02087
858.89358	0.02083
857.60781	0.02068
856.32204	0.02042
855.03627	0.02013
853.75050	0.01995
852.46473	0.01992
851.17896	0.02000
849.89319	0.02005
848.60743	0.02000
847.32166	0.01985
846.03589	0.01965
844.75012	0.01946
843.46435	0.01929
842.17858	0.01911
840.89281	0.01893
839.60704	0.01875
838.32128	0.01859
837.03551	0.01844
835.74974	0.01835
834.46397	0.01833
833.17820	0.01842
831.89243	0.01852
830.60666	0.01852
829.32089	0.01835
828.03512	0.01805
826.74936	0.01779
825.46359	0.01767
824.17782	0.01770
822.89205	0.01780
821.60628	0.01787
820.32051	0.01786
819.03474	0.01777
817.74897	0.01765
816.46321	0.01758
815.17744	0.01760
813.89167	0.01771
812.60590	0.01784
811.32013	0.01790
810.03436	0.01783
808.74859	0.01769
807.46282	0.01757
806.17705	0.01753
804.89129	0.01756
803.60552	0.01759
802.31975	0.01762
801.03398	0.01767
799.74821	0.01774
798.46244	0.01778
797.17667	0.01774
795.89090	0.01758
794.60513	0.01736
793.31937	0.01722
792.03360	0.01723
790.74783	0.01739
789.46206	0.01759
788.17629	0.01773
786.89052	0.01773
785.60475	0.01755
784.31898	0.01727
783.03322	0.01702
781.74745	0.01692
780.46168	0.01702
779.17591	0.01722
777.89014	0.01739
776.60437	0.01749
775.31860	0.01752
774.03283	0.01751
772.74706	0.01741
771.46130	0.01722
770.17553	0.01701
768.88976	0.01691
767.60399	0.01699
766.31822	0.01719
765.03245	0.01738
763.74668	0.01751
762.46091	0.01758
761.17515	0.01762
759.88938	0.01761
758.60361	0.01754
757.31784	0.01744
756.03207	0.01735
754.74630	0.01731
753.46053	0.01732
752.17476	0.01738
750.88899	0.01752
749.60323	0.01767
748.31746	0.01776
747.03169	0.01775
745.74592	0.01768
744.46015	0.01767
743.17438	0.01774
741.88861	0.01789
740.60284	0.01806
739.31708	0.01818
738.03131	0.01822
736.74554	0.01818
735.45977	0.01813
734.17400	0.01810
732.88823	0.01816
731.60246	0.01829
730.31669	0.01842
729.03092	0.01848
727.74516	0.01845
726.45939	0.01836
725.17362	0.01829
723.88785	0.01833
722.60208	0.01831
721.31631	0.01821
720.03054	0.01806
718.74477	0.01789
717.45901	0.01774
716.17324	0.01766
714.88747	0.01769
713.60170	0.01780
712.31593	0.01797
711.03016	0.01815
709.74439	0.01832
708.45862	0.01846
707.17285	0.01861
705.88709	0.01873
704.60132	0.01881
703.31555	0.01883
702.02978	0.01883
700.74401	0.01885
699.45824	0.01888
698.17247	0.01887
696.88670	0.01879
695.60094	0.01868
694.31517	0.01858
693.02940	0.01855
691.74363	0.01858
690.45786	0.01864
689.17209	0.01870
687.88632	0.01870
686.60055	0.01865
685.31478	0.01859
684.02902	0.01861
682.74325	0.01871
681.45748	0.01883
680.17171	0.01887
678.88594	0.01881
677.60017	0.01872
676.31440	0.01867
675.02863	0.01866
673.74287	0.01869
672.45710	0.01881
671.17133	0.01906
669.88556	0.01915
668.59979	0.01864
667.31402	0.01851
666.02825	0.01909
664.74248	0.01909
663.45671	0.01891
662.17095	0.01885
660.88518	0.01883
659.59941	0.01883
658.31364	0.01891
657.02787	0.01906
655.74210	0.01917
654.45633	0.01914
653.17056	0.01897
651.88480	0.01875
650.59903	0.01860
649.31326	0.01857
648.02749	0.01866
646.74172	0.01879
645.45595	0.01883
644.17018	0.01870
642.88441	0.01845
641.59864	0.01825
640.31288	0.01824
639.02711	0.01845
637.74134	0.01873
636.45557	0.01892
635.16980	0.01897
633.88403	0.01884
632.59826	0.01848
631.31249	0.01888
630.02673	0.02426
628.74096	0.03260
627.45519	0.02732
626.16942	0.03735
624.88365	0.05773
623.59788	0.07660
622.31211	0.08857
621.02634	0.09146
619.74057	0.08577
618.45481	0.07443
617.16904	0.06129
615.88327	0.04978
614.59750	0.04251
613.31173	0.04089
612.02596	0.04438
610.74019	0.05041
609.45442	0.05603
608.16866	0.06026
606.88289	0.06385
605.59712	0.06699
604.31135	0.06831
603.02558	0.06637
601.73981	0.06150
600.45404	0.05557
599.16827	0.05036
597.88250	0.04651
596.59674	0.04378
595.31097	0.04173
594.02520	0.04011
592.73943	0.03882
591.45366	0.03777
590.16789	0.03695
588.88212	0.03641
587.59635	0.03619
586.31059	0.03627
585.02482	0.03654
583.73905	0.03694
582.45328	0.03749
581.16751	0.03822
579.88174	0.03908
578.59597	0.03991
577.31020	0.04059
576.02443	0.04114
574.73867	0.04179
573.45290	0.04279
572.16713	0.04428
570.88136	0.04612
569.59559	0.04797
568.30982	0.04944
567.02405	0.05024
565.73828	0.05032
564.45251	0.04981
563.16675	0.04897
561.88098	0.04793
560.59521	0.04677
559.30944	0.04548
558.02367	0.04409
556.73790	0.04275
555.45213	0.04168
554.16636	0.04097
552.88060	0.04054
551.59483	0.04018
550.30906	0.03968
549.02329	0.03905
547.73752	0.03844
546.45175	0.03794
545.16598	0.03751
543.88021	0.03699
542.59444	0.03630
541.30868	0.03546
540.02291	0.03459
538.73714	0.03384
537.45137	0.03333
536.16560	0.03308
534.87983	0.03300
533.59406	0.03291
532.30829	0.03265
531.02253	0.03228
529.73676	0.03195
528.45099	0.03179
527.16522	0.03173
525.87945	0.03159
524.59368	0.03125
523.30791	0.03073
522.02214	0.03015
520.73637	0.02966
519.45061	0.02932
518.16484	0.02917
516.87907	0.02909
515.59330	0.02892
514.30753	0.02853
513.02176	0.02790
511.73599	0.02723
510.45022	0.02674
509.16446	0.02653
507.87869	0.02653
506.59292	0.02652
505.30715	0.02632
504.02138	0.02583
502.73561	0.02512
501.44984	0.02431
500.16407	0.02357
498.87830	0.02303
497.59254	0.02277
496.30677	0.02274
495.02100	0.02283
493.73523	0.02290
492.44946	0.02289
491.16369	0.02283
489.87792	0.02276
488.59215	0.02273
487.30639	0.02272
486.02062	0.02270
484.73485	0.02258
483.44908	0.02225
482.16331	0.02170
480.87754	0.02104
479.59177	0.02047
478.30600	0.02014
477.02023	0.02003
475.73447	0.02007
474.44870	0.02014
473.16293	0.02023
471.87716	0.02034
470.59139	0.02047
469.30562	0.02054
468.01985	0.02051
466.73408	0.02038
465.44832	0.02021
464.16255	0.02003
462.87678	0.01983
461.59101	0.01960
460.30524	0.01935
459.01947	0.01913
457.73370	0.01893
456.44793	0.01874
455.16216	0.01853
453.87640	0.01828
452.59063	0.01804
451.30486	0.01782
450.01909	0.01767
448.73332	0.01756
447.44755	0.01747
446.16178	0.01735
444.87601	0.01718
443.59025	0.01698
442.30448	0.01678
441.01871	0.01665
439.73294	0.01661
438.44717	0.01661
437.16140	0.01659
435.87563	0.01652
434.58986	0.01644
433.30409	0.01638
432.01833	0.01635
430.73256	0.01631
429.44679	0.01624
428.16102	0.01610
426.87525	0.01595
425.58948	0.01582
424.30371	0.01574
423.01794	0.01570
421.73218	0.01568
420.44641	0.01567
419.16064	0.01565
417.87487	0.01562
416.58910	0.01561
415.30333	0.01564
414.01756	0.01569
412.73179	0.01571
411.44602	0.01566
410.16026	0.01549
408.87449	0.01523
407.58872	0.01496
406.30295	0.01475
405.01718	0.01466
403.73141	0.01461
402.44564	0.01444
401.15987	0.01413
399.87411	0.01376
