3997.45528	0.01279
3996.16951	0.01312
3994.88374	0.01329
3993.59798	0.01334
3992.31221	0.01333
3991.02644	0.01326
3989.74067	0.01302
3988.45490	0.01267
3987.16913	0.01244
3985.88336	0.01262
3984.59759	0.01328
3983.31183	0.01413
3982.02606	0.01474
3980.74029	0.01480
3979.45452	0.01433
3978.16875	0.01356
3976.88298	0.01275
3975.59721	0.01218
3974.31144	0.01208
3973.02567	0.01248
3971.73991	0.01318
3970.45414	0.01379
3969.16837	0.01405
3967.88260	0.01391
3966.59683	0.01356
3965.31106	0.01327
3964.02529	0.01319
3962.73952	0.01328
3961.45376	0.01348
3960.16799	0.01377
3958.88222	0.01411
3957.59645	0.01431
3956.31068	0.01421
3955.02491	0.01384
3953.73914	0.01354
3952.45337	0.01358
3951.16760	0.01393
3949.88184	0.01434
3948.59607	0.01463
3947.31030	0.01481
3946.02453	0.01489
3944.73876	0.01476
3943.45299	0.01436
3942.16722	0.01382
3940.88145	0.01338
3939.59569	0.01317
3938.30992	0.01315
3937.02415	0.01331
3935.73838	0.01367
3934.45261	0.01407
3933.16684	0.01419
3931.88107	0.01390
3930.59530	0.01339
3929.30953	0.01294
3928.02377	0.01259
3926.73800	0.01225
3925.45223	0.01198
3924.16646	0.01186
3922.88069	0.01186
3921.59492	0.01185
3920.30915	0.01184
3919.02338	0.01201
3917.73762	0.01251
3916.45185	0.01313
3915.16608	0.01342
3913.88031	0.01310
3912.59454	0.01238
3911.30877	0.01183
3910.02300	0.01181
3908.73723	0.01216
3907.45146	0.01243
3906.16570	0.01233
3904.87993	0.01194
3903.59416	0.01153
3902.30839	0.01139
3901.02262	0.01165
3899.73685	0.01219
3898.45108	0.01269
3897.16531	0.01289
3895.87955	0.01289
3894.59378	0.01299
3893.30801	0.01339
3892.02224	0.01383
3890.73647	0.01379
3889.45070	0.01316
3888.16493	0.01243
3886.87916	0.01210
3885.59339	0.01218
3884.30763	0.01245
3883.02186	0.01279
3881.73609	0.01318
3880.45032	0.01349
3879.16455	0.01359
3877.87878	0.01348
3876.59301	0.01324
3875.30724	0.01287
3874.02148	0.01242
3872.73571	0.01214
3871.44994	0.01224
3870.16417	0.01247
3868.87840	0.01242
3867.59263	0.01208
3866.30686	0.01181
3865.02109	0.01188
3863.73532	0.01223
3862.44956	0.01259
3861.16379	0.01266
3859.87802	0.01227
3858.59225	0.01152
3857.30648	0.01083
3856.02071	0.01065
3854.73494	0.01107
3853.44917	0.01157
3852.16341	0.01158
3850.87764	0.01107
3849.59187	0.01052
3848.30610	0.01038
3847.02033	0.01070
3845.73456	0.01116
3844.44879	0.01148
3843.16302	0.01163
3841.87725	0.01185
3840.59149	0.01238
3839.30572	0.01315
3838.01995	0.01369
3836.73418	0.01352
3835.44841	0.01260
3834.16264	0.01134
3832.87687	0.01029
3831.59110	0.00984
3830.30534	0.01006
3829.01957	0.01069
3827.73380	0.01141
3826.44803	0.01204
3825.16226	0.01254
3823.87649	0.01295
3822.59072	0.01316
3821.30495	0.01302
3820.01918	0.01265
3818.73342	0.01243
3817.44765	0.01249
3816.16188	0.01249
3814.87611	0.01221
3813.59034	0.01193
3812.30457	0.01194
3811.01880	0.01213
3809.73303	0.01239
3808.44726	0.01279
3807.16150	0.01333
3805.87573	0.01377
3804.58996	0.01395
3803.30419	0.01383
3802.01842	0.01336
3800.73265	0.01252
3799.44688	0.01173
3798.16111	0.01154
3796.87535	0.01206
3795.58958	0.01286
3794.30381	0.01342
3793.01804	0.01341
3791.73227	0.01292
3790.44650	0.01233
3789.16073	0.01193
3787.87496	0.01178
3786.58919	0.01173
3785.30343	0.01178
3784.01766	0.01201
3782.73189	0.01242
3781.44612	0.01283
3780.16035	0.01296
3778.87458	0.01284
3777.58881	0.01277
3776.30304	0.01299
3775.01728	0.01339
3773.73151	0.01364
3772.44574	0.01360
3771.15997	0.01328
3769.87420	0.01273
3768.58843	0.01209
3767.30266	0.01163
3766.01689	0.01144
3764.73112	0.01132
3763.44536	0.01109
3762.15959	0.01088
3760.87382	0.01096
3759.58805	0.01133
3758.30228	0.01172
3757.01651	0.01183
3755.73074	0.01164
3754.44497	0.01140
3753.15921	0.01123
3751.87344	0.01095
3750.58767	0.01038
3749.30190	0.00955
3748.01613	0.00890
3746.73036	0.00902
3745.44459	0.00983
3744.15882	0.01045
3742.87305	0.01029
3741.58729	0.00967
3740.30152	0.00915
3739.01575	0.00897
3737.72998	0.00912
3736.44421	0.00949
3735.15844	0.00993
3733.87267	0.01035
3732.58690	0.01074
3731.30114	0.01109
3730.01537	0.01144
3728.72960	0.01179
3727.44383	0.01194
3726.15806	0.01179
3724.87229	0.01155
3723.58652	0.01152
3722.30075	0.01178
3721.01498	0.01217
3719.72922	0.01244
3718.44345	0.01250
3717.15768	0.01241
3715.87191	0.01228
3714.58614	0.01211
3713.30037	0.01182
3712.01460	0.01144
3710.72883	0.01120
3709.44307	0.01124
3708.15730	0.01149
3706.87153	0.01173
3705.58576	0.01185
3704.29999	0.01185
3703.01422	0.01182
3701.72845	0.01189
3700.44268	0.01205
3699.15691	0.01222
3697.87115	0.01247
3696.58538	0.01284
3695.29961	0.01304
3694.01384	0.01270
3692.72807	0.01192
3691.44230	0.01116
3690.15653	0.01091
3688.87076	0.01135
3687.58500	0.01207
3686.29923	0.01258
3685.01346	0.01283
3683.72769	0.01292
3682.44192	0.01286
3681.15615	0.01269
3679.87038	0.01240
3678.58461	0.01207
3677.29884	0.01190
3676.01308	0.01185
3674.72731	0.01179
3673.44154	0.01181
3672.15577	0.01219
3670.87000	0.01294
3669.58423	0.01379
3668.29846	0.01440
3667.01269	0.01458
3665.72693	0.01427
3664.44116	0.01365
3663.15539	0.01298
3661.86962	0.01244
3660.58385	0.01216
3659.29808	0.01208
3658.01231	0.01198
3656.72654	0.01175
3655.44077	0.01156
3654.15501	0.01178
3652.86924	0.01251
3651.58347	0.01331
3650.29770	0.01361
3649.01193	0.01328
3647.72616	0.01268
3646.44039	0.01220
3645.15462	0.01202
3643.86886	0.01204
3642.58309	0.01210
3641.29732	0.01205
3640.01155	0.01193
3638.72578	0.01181
3637.44001	0.01179
3636.15424	0.01185
3634.86847	0.01189
3633.58270	0.01175
3632.29694	0.01152
3631.01117	0.01149
3629.72540	0.01175
3628.43963	0.01209
3627.15386	0.01225
3625.86809	0.01219
3624.58232	0.01205
3623.29655	0.01200
3622.01079	0.01216
3620.72502	0.01250
3619.43925	0.01278
3618.15348	0.01288
3616.86771	0.01293
3615.58194	0.01306
3614.29617	0.01319
3613.01040	0.01320
3611.72463	0.01320
3610.43887	0.01348
3609.15310	0.01412
3607.86733	0.01487
3606.58156	0.01545
3605.29579	0.01584
3604.01002	0.01616
3602.72425	0.01650
3601.43848	0.01683
3600.15272	0.01695
3598.86695	0.01678
3597.58118	0.01643
3596.29541	0.01622
3595.00964	0.01630
3593.72387	0.01659
3592.43810	0.01694
3591.15233	0.01713
3589.86656	0.01689
3588.58080	0.01627
3587.29503	0.01575
3586.00926	0.01581
3584.72349	0.01646
3583.43772	0.01728
3582.15195	0.01774
3580.86618	0.01759
3579.58041	0.01705
3578.29464	0.01653
3577.00888	0.01631
3575.72311	0.01644
3574.43734	0.01679
3573.15157	0.01720
3571.86580	0.01756
3570.58003	0.01786
3569.29426	0.01810
3568.00849	0.01826
3566.72273	0.01834
3565.43696	0.01846
3564.15119	0.01877
3562.86542	0.01933
3561.57965	0.01998
3560.29388	0.02049
3559.00811	0.02072
3557.72234	0.02075
3556.43657	0.02075
3555.15081	0.02082
3553.86504	0.02096
3552.57927	0.02107
3551.29350	0.02107
3550.00773	0.02098
3548.72196	0.02085
3547.43619	0.02073
3546.15042	0.02063
3544.86466	0.02058
3543.57889	0.02055
3542.29312	0.02056
3541.00735	0.02063
3539.72158	0.02080
3538.43581	0.02103
3537.15004	0.02128
3535.86427	0.02150
3534.57850	0.02169
3533.29274	0.02184
3532.00697	0.02199
3530.72120	0.02212
3529.43543	0.02208
3528.14966	0.02177
3526.86389	0.02132
3525.57812	0.02106
3524.29235	0.02126
3523.00659	0.02183
3521.72082	0.02243
3520.43505	0.02283
3519.14928	0.02300
3517.86351	0.02304
3516.57774	0.02307
3515.29197	0.02315
3514.00620	0.02324
3512.72043	0.02330
3511.43467	0.02329
3510.14890	0.02321
3508.86313	0.02311
3507.57736	0.02312
3506.29159	0.02335
3505.00582	0.02382
3503.72005	0.02444
3502.43428	0.02496
3501.14852	0.02512
3499.86275	0.02482
3498.57698	0.02421
3497.29121	0.02364
3496.00544	0.02343
3494.71967	0.02364
3493.43390	0.02412
3492.14813	0.02463
3490.86236	0.02501
3489.57660	0.02521
3488.29083	0.02525
3487.00506	0.02524
3485.71929	0.02532
3484.43352	0.02554
3483.14775	0.02572
3481.86198	0.02571
3480.57621	0.02552
3479.29045	0.02535
3478.00468	0.02534
3476.71891	0.02547
3475.43314	0.02563
3474.14737	0.02573
3472.86160	0.02577
3471.57583	0.02577
3470.29006	0.02575
3469.00429	0.02570
3467.71853	0.02560
3466.43276	0.02550
3465.14699	0.02545
3463.86122	0.02548
3462.57545	0.02560
3461.28968	0.02588
3460.00391	0.02639
3458.71814	0.02706
3457.43238	0.02764
3456.14661	0.02789
3454.86084	0.02774
3453.57507	0.02727
3452.28930	0.02673
3451.00353	0.02640
3449.71776	0.02644
3448.43199	0.02680
3447.14622	0.02725
3445.86046	0.02756
3444.57469	0.02769
3443.28892	0.02773
3442.00315	0.02788
3440.71738	0.02824
3439.43161	0.02876
3438.14584	0.02924
3436.86007	0.02947
3435.57431	0.02936
3434.28854	0.02901
3433.00277	0.02866
3431.71700	0.02845
3430.43123	0.02836
3429.14546	0.02830
3427.85969	0.02830
3426.57392	0.02843
3425.28815	0.02868
3424.00239	0.02896
3422.71662	0.02922
3421.43085	0.02954
3420.14508	0.02993
3418.85931	0.03024
3417.57354	0.03026
3416.28777	0.02996
3415.00200	0.02945
3413.71624	0.02896
3412.43047	0.02869
3411.14470	0.02882
3409.85893	0.02929
3408.57316	0.02980
3407.28739	0.03007
3406.00162	0.03010
3404.71585	0.03010
3403.43008	0.03024
3402.14432	0.03042
3400.85855	0.03052
3399.57278	0.03051
3398.28701	0.03044
3397.00124	0.03046
3395.71547	0.03061
3394.42970	0.03086
3393.14393	0.03113
3391.85817	0.03141
3390.57240	0.03165
3389.28663	0.03183
3388.00086	0.03191
3386.71509	0.03193
3385.42932	0.03199
3384.14355	0.03219
3382.85778	0.03254
3381.57201	0.03294
3380.28625	0.03326
3379.00048	0.03345
3377.71471	0.03349
3376.42894	0.03340
3375.14317	0.03329
3373.85740	0.03340
3372.57163	0.03384
3371.28586	0.03444
3370.00010	0.03481
3368.71433	0.03471
3367.42856	0.03423
3366.14279	0.03373
3364.85702	0.03354
3363.57125	0.03376
3362.28548	0.03424
3360.99971	0.03472
3359.71394	0.03503
3358.42818	0.03517
3357.14241	0.03527
3355.85664	0.03543
3354.57087	0.03568
3353.28510	0.03598
3351.99933	0.03627
3350.71356	0.03649
3349.42779	0.03661
3348.14202	0.03678
3346.85626	0.03711
3345.57049	0.03753
3344.28472	0.03777
3342.99895	0.03771
3341.71318	0.03747
3340.42741	0.03734
3339.14164	0.03753
3337.85587	0.03795
3336.57011	0.03832
3335.28434	0.03839
3333.99857	0.03822
3332.71280	0.03805
3331.42703	0.03806
3330.14126	0.03823
3328.85549	0.03843
3327.56972	0.03864
3326.28395	0.03890
3324.99819	0.03919
3323.71242	0.03949
3322.42665	0.03979
3321.14088	0.04007
3319.85511	0.04025
3318.56934	0.04024
3317.28357	0.04005
3315.99780	0.03983
3314.71204	0.03971
3313.42627	0.03975
3312.14050	0.03990
3310.85473	0.04010
3309.56896	0.04029
3308.28319	0.04035
3306.99742	0.04018
3305.71165	0.03983
3304.42588	0.03956
3303.14012	0.03963
3301.85435	0.04007
3300.56858	0.04063
3299.28281	0.04102
3297.99704	0.04112
3296.71127	0.04099
3295.42550	0.04070
3294.13973	0.04032
3292.85397	0.03989
3291.56820	0.03952
3290.28243	0.03928
3288.99666	0.03919
3287.71089	0.03925
3286.42512	0.03948
3285.13935	0.03991
3283.85358	0.04048
3282.56781	0.04102
3281.28205	0.04136
3279.99628	0.04140
3278.71051	0.04119
3277.42474	0.04086
3276.13897	0.04052
3274.85320	0.04027
3273.56743	0.04014
3272.28166	0.04017
3270.99590	0.04040
3269.71013	0.04073
3268.42436	0.04106
3267.13859	0.04126
3265.85282	0.04128
3264.56705	0.04110
3263.28128	0.04078
3261.99551	0.04043
3260.70974	0.04015
3259.42398	0.03995
3258.13821	0.03978
3256.85244	0.03964
3255.56667	0.03965
3254.28090	0.03989
3252.99513	0.04022
3251.70936	0.04041
3250.42359	0.04029
3249.13783	0.03994
3247.85206	0.03955
3246.56629	0.03926
3245.28052	0.03911
3243.99475	0.03901
3242.70898	0.03890
3241.42321	0.03879
3240.13744	0.03877
3238.85167	0.03883
3237.56591	0.03887
3236.28014	0.03874
3234.99437	0.03841
3233.70860	0.03801
3232.42283	0.03776
3231.13706	0.03774
3229.85129	0.03786
3228.56552	0.03795
3227.27976	0.03796
3225.99399	0.03800
3224.70822	0.03818
3223.42245	0.03850
3222.13668	0.03878
3220.85091	0.03882
3219.56514	0.03858
3218.27937	0.03809
3216.99360	0.03750
3215.70784	0.03702
3214.42207	0.03684
3213.13630	0.03701
3211.85053	0.03733
3210.56476	0.03750
3209.27899	0.03733
3207.99322	0.03689
3206.70745	0.03639
3205.42169	0.03605
3204.13592	0.03589
3202.85015	0.03576
3201.56438	0.03557
3200.27861	0.03534
3198.99284	0.03525
3197.70707	0.03531
3196.42130	0.03534
3195.13553	0.03518
3193.84977	0.03484
3192.56400	0.03454
3191.27823	0.03445
3189.99246	0.03457
3188.70669	0.03476
3187.42092	0.03485
3186.13515	0.03478
3184.84938	0.03456
3183.56362	0.03427
3182.27785	0.03404
3180.99208	0.03398
3179.70631	0.03418
3178.42054	0.03454
3177.13477	0.03485
3175.84900	0.03487
3174.56323	0.03456
3173.27746	0.03412
3171.99170	0.03384
3170.70593	0.03386
3169.42016	0.03407
3168.13439	0.03421
3166.84862	0.03411
3165.56285	0.03385
3164.27708	0.03359
3162.99131	0.03340
3161.70555	0.03324
3160.41978	0.03303
3159.13401	0.03276
3157.84824	0.03256
3156.56247	0.03253
3155.27670	0.03264
3153.99093	0.03274
3152.70516	0.03268
3151.41939	0.03246
3150.13363	0.03213
3148.84786	0.03178
3147.56209	0.03146
3146.27632	0.03120
3144.99055	0.03103
3143.70478	0.03098
3142.41901	0.03108
3141.13324	0.03126
3139.84748	0.03139
3138.56171	0.03131
3137.27594	0.03098
3135.99017	0.03051
3134.70440	0.03007
3133.41863	0.02984
3132.13286	0.02985
3130.84709	0.03001
3129.56132	0.03021
3128.27556	0.03044
3126.98979	0.03077
3125.70402	0.03117
3124.41825	0.03147
3123.13248	0.03150
3121.84671	0.03124
3120.56094	0.03087
3119.27517	0.03060
3117.98940	0.03050
3116.70364	0.03048
3115.41787	0.03044
3114.13210	0.03035
3112.84633	0.03028
3111.56056	0.03030
3110.27479	0.03041
3108.98902	0.03061
3107.70325	0.03087
3106.41749	0.03117
3105.13172	0.03138
3103.84595	0.03134
3102.56018	0.03107
3101.27441	0.03072
3099.98864	0.03052
3098.70287	0.03054
3097.41710	0.03069
3096.13133	0.03081
3094.84557	0.03085
3093.55980	0.03089
3092.27403	0.03104
3090.98826	0.03133
3089.70249	0.03166
3088.41672	0.03195
3087.13095	0.03211
3085.84518	0.03212
3084.55942	0.03198
3083.27365	0.03175
3081.98788	0.03158
3080.70211	0.03154
3079.41634	0.03166
3078.13057	0.03179
3076.84480	0.03176
3075.55903	0.03155
3074.27326	0.03128
3072.98750	0.03105
3071.70173	0.03097
3070.41596	0.03108
3069.13019	0.03130
3067.84442	0.03146
3066.55865	0.03145
3065.27288	0.03132
3063.98711	0.03122
3062.70135	0.03128
3061.41558	0.03143
3060.12981	0.03154
3058.84404	0.03149
3057.55827	0.03127
3056.27250	0.03098
3054.98673	0.03073
3053.70096	0.03057
3052.41519	0.03043
3051.12943	0.03028
3049.84366	0.03010
3048.55789	0.02997
3047.27212	0.02989
3045.98635	0.02984
3044.70058	0.02983
3043.41481	0.02985
3042.12904	0.02986
3040.84328	0.02972
3039.55751	0.02935
3038.27174	0.02887
3036.98597	0.02849
3035.70020	0.02838
3034.41443	0.02851
3033.12866	0.02873
3031.84289	0.02889
3030.55712	0.02889
3029.27136	0.02871
3027.98559	0.02842
3026.69982	0.02807
3025.41405	0.02774
3024.12828	0.02750
3022.84251	0.02748
3021.55674	0.02777
3020.27097	0.02835
3018.98521	0.02898
3017.69944	0.02932
3016.41367	0.02922
3015.12790	0.02881
3013.84213	0.02839
3012.55636	0.02810
3011.27059	0.02793
3009.98482	0.02779
3008.69905	0.02765
3007.41329	0.02753
3006.12752	0.02746
3004.84175	0.02740
3003.55598	0.02733
3002.27021	0.02723
3000.98444	0.02708
2999.69867	0.02686
2998.41290	0.02678
2997.12714	0.02676
2995.84137	0.02688
2994.55560	0.02715
2993.26983	0.02743
2991.98406	0.02755
2990.69829	0.02750
2989.41252	0.02746
2988.12675	0.02753
2986.84098	0.02769
2985.55522	0.02784
2984.26945	0.02793
2982.98368	0.02800
2981.69791	0.02802
2980.41214	0.02801
2979.12637	0.02800
2977.84060	0.02806
2976.55483	0.02821
2975.26907	0.02840
2973.98330	0.02854
2972.69753	0.02856
2971.41176	0.02849
2970.12599	0.02841
2968.84022	0.02835
2967.55445	0.02833
2966.26868	0.02834
2964.98291	0.02842
2963.69715	0.02857
2962.41138	0.02868
2961.12561	0.02867
2959.83984	0.02866
2958.55407	0.02884
2957.26830	0.02920
2955.98253	0.02943
2954.69676	0.02925
2953.41100	0.02875
2952.12523	0.02832
2950.83946	0.02827
2949.55369	0.02850
2948.26792	0.02868
2946.98215	0.02862
2945.69638	0.02846
2944.41061	0.02839
2943.12484	0.02840
2941.83908	0.02837
2940.55331	0.02830
2939.26754	0.02829
2937.98177	0.02835
2936.69600	0.02838
2935.41023	0.02828
2934.12446	0.02814
2932.83869	0.02809
2931.55293	0.02814
2930.26716	0.02820
2928.98139	0.02816
2927.69562	0.02800
2926.40985	0.02773
2925.12408	0.02744
2923.83831	0.02729
2922.55254	0.02739
2921.26677	0.02765
2919.98101	0.02783
2918.69524	0.02776
2917.40947	0.02743
2916.12370	0.02699
2914.83793	0.02657
2913.55216	0.02631
2912.26639	0.02625
2910.98062	0.02635
2909.69486	0.02651
2908.40909	0.02662
2907.12332	0.02664
2905.83755	0.02662
2904.55178	0.02661
2903.26601	0.02658
2901.98024	0.02656
2900.69447	0.02664
2899.40870	0.02687
2898.12294	0.02713
2896.83717	0.02716
2895.55140	0.02687
2894.26563	0.02646
2892.97986	0.02622
2891.69409	0.02624
2890.40832	0.02641
2889.12255	0.02653
2887.83678	0.02652
2886.55102	0.02641
2885.26525	0.02633
2883.97948	0.02635
2882.69371	0.02641
2881.40794	0.02645
2880.12217	0.02645
2878.83640	0.02649
2877.55063	0.02661
2876.26487	0.02675
2874.97910	0.02680
2873.69333	0.02674
2872.40756	0.02662
2871.12179	0.02651
2869.83602	0.02640
2868.55025	0.02631
2867.26448	0.02625
2865.97871	0.02614
2864.69295	0.02592
2863.40718	0.02557
2862.12141	0.02515
2860.83564	0.02474
2859.54987	0.02437
2858.26410	0.02411
2856.97833	0.02399
2855.69256	0.02398
2854.40680	0.02404
2853.12103	0.02419
2851.83526	0.02449
2850.54949	0.02483
2849.26372	0.02503
2847.97795	0.02493
2846.69218	0.02461
2845.40641	0.02420
2844.12064	0.02385
2842.83488	0.02367
2841.54911	0.02372
2840.26334	0.02395
2838.97757	0.02417
2837.69180	0.02419
2836.40603	0.02398
2835.12026	0.02368
2833.83449	0.02345
2832.54873	0.02331
2831.26296	0.02321
2829.97719	0.02314
2828.69142	0.02313
2827.40565	0.02319
2826.11988	0.02325
2824.83411	0.02327
2823.54834	0.02323
2822.26257	0.02315
2820.97681	0.02305
2819.69104	0.02294
2818.40527	0.02287
2817.11950	0.02278
2815.83373	0.02260
2814.54796	0.02233
2813.26219	0.02216
2811.97642	0.02224
2810.69066	0.02255
2809.40489	0.02285
2808.11912	0.02292
2806.83335	0.02273
2805.54758	0.02248
2804.26181	0.02237
2802.97604	0.02246
2801.69027	0.02264
2800.40450	0.02278
2799.11874	0.02278
2797.83297	0.02263
2796.54720	0.02239
2795.26143	0.02214
2793.97566	0.02197
2792.68989	0.02195
2791.40412	0.02206
2790.11835	0.02218
2788.83259	0.02218
2787.54682	0.02205
2786.26105	0.02192
2784.97528	0.02191
2783.68951	0.02198
2782.40374	0.02202
2781.11797	0.02193
2779.83220	0.02174
2778.54643	0.02157
2777.26067	0.02154
2775.97490	0.02166
2774.68913	0.02188
2773.40336	0.02207
2772.11759	0.02212
2770.83182	0.02203
2769.54605	0.02188
2768.26028	0.02181
2766.97452	0.02183
2765.68875	0.02184
2764.40298	0.02171
2763.11721	0.02145
2761.83144	0.02119
2760.54567	0.02106
2759.25990	0.02107
2757.97413	0.02114
2756.68836	0.02115
2755.40260	0.02103
2754.11683	0.02084
2752.83106	0.02067
2751.54529	0.02061
2750.25952	0.02065
2748.97375	0.02074
2747.68798	0.02083
2746.40221	0.02082
2745.11645	0.02066
2743.83068	0.02040
2742.54491	0.02023
2741.25914	0.02027
2739.97337	0.02045
2738.68760	0.02058
2737.40183	0.02052
2736.11606	0.02032
2734.83029	0.02010
2733.54453	0.01996
2732.25876	0.01989
2730.97299	0.01987
2729.68722	0.01991
2728.40145	0.02000
2727.11568	0.02011
2725.82991	0.02014
2724.54414	0.02008
2723.25838	0.01998
2721.97261	0.01988
2720.68684	0.01983
2719.40107	0.01983
2718.11530	0.01992
2716.82953	0.02002
2715.54376	0.02001
2714.25799	0.01982
2712.97222	0.01953
2711.68646	0.01931
2710.40069	0.01921
2709.11492	0.01915
2707.82915	0.01906
2706.54338	0.01896
2705.25761	0.01891
2703.97184	0.01891
2702.68607	0.01895
2701.40031	0.01903
2700.11454	0.01909
2698.82877	0.01912
2697.54300	0.01909
2696.25723	0.01902
2694.97146	0.01891
2693.68569	0.01881
2692.39992	0.01880
2691.11415	0.01889
2689.82839	0.01897
2688.54262	0.01894
2687.25685	0.01882
2685.97108	0.01874
2684.68531	0.01872
2683.39954	0.01870
2682.11377	0.01859
2680.82800	0.01843
2679.54224	0.01833
2678.25647	0.01836
2676.97070	0.01848
2675.68493	0.01859
2674.39916	0.01860
2673.11339	0.01849
2671.82762	0.01831
2670.54185	0.01818
2669.25608	0.01818
2667.97032	0.01831
2666.68455	0.01847
2665.39878	0.01860
2664.11301	0.01868
2662.82724	0.01872
2661.54147	0.01872
2660.25570	0.01874
2658.96993	0.01883
2657.68417	0.01904
2656.39840	0.01931
2655.11263	0.01950
2653.82686	0.01948
2652.54109	0.01925
2651.25532	0.01891
2649.96955	0.01863
2648.68378	0.01849
2647.39801	0.01848
2646.11225	0.01853
2644.82648	0.01858
2643.54071	0.01860
2642.25494	0.01858
2640.96917	0.01847
2639.68340	0.01823
2638.39763	0.01786
2637.11186	0.01746
2635.82609	0.01715
2634.54033	0.01701
2633.25456	0.01705
2631.96879	0.01718
2630.68302	0.01729
2629.39725	0.01733
2628.11148	0.01729
2626.82571	0.01725
2625.53994	0.01728
2624.25418	0.01736
2622.96841	0.01742
2621.68264	0.01736
2620.39687	0.01718
2619.11110	0.01691
2617.82533	0.01662
2616.53956	0.01644
2615.25379	0.01651
2613.96802	0.01685
2612.68226	0.01724
2611.39649	0.01741
2610.11072	0.01727
2608.82495	0.01700
2607.53918	0.01680
2606.25341	0.01669
2604.96764	0.01657
2603.68187	0.01638
2602.39611	0.01610
2601.11034	0.01577
2599.82457	0.01546
2598.53880	0.01525
2597.25303	0.01515
2595.96726	0.01518
2594.68149	0.01536
2593.39572	0.01570
2592.10995	0.01607
2590.82419	0.01630
2589.53842	0.01633
2588.25265	0.01633
2586.96688	0.01651
2585.68111	0.01686
2584.39534	0.01715
2583.10957	0.01714
2581.82380	0.01683
2580.53804	0.01641
2579.25227	0.01612
2577.96650	0.01603
2576.68073	0.01608
2575.39496	0.01612
2574.10919	0.01602
2572.82342	0.01573
2571.53765	0.01527
2570.25188	0.01476
2568.96612	0.01438
2567.68035	0.01432
2566.39458	0.01454
2565.10881	0.01479
2563.82304	0.01488
2562.53727	0.01483
2561.25150	0.01480
2559.96573	0.01480
2558.67997	0.01472
2557.39420	0.01448
2556.10843	0.01418
2554.82266	0.01399
2553.53689	0.01404
2552.25112	0.01434
2550.96535	0.01480
2549.67958	0.01525
2548.39381	0.01547
2547.10805	0.01530
2545.82228	0.01484
2544.53651	0.01438
2543.25074	0.01416
2541.96497	0.01414
2540.67920	0.01415
2539.39343	0.01404
2538.10766	0.01382
2536.82190	0.01360
2535.53613	0.01351
2534.25036	0.01359
2532.96459	0.01375
2531.67882	0.01387
2530.39305	0.01384
2529.10728	0.01365
2527.82151	0.01342
2526.53574	0.01328
2525.24998	0.01327
2523.96421	0.01332
2522.67844	0.01344
2521.39267	0.01375
2520.10690	0.01430
2518.82113	0.01486
2517.53536	0.01513
2516.24959	0.01504
2514.96383	0.01481
2513.67806	0.01464
2512.39229	0.01452
2511.10652	0.01428
2509.82075	0.01385
2508.53498	0.01342
2507.24921	0.01327
2505.96344	0.01354
2504.67767	0.01406
2503.39191	0.01449
2502.10614	0.01459
2500.82037	0.01442
2499.53460	0.01420
2498.24883	0.01403
2496.96306	0.01390
2495.67729	0.01375
2494.39152	0.01357
2493.10576	0.01337
2491.81999	0.01326
2490.53422	0.01330
2489.24845	0.01346
2487.96268	0.01361
2486.67691	0.01374
2485.39114	0.01393
2484.10537	0.01417
2482.81960	0.01428
2481.53384	0.01413
2480.24807	0.01381
2478.96230	0.01361
2477.67653	0.01371
2476.39076	0.01401
2475.10499	0.01419
2473.81922	0.01408
2472.53345	0.01384
2471.24769	0.01370
2469.96192	0.01373
2468.67615	0.01380
2467.39038	0.01384
2466.10461	0.01387
2464.81884	0.01393
2463.53307	0.01400
2462.24730	0.01405
2460.96153	0.01404
2459.67577	0.01392
2458.39000	0.01371
2457.10423	0.01345
2455.81846	0.01320
2454.53269	0.01300
2453.24692	0.01293
2451.96115	0.01308
2450.67538	0.01347
2449.38962	0.01395
2448.10385	0.01431
2446.81808	0.01442
2445.53231	0.01438
2444.24654	0.01429
2442.96077	0.01417
2441.67500	0.01403
2440.38923	0.01387
2439.10346	0.01372
2437.81770	0.01358
2436.53193	0.01346
2435.24616	0.01331
2433.96039	0.01312
2432.67462	0.01298
2431.38885	0.01302
2430.10308	0.01323
2428.81731	0.01345
2427.53155	0.01350
2426.24578	0.01334
2424.96001	0.01305
2423.67424	0.01277
2422.38847	0.01263
2421.10270	0.01268
2419.81693	0.01280
2418.53116	0.01281
2417.24539	0.01265
2415.95963	0.01252
2414.67386	0.01264
2413.38809	0.01302
2412.10232	0.01339
2410.81655	0.01348
2409.53078	0.01325
2408.24501	0.01290
2406.95924	0.01262
2405.67347	0.01249
2404.38771	0.01252
2403.10194	0.01268
2401.81617	0.01284
2400.53040	0.01285
2399.24463	0.01245
2397.95886	0.01222
2396.67309	0.01217
2395.38732	0.01222
2394.10156	0.01235
2392.81579	0.01252
2391.53002	0.01267
2390.24425	0.01275
2388.95848	0.01279
2387.67271	0.01280
2386.38694	0.01277
2385.10117	0.01272
2383.81540	0.01274
2382.52964	0.01291
2381.24387	0.01317
2379.95810	0.01341
2378.67233	0.01359
2377.38656	0.01376
2376.10079	0.01400
2374.81502	0.01417
2373.52925	0.01428
2372.24349	0.01439
2370.95772	0.01459
2369.67195	0.01469
2368.38618	0.01472
2367.10041	0.01472
2365.81464	0.01476
2364.52887	0.01466
2363.24310	0.01456
2361.95733	0.01466
2360.67157	0.01519
2359.38580	0.01556
2358.10003	0.01552
2356.81426	0.01520
2355.52849	0.01473
2354.24272	0.01418
2352.95695	0.01376
2351.67118	0.01391
2350.38542	0.01444
2349.09965	0.01468
2347.81388	0.01456
2346.52811	0.01495
2345.24234	0.01552
2343.95657	0.01509
2342.67080	0.01399
2341.38503	0.01429
2340.09926	0.01589
2338.81350	0.01582
2337.52773	0.01400
2336.24196	0.01413
2334.95619	0.01568
2333.67042	0.01486
2332.38465	0.01256
2331.09888	0.01267
2329.81311	0.01294
2328.52735	0.01104
2327.24158	0.01128
2325.95581	0.01307
2324.67004	0.01312
2323.38427	0.01364
2322.09850	0.01504
2320.81273	0.01466
2319.52696	0.01482
2318.24119	0.01561
2316.95543	0.01544
2315.66966	0.01574
2314.38389	0.01620
2313.09812	0.01599
2311.81235	0.01597
2310.52658	0.01552
2309.24081	0.01484
2307.95504	0.01438
2306.66928	0.01374
2305.38351	0.01326
2304.09774	0.01279
2302.81197	0.01225
2301.52620	0.01197
2300.24043	0.01182
2298.95466	0.01185
2297.66889	0.01185
2296.38312	0.01174
2295.09736	0.01162
2293.81159	0.01147
2292.52582	0.01134
2291.24005	0.01126
2289.95428	0.01136
2288.66851	0.01166
2287.38274	0.01204
2286.09697	0.01240
2284.81121	0.01271
2283.52544	0.01298
2282.23967	0.01320
2280.95390	0.01332
2279.66813	0.01322
2278.38236	0.01291
2277.09659	0.01249
2275.81082	0.01207
2274.52505	0.01169
2273.23929	0.01142
2271.95352	0.01141
2270.66775	0.01176
2269.38198	0.01221
2268.09621	0.01232
2266.81044	0.01199
2265.52467	0.01148
2264.23890	0.01112
2262.95314	0.01094
2261.66737	0.01082
2260.38160	0.01064
2259.09583	0.01047
2257.81006	0.01042
2256.52429	0.01044
2255.23852	0.01035
2253.95275	0.01017
2252.66698	0.00997
2251.38122	0.00988
2250.09545	0.01019
2248.80968	0.01089
2247.52391	0.01058
2246.23814	0.01027
2244.95237	0.01021
2243.66660	0.01032
2242.38083	0.01035
2241.09507	0.01024
2239.80930	0.01016
2238.52353	0.01024
2237.23776	0.01042
2235.95199	0.01054
2234.66622	0.01046
2233.38045	0.01010
2232.09468	0.00952
2230.80891	0.00886
2229.52315	0.00838
2228.23738	0.00829
2226.95161	0.00864
2225.66584	0.00923
2224.38007	0.00978
2223.09430	0.01006
2221.80853	0.00989
2220.52276	0.00924
2219.23700	0.00843
2217.95123	0.00792
2216.66546	0.00793
2215.37969	0.00825
2214.09392	0.00855
2212.80815	0.00872
2211.52238	0.00872
2210.23661	0.00837
2208.95084	0.00762
2207.66508	0.00685
2206.37931	0.00661
2205.09354	0.00717
2203.80777	0.00824
2202.52200	0.00923
2201.23623	0.00957
2199.95046	0.00917
2198.66469	0.00843
2197.37893	0.00796
2196.09316	0.00808
2194.80739	0.00848
2193.52162	0.00869
2192.23585	0.00865
2190.95008	0.00874
2189.66431	0.00907
2188.37854	0.00911
2187.09277	0.00842
2185.80701	0.00748
2184.52124	0.00746
2183.23547	0.00886
2181.94970	0.01086
2180.66393	0.01210
2179.37816	0.01198
2178.09239	0.01082
2176.80662	0.00925
2175.52085	0.00765
2174.23509	0.00624
2172.94932	0.00547
2171.66355	0.00581
2170.37778	0.00731
2169.09201	0.00933
2167.80624	0.01089
2166.52047	0.01142
2165.23470	0.01110
2163.94894	0.01032
2162.66317	0.00914
2161.37740	0.00736
2160.09163	0.00508
2158.80586	0.00302
2157.52009	0.00216
2156.23432	0.00286
2154.94855	0.00448
2153.66278	0.00584
2152.37702	0.00616
2151.09125	0.00555
2149.80548	0.00479
2148.51971	0.00454
2147.23394	0.00485
2145.94817	0.00539
2144.66240	0.00588
2143.37663	0.00626
2142.09087	0.00657
2140.80510	0.00678
2139.51933	0.00685
2138.23356	0.00680
2136.94779	0.00667
2135.66202	0.00646
2134.37625	0.00621
2133.09048	0.00606
2131.80471	0.00625
2130.51895	0.00684
2129.23318	0.00766
2127.94741	0.00838
2126.66164	0.00869
2125.37587	0.00850
2124.09010	0.00802
2122.80433	0.00767
2121.51856	0.00770
2120.23280	0.00810
2118.94703	0.00865
2117.66126	0.00910
2116.37549	0.00927
2115.08972	0.00912
2113.80395	0.00875
2112.51818	0.00833
2111.23241	0.00797
2109.94664	0.00772
2108.66088	0.00760
2107.37511	0.00762
2106.08934	0.00778
2104.80357	0.00810
2103.51780	0.00865
2102.23203	0.00924
2100.94626	0.00982
2099.66049	0.01617
2098.37473	0.01890
2097.08896	0.01821
2095.80319	0.01648
2094.51742	0.01433
2093.23165	0.01202
2091.94588	0.00995
2090.66011	0.00847
2089.37434	0.00769
2088.08857	0.00754
2086.80281	0.00786
2085.51704	0.00846
2084.23127	0.00922
2082.94550	0.01013
2081.65973	0.01126
2080.37396	0.01254
2079.08819	0.01378
2077.80242	0.01486
2076.51666	0.01582
2075.23089	0.01671
2073.94512	0.01744
2072.65935	0.01787
2071.37358	0.01805
2070.08781	0.01806
2068.80204	0.01789
2067.51627	0.01737
2066.23050	0.01643
2064.94474	0.01522
2063.65897	0.01400
2062.37320	0.01293
2061.08743	0.01200
2059.80166	0.01104
2058.51589	0.00997
2057.23012	0.00876
2055.94435	0.00752
2054.65859	0.00664
2053.37282	0.00690
2052.08705	0.00908
2050.80128	0.01298
2049.51551	0.01714
2048.22974	0.01989
2046.94397	0.02066
2045.65820	0.02018
2044.37243	0.01946
2043.08667	0.01897
2041.80090	0.01867
2040.51513	0.01860
2039.22936	0.01896
2037.94359	0.01977
2036.65782	0.02064
2035.37205	0.02104
2034.08628	0.02080
2032.80052	0.02009
2031.51475	0.01914
2030.22898	0.01791
2028.94321	0.01628
2027.65744	0.01433
2026.37167	0.01236
2025.08590	0.01083
2023.80013	0.01010
2022.51436	0.01034
2021.22860	0.01129
2019.94283	0.01243
2018.65706	0.01341
2017.37129	0.01437
2016.08552	0.01570
2014.79975	0.01748
2013.51398	0.01932
2012.22821	0.02075
2010.94245	0.02160
2009.65668	0.02193
2008.37091	0.02169
2007.08514	0.02069
2005.79937	0.01882
2004.51360	0.01634
2003.22783	0.01375
2001.94206	0.01147
2000.65629	0.00957
1999.37053	0.00792
1998.08476	0.00647
1996.79899	0.00538
1995.51322	0.00495
1994.22745	0.00518
1992.94168	0.00570
1991.65591	0.00601
1990.37014	0.00586
1989.08438	0.00540
1987.79861	0.00513
1986.51284	0.00547
1985.22707	0.00668
1983.94130	0.00885
1982.65553	0.01206
1981.36976	0.01641
1980.08399	0.02159
1978.79822	0.02659
1977.51246	0.02994
1976.22669	0.03072
1974.94092	0.02915
1973.65515	0.02637
1972.36938	0.02358
1971.08361	0.02148
1969.79784	0.02020
1968.51207	0.01946
1967.22631	0.01890
1965.94054	0.01835
1964.65477	0.01780
1963.36900	0.01729
1962.08323	0.01671
1960.79746	0.01586
1959.51169	0.01468
1958.22592	0.01332
1956.94015	0.01213
1955.65439	0.01141
1954.36862	0.01115
1953.08285	0.01111
1951.79708	0.01113
1950.51131	0.01123
1949.22554	0.01160
1947.93977	0.01226
1946.65400	0.01305
1945.36823	0.01378
1944.08247	0.01433
1942.79670	0.01464
1941.51093	0.01466
1940.22516	0.01443
1938.93939	0.01412
1937.65362	0.01391
1936.36785	0.01388
1935.08208	0.01399
1933.79632	0.01414
1932.51055	0.01430
1931.22478	0.01443
1929.93901	0.01447
1928.65324	0.01430
1927.36747	0.01387
1926.08170	0.01331
1924.79593	0.01280
1923.51016	0.01243
1922.22440	0.01220
1920.93863	0.01215
1919.65286	0.01236
1918.36709	0.01277
1917.08132	0.01315
1915.79555	0.01329
1914.50978	0.01320
1913.22401	0.01307
1911.93825	0.01310
1910.65248	0.01327
1909.36671	0.01340
1908.08094	0.01336
1906.79517	0.01318
1905.50940	0.01298
1904.22363	0.01289
1902.93786	0.01293
1901.65209	0.01305
1900.36633	0.01318
1899.08056	0.01322
1897.79479	0.01309
1896.50902	0.01281
1895.22325	0.01258
1893.93748	0.01257
1892.65171	0.01280
1891.36594	0.01301
1890.08018	0.01293
1888.79441	0.01255
1887.50864	0.01212
1886.22287	0.01191
1884.93710	0.01193
1883.65133	0.01195
1882.36556	0.01176
1881.07979	0.01136
1879.79402	0.01092
1878.50826	0.01064
1877.22249	0.01063
1875.93672	0.01084
1874.65095	0.01107
1873.36518	0.01116
1872.07941	0.01112
1870.79364	0.01107
1869.50787	0.01111
1868.22211	0.01119
1866.93634	0.01123
1865.65057	0.01124
1864.36480	0.01128
1863.07903	0.01134
1861.79326	0.01132
1860.50749	0.01120
1859.22172	0.01106
1857.93595	0.01104
1856.65019	0.01117
1855.36442	0.01136
1854.07865	0.01151
1852.79288	0.01157
1851.50711	0.01155
1850.22134	0.01147
1848.93557	0.01131
1847.64980	0.01108
1846.36404	0.01084
1845.07827	0.01061
1843.79250	0.01038
1842.50673	0.01013
1841.22096	0.00989
1839.93519	0.00971
1838.64942	0.00956
1837.36365	0.00943
1836.07788	0.00937
1834.79212	0.00941
1833.50635	0.00961
1832.22058	0.00999
1830.93481	0.01051
1829.64904	0.01104
1828.36327	0.01151
1827.07750	0.01196
1825.79173	0.01251
1824.50597	0.01320
1823.22020	0.01402
1821.93443	0.01480
1820.64866	0.01527
1819.36289	0.01508
1818.07712	0.01406
1816.79135	0.01240
1815.50558	0.01055
1814.21981	0.00897
1812.93405	0.00787
1811.64828	0.00725
1810.36251	0.00700
1809.07674	0.00700
1807.79097	0.00715
1806.50520	0.00737
1805.21943	0.00759
1803.93366	0.00777
1802.64790	0.00792
1801.36213	0.00804
1800.07636	0.00819
1798.79059	0.00838
1797.50482	0.00863
1796.21905	0.00892
1794.93328	0.00921
1793.64751	0.00949
1792.36174	0.00973
1791.07598	0.00989
1789.79021	0.00995
1788.50444	0.00991
1787.21867	0.00978
1785.93290	0.00965
1784.64713	0.00954
1783.36136	0.00949
1782.07559	0.00951
1780.78983	0.00958
1779.50406	0.00961
1778.21829	0.00951
1776.93252	0.00924
1775.64675	0.00891
1774.36098	0.00866
1773.07521	0.00854
1771.78944	0.00847
1770.50367	0.00839
1769.21791	0.00830
1767.93214	0.00821
1766.64637	0.00809
1765.36060	0.00799
1764.07483	0.00798
1762.78906	0.00802
1761.50329	0.00802
1760.21752	0.00795
1758.93176	0.00789
1757.64599	0.00788
1756.36022	0.00789
1755.07445	0.00791
1753.78868	0.00795
1752.50291	0.00796
1751.21714	0.00790
1749.93137	0.00778
1748.64560	0.00771
1747.35984	0.00773
1746.07407	0.00780
1744.78830	0.00787
1743.50253	0.00792
1742.21676	0.00797
1740.93099	0.00804
1739.64522	0.00807
1738.35945	0.00806
1737.07369	0.00811
1735.78792	0.00827
1734.50215	0.00844
1733.21638	0.00847
1731.93061	0.00839
1730.64484	0.00834
1729.35907	0.00839
1728.07330	0.00849
1726.78753	0.00857
1725.50177	0.00863
1724.21600	0.00865
1722.93023	0.00866
1721.64446	0.00869
1720.35869	0.00881
1719.07292	0.00899
1717.78715	0.00912
1716.50138	0.00914
1715.21561	0.00914
1713.92985	0.00926
1712.64408	0.00954
1711.35831	0.00996
1710.07254	0.01043
1708.78677	0.01090
1707.50100	0.01138
1706.21523	0.01188
1704.92946	0.01236
1703.64370	0.01283
1702.35793	0.01337
1701.07216	0.01402
1699.78639	0.01470
1698.50062	0.01545
1697.21485	0.01635
1695.92908	0.01728
1694.64331	0.01807
1693.35754	0.01875
1692.07178	0.01946
1690.78601	0.02019
1689.50024	0.02088
1688.21447	0.02153
1686.92870	0.02227
1685.64293	0.02314
1684.35716	0.02401
1683.07139	0.02476
1681.78563	0.02548
1680.49986	0.02627
1679.21409	0.02713
1677.92832	0.02808
1676.64255	0.02913
1675.35678	0.03023
1674.07101	0.03127
1672.78524	0.03226
1671.49947	0.03326
1670.21371	0.03429
1668.92794	0.03528
1667.64217	0.03617
1666.35640	0.03697
1665.07063	0.03774
1663.78486	0.03851
1662.49909	0.03930
1661.21332	0.04010
1659.92756	0.04088
1658.64179	0.04159
1657.35602	0.04218
1656.07025	0.04273
1654.78448	0.04333
1653.49871	0.04390
1652.21294	0.04429
1650.92717	0.04450
1649.64140	0.04476
1648.35564	0.04511
1647.06987	0.04547
1645.78410	0.04572
1644.49833	0.04590
1643.21256	0.04609
1641.92679	0.04630
1640.64102	0.04650
1639.35525	0.04666
1638.06949	0.04680
1636.78372	0.04693
1635.49795	0.04698
1634.21218	0.04692
1632.92641	0.04680
1631.64064	0.04666
1630.35487	0.04647
1629.06910	0.04616
1627.78333	0.04573
1626.49757	0.04519
1625.21180	0.04459
1623.92603	0.04391
1622.64026	0.04311
1621.35449	0.04224
1620.06872	0.04138
1618.78295	0.04061
1617.49718	0.03986
1616.21142	0.03900
1614.92565	0.03804
1613.63988	0.03707
1612.35411	0.03616
1611.06834	0.03527
1609.78257	0.03438
1608.49680	0.03354
1607.21103	0.03276
1605.92526	0.03207
1604.63950	0.03145
1603.35373	0.03090
1602.06796	0.03035
1600.78219	0.02980
1599.49642	0.02926
1598.21065	0.02877
1596.92488	0.02838
1595.63911	0.02808
1594.35335	0.02783
1593.06758	0.02758
1591.78181	0.02730
1590.49604	0.02703
1589.21027	0.02682
1587.92450	0.02668
1586.63873	0.02662
1585.35296	0.02659
1584.06719	0.02661
1582.78143	0.02664
1581.49566	0.02669
1580.20989	0.02678
1578.92412	0.02695
1577.63835	0.02725
1576.35258	0.02755
1575.06681	0.02777
1573.78104	0.02795
1572.49528	0.02823
1571.20951	0.02865
1569.92374	0.02911
1568.63797	0.02955
1567.35220	0.02998
1566.06643	0.03042
1564.78066	0.03082
1563.49489	0.03116
1562.20912	0.03154
1560.92336	0.03204
1559.63759	0.03259
1558.35182	0.03306
1557.06605	0.03345
1555.78028	0.03390
1554.49451	0.03444
1553.20874	0.03497
1551.92297	0.03546
1550.63721	0.03593
1549.35144	0.03637
1548.06567	0.03675
1546.77990	0.03709
1545.49413	0.03735
1544.20836	0.03754
1542.92259	0.03769
1541.63682	0.03788
1540.35105	0.03810
1539.06529	0.03828
1537.77952	0.03837
1536.49375	0.03847
1535.20798	0.03864
1533.92221	0.03883
1532.63644	0.03895
1531.35067	0.03901
1530.06490	0.03903
1528.77914	0.03902
1527.49337	0.03896
1526.20760	0.03886
1524.92183	0.03874
1523.63606	0.03865
1522.35029	0.03860
1521.06452	0.03852
1519.77875	0.03839
1518.49298	0.03824
1517.20722	0.03807
1515.92145	0.03778
1514.63568	0.03738
1513.34991	0.03694
1512.06414	0.03648
1510.77837	0.03602
1509.49260	0.03558
1508.20683	0.03518
1506.92107	0.03471
1505.63530	0.03411
1504.34953	0.03341
1503.06376	0.03277
1501.77799	0.03221
1500.49222	0.03168
1499.20645	0.03111
1497.92068	0.03051
1496.63491	0.02989
1495.34915	0.02925
1494.06338	0.02863
1492.77761	0.02807
1491.49184	0.02754
1490.20607	0.02698
1488.92030	0.02640
1487.63453	0.02583
1486.34876	0.02533
1485.06299	0.02494
1483.77723	0.02465
1482.49146	0.02443
1481.20569	0.02420
1479.91992	0.02397
1478.63415	0.02377
1477.34838	0.02364
1476.06261	0.02360
1474.77684	0.02368
1473.49108	0.02387
1472.20531	0.02408
1470.91954	0.02427
1469.63377	0.02448
1468.34800	0.02475
1467.06223	0.02507
1465.77646	0.02541
1464.49069	0.02572
1463.20492	0.02601
1461.91916	0.02632
1460.63339	0.02670
1459.34762	0.02721
1458.06185	0.02782
1456.77608	0.02845
1455.49031	0.02898
1454.20454	0.02938
1452.91877	0.02966
1451.63301	0.02977
1450.34724	0.02974
1449.06147	0.02963
1447.77570	0.02951
1446.48993	0.02940
1445.20416	0.02928
1443.91839	0.02916
1442.63262	0.02900
1441.34685	0.02880
1440.06109	0.02858
1438.77532	0.02837
1437.48955	0.02812
1436.20378	0.02777
1434.91801	0.02732
1433.63224	0.02690
1432.34647	0.02657
1431.06070	0.02633
1429.77494	0.02611
1428.48917	0.02592
1427.20340	0.02577
1425.91763	0.02566
1424.63186	0.02560
1423.34609	0.02555
1422.06032	0.02550
1420.77455	0.02546
1419.48878	0.02540
1418.20302	0.02531
1416.91725	0.02527
1415.63148	0.02532
1414.34571	0.02543
1413.05994	0.02553
1411.77417	0.02561
1410.48840	0.02567
1409.20263	0.02571
1407.91687	0.02572
1406.63110	0.02571
1405.34533	0.02570
1404.05956	0.02570
1402.77379	0.02570
1401.48802	0.02570
1400.20225	0.02565
1398.91648	0.02556
1397.63071	0.02544
1396.34495	0.02535
1395.05918	0.02530
1393.77341	0.02525
1392.48764	0.02520
1391.20187	0.02517
1389.91610	0.02515
1388.63033	0.02512
1387.34456	0.02506
1386.05880	0.02494
1384.77303	0.02481
1383.48726	0.02466
1382.20149	0.02451
1380.91572	0.02435
1379.62995	0.02421
1378.34418	0.02411
1377.05841	0.02401
1375.77264	0.02389
1374.48688	0.02372
1373.20111	0.02354
1371.91534	0.02334
1370.62957	0.02314
1369.34380	0.02293
1368.05803	0.02271
1366.77226	0.02250
1365.48649	0.02229
1364.20073	0.02208
1362.91496	0.02186
1361.62919	0.02164
1360.34342	0.02145
1359.05765	0.02129
1357.77188	0.02114
1356.48611	0.02099
1355.20034	0.02083
1353.91457	0.02067
1352.62881	0.02055
1351.34304	0.02050
1350.05727	0.02053
1348.77150	0.02058
1347.48573	0.02064
1346.19996	0.02068
1344.91419	0.02073
1343.62842	0.02078
1342.34266	0.02083
1341.05689	0.02089
1339.77112	0.02098
1338.48535	0.02114
1337.19958	0.02135
1335.91381	0.02155
1334.62804	0.02167
1333.34227	0.02166
1332.05650	0.02152
1330.77074	0.02131
1329.48497	0.02111
1328.19920	0.02096
1326.91343	0.02088
1325.62766	0.02085
1324.34189	0.02087
1323.05612	0.02091
1321.77035	0.02092
1320.48459	0.02092
1319.19882	0.02090
1317.91305	0.02086
1316.62728	0.02079
1315.34151	0.02070
1314.05574	0.02064
1312.76997	0.02061
1311.48420	0.02060
1310.19843	0.02058
1308.91267	0.02057
1307.62690	0.02058
1306.34113	0.02062
1305.05536	0.02063
1303.76959	0.02059
1302.48382	0.02049
1301.19805	0.02038
1299.91228	0.02031
1298.62652	0.02026
1297.34075	0.02022
1296.05498	0.02018
1294.76921	0.02013
1293.48344	0.02009
1292.19767	0.02010
1290.91190	0.02017
1289.62613	0.02028
1288.34036	0.02039
1287.05460	0.02045
1285.76883	0.02049
1284.48306	0.02053
1283.19729	0.02059
1281.91152	0.02064
1280.62575	0.02066
1279.33998	0.02062
1278.05421	0.02056
1276.76845	0.02051
1275.48268	0.02052
1274.19691	0.02061
1272.91114	0.02074
1271.62537	0.02088
1270.33960	0.02100
1269.05383	0.02112
1267.76806	0.02124
1266.48229	0.02137
1265.19653	0.02148
1263.91076	0.02157
1262.62499	0.02166
1261.33922	0.02178
1260.05345	0.02190
1258.76768	0.02200
1257.48191	0.02208
1256.19614	0.02216
1254.91037	0.02228
1253.62461	0.02247
1252.33884	0.02271
1251.05307	0.02297
1249.76730	0.02323
1248.48153	0.02349
1247.19576	0.02375
1245.90999	0.02403
1244.62422	0.02430
1243.33846	0.02456
1242.05269	0.02480
1240.76692	0.02501
1239.48115	0.02520
1238.19538	0.02536
1236.90961	0.02548
1235.62384	0.02554
1234.33807	0.02556
1233.05230	0.02556
1231.76654	0.02554
1230.48077	0.02549
1229.19500	0.02539
1227.90923	0.02525
1226.62346	0.02508
1225.33769	0.02485
1224.05192	0.02456
1222.76615	0.02424
1221.48039	0.02393
1220.19462	0.02365
1218.90885	0.02340
1217.62308	0.02320
1216.33731	0.02303
1215.05154	0.02286
1213.76577	0.02268
1212.48000	0.02249
1211.19423	0.02235
1209.90847	0.02230
1208.62270	0.02238
1207.33693	0.02257
1206.05116	0.02280
1204.76539	0.02303
1203.47962	0.02325
1202.19385	0.02341
1200.90808	0.02305
1199.62232	0.02199
1198.33655	0.02187
1197.05078	0.02176
1195.76501	0.02160
1194.47924	0.02139
1193.19347	0.02115
1191.90770	0.02090
1190.62193	0.02069
1189.33616	0.02054
1188.05040	0.02045
1186.76463	0.02039
1185.47886	0.02030
1184.19309	0.02020
1182.90732	0.02007
1181.62155	0.01996
1180.33578	0.01987
1179.05001	0.01983
1177.76425	0.01985
1176.47848	0.01989
1175.19271	0.01989
1173.90694	0.01986
1172.62117	0.01985
1171.33540	0.01994
1170.04963	0.02010
1168.76386	0.02027
1167.47809	0.02038
1166.19233	0.02045
1164.90656	0.02052
1163.62079	0.02060
1162.33502	0.02070
1161.04925	0.02082
1159.76348	0.02095
1158.47771	0.02109
1157.19194	0.02123
1155.90618	0.02132
1154.62041	0.02137
1153.33464	0.02137
1152.04887	0.02131
1150.76310	0.02116
1149.47733	0.02091
1148.19156	0.02064
1146.90579	0.02045
1145.62002	0.02037
1144.33426	0.02036
1143.04849	0.02038
1141.76272	0.02043
1140.47695	0.02051
1139.19118	0.02060
1137.90541	0.02070
1136.61964	0.02080
1135.33387	0.02089
1134.04811	0.02101
1132.76234	0.02117
1131.47657	0.02135
1130.19080	0.02154
1128.90503	0.02172
1127.61926	0.02194
1126.33349	0.02229
1125.04772	0.02279
1123.76195	0.02339
1122.47619	0.02398
1121.19042	0.02453
1119.90465	0.02508
1118.61888	0.02567
1117.33311	0.02629
1116.04734	0.02691
1114.76157	0.02751
1113.47580	0.02812
1112.19004	0.02876
1110.90427	0.02943
1109.61850	0.03008
1108.33273	0.03069
1107.04696	0.03126
1105.76119	0.03184
1104.47542	0.03246
1103.18965	0.03306
1101.90388	0.03359
1100.61812	0.03407
1099.33235	0.03451
1098.04658	0.03489
1096.76081	0.03521
1095.47504	0.03545
1094.18927	0.03562
1092.90350	0.03570
1091.61773	0.03568
1090.33197	0.03556
1089.04620	0.03540
1087.76043	0.03531
1086.47466	0.03537
1085.18889	0.03564
1083.90312	0.03606
1082.61735	0.03653
1081.33158	0.03697
1080.04581	0.03740
1078.76005	0.03785
1077.47428	0.03832
1076.18851	0.03877
1074.90274	0.03919
1073.61697	0.03958
1072.33120	0.03994
1071.04543	0.04026
1069.75966	0.04058
1068.47390	0.04095
1067.18813	0.04140
1065.90236	0.04186
1064.61659	0.04225
1063.33082	0.04258
1062.04505	0.04293
1060.75928	0.04336
1059.47351	0.04382
1058.18774	0.04423
1056.90198	0.04457
1055.61621	0.04493
1054.33044	0.04533
1053.04467	0.04575
1051.75890	0.04610
1050.47313	0.04637
1049.18736	0.04664
1047.90159	0.04699
1046.61583	0.04745
1045.33006	0.04800
1044.04429	0.04863
1042.75852	0.04928
1041.47275	0.04991
1040.18698	0.05051
1038.90121	0.05112
1037.61544	0.05177
1036.32967	0.05245
1035.04391	0.05309
1033.75814	0.05366
1032.47237	0.05413
1031.18660	0.05454
1029.90083	0.05485
1028.61506	0.05499
1027.32929	0.05486
1026.04352	0.05443
1024.75775	0.05379
1023.47199	0.05307
1022.18622	0.05235
1020.90045	0.05162
1019.61468	0.05079
1018.32891	0.04983
1017.04314	0.04879
1015.75737	0.04776
1014.47160	0.04681
1013.18584	0.04600
1011.90007	0.04529
1010.61430	0.04465
1009.32853	0.04403
1008.04276	0.04342
1006.75699	0.04282
1005.47122	0.04220
1004.18545	0.04154
1002.89968	0.04089
1001.61392	0.04027
1000.32815	0.03971
999.04238	0.03918
997.75661	0.03868
996.47084	0.03821
995.18507	0.03776
993.89930	0.03733
992.61353	0.03691
991.32777	0.03648
990.04200	0.03604
988.75623	0.03558
987.47046	0.03510
986.18469	0.03459
984.89892	0.03406
983.61315	0.03355
982.32738	0.03308
981.04161	0.03269
979.75585	0.03238
978.47008	0.03213
977.18431	0.03194
975.89854	0.03178
974.61277	0.03161
973.32700	0.03141
972.04123	0.03119
970.75546	0.03095
969.46970	0.03078
968.18393	0.03070
966.89816	0.03071
965.61239	0.03078
964.32662	0.03086
963.04085	0.03089
961.75508	0.03080
960.46931	0.03054
959.18354	0.03014
957.89778	0.02970
956.61201	0.02930
955.32624	0.02900
954.04047	0.02876
952.75470	0.02855
951.46893	0.02833
950.18316	0.02805
948.89739	0.02774
947.61163	0.02742
946.32586	0.02713
945.04009	0.02683
943.75432	0.02651
942.46855	0.02625
941.18278	0.02609
939.89701	0.02602
938.61124	0.02592
937.32547	0.02572
936.03971	0.02541
934.75394	0.02505
933.46817	0.02472
932.18240	0.02452
930.89663	0.02441
929.61086	0.02432
928.32509	0.02423
927.03932	0.02411
925.75356	0.02395
924.46779	0.02371
923.18202	0.02343
921.89625	0.02318
920.61048	0.02301
919.32471	0.02287
918.03894	0.02270
916.75317	0.02245
915.46740	0.02214
914.18164	0.02181
912.89587	0.02148
911.61010	0.02120
910.32433	0.02100
909.03856	0.02092
907.75279	0.02089
906.46702	0.02081
905.18125	0.02064
903.89549	0.02042
902.60972	0.02021
901.32395	0.02009
900.03818	0.02006
898.75241	0.02010
897.46664	0.02018
896.18087	0.02025
894.89510	0.02025
893.60933	0.02018
892.32357	0.02004
891.03780	0.01987
889.75203	0.01969
888.46626	0.01954
887.18049	0.01947
885.89472	0.01950
884.60895	0.01957
883.32318	0.01962
882.03742	0.01961
880.75165	0.01954
879.46588	0.01950
878.18011	0.01952
876.89434	0.01956
875.60857	0.01954
874.32280	0.01947
873.03703	0.01940
871.75126	0.01939
870.46550	0.01944
869.17973	0.01949
867.89396	0.01948
866.60819	0.01938
865.32242	0.01922
864.03665	0.01909
862.75088	0.01905
861.46511	0.01905
860.17935	0.01903
858.89358	0.01894
857.60781	0.01877
856.32204	0.01853
855.03627	0.01829
853.75050	0.01812
852.46473	0.01806
851.17896	0.01809
849.89319	0.01811
848.60743	0.01808
847.32166	0.01798
846.03589	0.01786
844.75012	0.01771
843.46435	0.01756
842.17858	0.01742
840.89281	0.01731
839.60704	0.01722
838.32128	0.01715
837.03551	0.01708
835.74974	0.01701
834.46397	0.01694
833.17820	0.01687
831.89243	0.01678
830.60666	0.01667
829.32089	0.01655
828.03512	0.01648
826.74936	0.01649
825.46359	0.01658
824.17782	0.01670
822.89205	0.01677
821.60628	0.01676
820.32051	0.01668
819.03474	0.01655
817.74897	0.01644
816.46321	0.01636
815.17744	0.01633
813.89167	0.01638
812.60590	0.01652
811.32013	0.01665
810.03436	0.01667
808.74859	0.01656
807.46282	0.01642
806.17705	0.01635
804.89129	0.01635
803.60552	0.01638
802.31975	0.01641
801.03398	0.01647
799.74821	0.01658
798.46244	0.01673
797.17667	0.01680
795.89090	0.01671
794.60513	0.01647
793.31937	0.01624
792.03360	0.01623
790.74783	0.01653
789.46206	0.01701
788.17629	0.01739
786.89052	0.01742
785.60475	0.01711
784.31898	0.01667
783.03322	0.01637
781.74745	0.01634
780.46168	0.01649
779.17591	0.01670
777.89014	0.01689
776.60437	0.01703
775.31860	0.01709
774.03283	0.01702
772.74706	0.01681
771.46130	0.01657
770.17553	0.01642
768.88976	0.01643
767.60399	0.01657
766.31822	0.01674
765.03245	0.01684
763.74668	0.01689
762.46091	0.01695
761.17515	0.01703
759.88938	0.01704
758.60361	0.01696
757.31784	0.01683
756.03207	0.01673
754.74630	0.01667
753.46053	0.01665
752.17476	0.01671
750.88899	0.01688
749.60323	0.01711
748.31746	0.01729
747.03169	0.01736
745.74592	0.01740
744.46015	0.01748
743.17438	0.01761
741.88861	0.01771
740.60284	0.01775
739.31708	0.01771
738.03131	0.01759
736.74554	0.01742
735.45977	0.01727
734.17400	0.01723
732.88823	0.01731
731.60246	0.01749
730.31669	0.01767
729.03092	0.01774
727.74516	0.01768
726.45939	0.01758
725.17362	0.01757
723.88785	0.01751
722.60208	0.01796
721.31631	0.01849
720.03054	0.01874
718.74477	0.01874
717.45901	0.01863
716.17324	0.01849
714.88747	0.01834
713.60170	0.01815
712.31593	0.01797
711.03016	0.01786
709.74439	0.01786
708.45862	0.01798
707.17285	0.01816
705.88709	0.01833
704.60132	0.01843
703.31555	0.01843
702.02978	0.01838
700.74401	0.01835
699.45824	0.01840
698.17247	0.01850
696.88670	0.01861
695.60094	0.01872
694.31517	0.01884
693.02940	0.01894
691.74363	0.01900
690.45786	0.01901
689.17209	0.01895
687.88632	0.01883
686.60055	0.01868
685.31478	0.01857
684.02902	0.01856
682.74325	0.01861
681.45748	0.01862
680.17171	0.01852
678.88594	0.01836
677.60017	0.01825
676.31440	0.01828
675.02863	0.01839
673.74287	0.01848
672.45710	0.01853
671.17133	0.01861
669.88556	0.01873
668.59979	0.01871
667.31402	0.01865
666.02825	0.01883
664.74248	0.01883
663.45671	0.01879
662.17095	0.01875
660.88518	0.01869
659.59941	0.01868
658.31364	0.01877
657.02787	0.01892
655.74210	0.01901
654.45633	0.01898
653.17056	0.01886
651.88480	0.01873
650.59903	0.01865
649.31326	0.01863
648.02749	0.01870
646.74172	0.01881
645.45595	0.01891
644.17018	0.01892
642.88441	0.01884
641.59864	0.01876
640.31288	0.01878
639.02711	0.01886
637.74134	0.01889
636.45557	0.01880
635.16980	0.01864
633.88403	0.01840
632.59826	0.01803
631.31249	0.01842
630.02673	0.02323
628.74096	0.03060
627.45519	0.02574
626.16942	0.03429
624.88365	0.05191
623.59788	0.06820
622.31211	0.07851
621.02634	0.08102
619.74057	0.07629
618.45481	0.06677
617.16904	0.05556
615.88327	0.04562
614.59750	0.03951
613.31173	0.03856
612.02596	0.04192
610.74019	0.04692
609.45442	0.05128
608.16866	0.05474
606.88289	0.05795
605.59712	0.06071
604.31135	0.06171
603.02558	0.05988
601.73981	0.05568
600.45404	0.05070
599.16827	0.04638
597.88250	0.04316
596.59674	0.04072
595.31097	0.03863
594.02520	0.03679
592.73943	0.03532
591.45366	0.03434
590.16789	0.03383
588.88212	0.03370
587.59635	0.03379
586.31059	0.03397
585.02482	0.03413
583.73905	0.03427
582.45328	0.03455
581.16751	0.03514
579.88174	0.03605
578.59597	0.03699
577.31020	0.03766
576.02443	0.03799
574.73867	0.03829
573.45290	0.03897
572.16713	0.04024
570.88136	0.04200
569.59559	0.04391
568.30982	0.04554
567.02405	0.04654
565.73828	0.04676
564.45251	0.04630
563.16675	0.04544
561.88098	0.04438
560.59521	0.04323
559.30944	0.04199
558.02367	0.04072
556.73790	0.03955
555.45213	0.03864
554.16636	0.03802
552.88060	0.03760
551.59483	0.03722
550.30906	0.03677
549.02329	0.03621
547.73752	0.03563
546.45175	0.03514
545.16598	0.03474
543.88021	0.03434
542.59444	0.03382
541.30868	0.03320
540.02291	0.03260
538.73714	0.03210
537.45137	0.03174
536.16560	0.03149
534.87983	0.03128
533.59406	0.03104
532.30829	0.03071
531.02253	0.03033
529.73676	0.03003
528.45099	0.02989
527.16522	0.02986
525.87945	0.02974
524.59368	0.02941
523.30791	0.02889
522.02214	0.02839
520.73637	0.02805
519.45061	0.02793
518.16484	0.02791
516.87907	0.02783
515.59330	0.02757
514.30753	0.02714
513.02176	0.02660
511.73599	0.02607
510.45022	0.02566
509.16446	0.02543
507.87869	0.02530
506.59292	0.02511
505.30715	0.02472
504.02138	0.02412
502.73561	0.02344
501.44984	0.02283
500.16407	0.02238
498.87830	0.02213
497.59254	0.02210
496.30677	0.02221
495.02100	0.02233
493.73523	0.02234
492.44946	0.02223
491.16369	0.02207
489.87792	0.02195
488.59215	0.02188
487.30639	0.02179
486.02062	0.02158
484.73485	0.02126
483.44908	0.02089
482.16331	0.02053
480.87754	0.02019
479.59177	0.01987
478.30600	0.01964
477.02023	0.01952
475.73447	0.01953
474.44870	0.01963
473.16293	0.01972
471.87716	0.01976
470.59139	0.01973
469.30562	0.01968
468.01985	0.01962
466.73408	0.01955
465.44832	0.01947
464.16255	0.01938
462.87678	0.01929
461.59101	0.01918
460.30524	0.01902
459.01947	0.01879
457.73370	0.01851
456.44793	0.01821
455.16216	0.01794
453.87640	0.01772
452.59063	0.01755
451.30486	0.01743
450.01909	0.01733
448.73332	0.01721
447.44755	0.01707
446.16178	0.01689
444.87601	0.01670
443.59025	0.01653
442.30448	0.01640
441.01871	0.01634
439.73294	0.01635
438.44717	0.01637
437.16140	0.01638
435.87563	0.01635
434.58986	0.01631
433.30409	0.01631
432.01833	0.01634
430.73256	0.01634
429.44679	0.01627
428.16102	0.01614
426.87525	0.01600
425.58948	0.01587
424.30371	0.01577
423.01794	0.01566
421.73218	0.01556
420.44641	0.01549
419.16064	0.01547
417.87487	0.01547
416.58910	0.01549
415.30333	0.01552
414.01756	0.01552
412.73179	0.01546
411.44602	0.01529
410.16026	0.01503
408.87449	0.01475
407.58872	0.01458
406.30295	0.01454
405.01718	0.01460
403.73141	0.01461
402.44564	0.01444
401.15987	0.01413
399.87411	0.01376
