3996.16951	0.05896
3994.24086	0.05884
3992.31220	0.05819
3990.38355	0.05791
3988.45490	0.05834
3986.52624	0.05873
3984.59759	0.05863
3982.66894	0.05842
3980.74028	0.05852
3978.81163	0.05883
3976.88298	0.05894
3974.95432	0.05876
3973.02567	0.05849
3971.09702	0.05810
3969.16836	0.05770
3967.23971	0.05775
3965.31106	0.05805
3963.38240	0.05801
3961.45375	0.05800
3959.52510	0.05834
3957.59645	0.05853
3955.66779	0.05851
3953.73914	0.05851
3951.81049	0.05837
3949.88183	0.05809
3947.95318	0.05789
3946.02453	0.05765
3944.09587	0.05719
3942.16722	0.05683
3940.23857	0.05688
3938.30991	0.05692
3936.38126	0.05677
3934.45261	0.05682
3932.52395	0.05683
3930.59530	0.05633
3928.66665	0.05568
3926.73799	0.05541
3924.80934	0.05528
3922.88069	0.05512
3920.95203	0.05515
3919.02338	0.05530
3917.09473	0.05546
3915.16607	0.05569
3913.23742	0.05584
3911.30877	0.05598
3909.38011	0.05611
3907.45146	0.05601
3905.52281	0.05578
3903.59415	0.05573
3901.66550	0.05579
3899.73685	0.05574
3897.80819	0.05551
3895.87954	0.05515
3893.95089	0.05485
3892.02224	0.05490
3890.09358	0.05496
3888.16493	0.05472
3886.23628	0.05462
3884.30762	0.05475
3882.37897	0.05469
3880.45032	0.05448
3878.52166	0.05459
3876.59301	0.05492
3874.66436	0.05490
3872.73570	0.05468
3870.80705	0.05483
3868.87840	0.05509
3866.94974	0.05496
3865.02109	0.05462
3863.09244	0.05453
3861.16378	0.05474
3859.23513	0.05497
3857.30648	0.05497
3855.37782	0.05473
3853.44917	0.05435
3851.52052	0.05403
3849.59186	0.05391
3847.66321	0.05361
3845.73456	0.05264
3843.80590	0.05144
3841.87725	0.05099
3839.94860	0.05150
3838.01994	0.05219
3836.09129	0.05221
3834.16264	0.05163
3832.23398	0.05097
3830.30533	0.05058
3828.37668	0.05074
3826.44803	0.05128
3824.51937	0.05153
3822.59072	0.05150
3820.66207	0.05173
3818.73341	0.05201
3816.80476	0.05202
3814.87611	0.05196
3812.94745	0.05179
3811.01880	0.05143
3809.09015	0.05125
3807.16149	0.05133
3805.23284	0.05124
3803.30419	0.05076
3801.37553	0.05027
3799.44688	0.05008
3797.51823	0.04994
3795.58957	0.04951
3793.66092	0.04915
3791.73227	0.04951
3789.80361	0.05029
3787.87496	0.05077
3785.94631	0.05085
3784.01765	0.05058
3782.08900	0.05012
3780.16035	0.04979
3778.23169	0.04944
3776.30304	0.04906
3774.37439	0.04929
3772.44573	0.05004
3770.51708	0.05036
3768.58843	0.05008
3766.65977	0.04969
3764.73112	0.04938
3762.80247	0.04902
3760.87381	0.04857
3758.94516	0.04837
3757.01651	0.04865
3755.08786	0.04890
3753.15920	0.04893
3751.23055	0.04897
3749.30190	0.04865
3747.37324	0.04796
3745.44459	0.04752
3743.51594	0.04746
3741.58728	0.04761
3739.65863	0.04777
3737.72998	0.04764
3735.80132	0.04744
3733.87267	0.04744
3731.94402	0.04701
3730.01536	0.04617
3728.08671	0.04621
3726.15806	0.04727
3724.22940	0.04795
3722.30075	0.04756
3720.37210	0.04675
3718.44344	0.04626
3716.51479	0.04606
3714.58614	0.04578
3712.65748	0.04556
3710.72883	0.04588
3708.80018	0.04648
3706.87152	0.04666
3704.94287	0.04637
3703.01422	0.04603
3701.08556	0.04574
3699.15691	0.04538
3697.22826	0.04503
3695.29960	0.04489
3693.37095	0.04519
3691.44230	0.04562
3689.51365	0.04551
3687.58499	0.04509
3685.65634	0.04495
3683.72769	0.04506
3681.79903	0.04530
3679.87038	0.04547
3677.94173	0.04548
3676.01307	0.04558
3674.08442	0.04577
3672.15577	0.04581
3670.22711	0.04584
3668.29846	0.04584
3666.36981	0.04547
3664.44115	0.04485
3662.51250	0.04458
3660.58385	0.04491
3658.65519	0.04560
3656.72654	0.04618
3654.79789	0.04614
3652.86923	0.04567
3650.94058	0.04571
3649.01193	0.04636
3647.08327	0.04687
3645.15462	0.04718
3643.22597	0.04777
3641.29731	0.04861
3639.36866	0.04911
3637.44001	0.04902
3635.51135	0.04857
3633.58270	0.04812
3631.65405	0.04786
3629.72539	0.04802
3627.79674	0.04860
3625.86809	0.04920
3623.93943	0.04961
3622.01078	0.05003
3620.08213	0.05058
3618.15348	0.05125
3616.22482	0.05187
3614.29617	0.05216
3612.36752	0.05232
3610.43886	0.05262
3608.51021	0.05277
3606.58156	0.05259
3604.65290	0.05266
3602.72425	0.05328
3600.79560	0.05410
3598.86694	0.05460
3596.93829	0.05449
3595.00964	0.05422
3593.08098	0.05464
3591.15233	0.05544
3589.22368	0.05574
3587.29502	0.05560
3585.36637	0.05576
3583.43772	0.05637
3581.50906	0.05710
3579.58041	0.05797
3577.65176	0.05889
3575.72310	0.05940
3573.79445	0.05954
3571.86580	0.05989
3569.93714	0.06062
3568.00849	0.06106
3566.07984	0.06116
3564.15118	0.06161
3562.22253	0.06230
3560.29388	0.06268
3558.36522	0.06298
3556.43657	0.06342
3554.50792	0.06370
3552.57927	0.06379
3550.65061	0.06408
3548.72196	0.06482
3546.79331	0.06586
3544.86465	0.06687
3542.93600	0.06757
3541.00735	0.06768
3539.07869	0.06741
3537.15004	0.06745
3535.22139	0.06790
3533.29273	0.06851
3531.36408	0.06911
3529.43543	0.06963
3527.50677	0.07028
3525.57812	0.07123
3523.64947	0.07208
3521.72081	0.07254
3519.79216	0.07287
3517.86351	0.07341
3515.93485	0.07416
3514.00620	0.07489
3512.07755	0.07541
3510.14889	0.07568
3508.22024	0.07583
3506.29159	0.07619
3504.36293	0.07688
3502.43428	0.07742
3500.50563	0.07772
3498.57697	0.07824
3496.64832	0.07874
3494.71967	0.07876
3492.79101	0.07882
3490.86236	0.07943
3488.93371	0.08013
3487.00506	0.08039
3485.07640	0.08042
3483.14775	0.08054
3481.21910	0.08072
3479.29044	0.08106
3477.36179	0.08156
3475.43314	0.08191
3473.50448	0.08191
3471.57583	0.08182
3469.64718	0.08211
3467.71852	0.08293
3465.78987	0.08390
3463.86122	0.08444
3461.93256	0.08460
3460.00391	0.08509
3458.07526	0.08602
3456.14660	0.08659
3454.21795	0.08641
3452.28930	0.08599
3450.36064	0.08587
3448.43199	0.08622
3446.50334	0.08681
3444.57468	0.08723
3442.64603	0.08743
3440.71738	0.08765
3438.78872	0.08805
3436.86007	0.08857
3434.93142	0.08889
3433.00276	0.08912
3431.07411	0.08977
3429.14546	0.09052
3427.21680	0.09070
3425.28815	0.09057
3423.35950	0.09079
3421.43084	0.09139
3419.50219	0.09185
3417.57354	0.09205
3415.64489	0.09251
3413.71623	0.09319
3411.78758	0.09351
3409.85893	0.09351
3407.93027	0.09370
3406.00162	0.09408
3404.07297	0.09438
3402.14431	0.09466
3400.21566	0.09517
3398.28701	0.09577
3396.35835	0.09630
3394.42970	0.09687
3392.50105	0.09725
3390.57239	0.09739
3388.64374	0.09768
3386.71509	0.09805
3384.78643	0.09812
3382.85778	0.09802
3380.92913	0.09813
3379.00047	0.09853
3377.07182	0.09912
3375.14317	0.09989
3373.21451	0.10064
3371.28586	0.10106
3369.35721	0.10132
3367.42855	0.10174
3365.49990	0.10230
3363.57125	0.10289
3361.64259	0.10345
3359.71394	0.10399
3357.78529	0.10471
3355.85663	0.10563
3353.92798	0.10659
3351.99933	0.10756
3350.07068	0.10853
3348.14202	0.10938
3346.21337	0.11010
3344.28472	0.11073
3342.35606	0.11132
3340.42741	0.11209
3338.49876	0.11306
3336.57010	0.11392
3334.64145	0.11456
3332.71280	0.11523
3330.78414	0.11605
3328.85549	0.11681
3326.92684	0.11723
3324.99818	0.11739
3323.06953	0.11772
3321.14088	0.11840
3319.21222	0.11891
3317.28357	0.11900
3315.35492	0.11917
3313.42626	0.11987
3311.49761	0.12064
3309.56896	0.12082
3307.64030	0.12061
3305.71165	0.12063
3303.78300	0.12100
3301.85434	0.12147
3299.92569	0.12202
3297.99704	0.12243
3296.06838	0.12230
3294.13973	0.12181
3292.21108	0.12151
3290.28242	0.12154
3288.35377	0.12168
3286.42512	0.12180
3284.49646	0.12187
3282.56781	0.12189
3280.63916	0.12179
3278.71051	0.12156
3276.78185	0.12137
3274.85320	0.12121
3272.92455	0.12088
3270.99589	0.12045
3269.06724	0.12010
3267.13859	0.11983
3265.20993	0.11951
3263.28128	0.11904
3261.35263	0.11847
3259.42397	0.11800
3257.49532	0.11769
3255.56667	0.11728
3253.63801	0.11663
3251.70936	0.11595
3249.78071	0.11530
3247.85205	0.11470
3245.92340	0.11438
3243.99475	0.11421
3242.06609	0.11394
3240.13744	0.11369
3238.20879	0.11361
3236.28013	0.11333
3234.35148	0.11255
3232.42283	0.11175
3230.49417	0.11138
3228.56552	0.11135
3226.63687	0.11142
3224.70821	0.11136
3222.77956	0.11106
3220.85091	0.11066
3218.92225	0.11030
3216.99360	0.10993
3215.06495	0.10950
3213.13630	0.10914
3211.20764	0.10885
3209.27899	0.10840
3207.35034	0.10790
3205.42168	0.10765
3203.49303	0.10769
3201.56438	0.10775
3199.63572	0.10740
3197.70707	0.10652
3195.77842	0.10545
3193.84976	0.10447
3191.92111	0.10403
3189.99246	0.10430
3188.06380	0.10460
3186.13515	0.10442
3184.20650	0.10384
3182.27784	0.10308
3180.34919	0.10228
3178.42054	0.10150
3176.49188	0.10091
3174.56323	0.10065
3172.63458	0.10043
3170.70592	0.09979
3168.77727	0.09886
3166.84862	0.09804
3164.91996	0.09734
3162.99131	0.09670
3161.06266	0.09624
3159.13400	0.09596
3157.20535	0.09555
3155.27670	0.09486
3153.34804	0.09410
3151.41939	0.09356
3149.49074	0.09322
3147.56209	0.09286
3145.63343	0.09232
3143.70478	0.09155
3141.77613	0.09083
3139.84747	0.09045
3137.91882	0.09023
3135.99017	0.08988
3134.06151	0.08936
3132.13286	0.08890
3130.20421	0.08861
3128.27555	0.08825
3126.34690	0.08769
3124.41825	0.08708
3122.48959	0.08643
3120.56094	0.08604
3118.63229	0.08626
3116.70363	0.08654
3114.77498	0.08627
3112.84633	0.08584
3110.91767	0.08592
3108.98902	0.08635
3107.06037	0.08669
3105.13171	0.08695
3103.20306	0.08711
3101.27441	0.08688
3099.34575	0.08639
3097.41710	0.08604
3095.48845	0.08601
3093.55979	0.08630
3091.63114	0.08675
3089.70249	0.08708
3087.77383	0.08720
3085.84518	0.08740
3083.91653	0.08789
3081.98787	0.08846
3080.05922	0.08874
3078.13057	0.08882
3076.20192	0.08890
3074.27326	0.08882
3072.34461	0.08863
3070.41596	0.08855
3068.48730	0.08838
3066.55865	0.08812
3064.63000	0.08786
3062.70134	0.08747
3060.77269	0.08705
3058.84404	0.08691
3056.91538	0.08689
3054.98673	0.08663
3053.05808	0.08601
3051.12942	0.08525
3049.20077	0.08471
3047.27212	0.08445
3045.34346	0.08411
3043.41481	0.08364
3041.48616	0.08320
3039.55750	0.08264
3037.62885	0.08185
3035.70020	0.08111
3033.77154	0.08072
3031.84289	0.08048
3029.91424	0.08012
3027.98558	0.07969
3026.05693	0.07921
3024.12828	0.07877
3022.19962	0.07837
3020.27097	0.07786
3018.34232	0.07718
3016.41366	0.07650
3014.48501	0.07608
3012.55636	0.07602
3010.62771	0.07612
3008.69905	0.07617
3006.77040	0.07608
3004.84175	0.07596
3002.91309	0.07590
3000.98444	0.07593
2999.05579	0.07592
2997.12713	0.07572
2995.19848	0.07557
2993.26983	0.07581
2991.34117	0.07630
2989.41252	0.07675
2987.48387	0.07706
2985.55521	0.07723
2983.62656	0.07752
2981.69791	0.07817
2979.76925	0.07886
2977.84060	0.07917
2975.91195	0.07916
2973.98329	0.07917
2972.05464	0.07934
2970.12599	0.07968
2968.19733	0.08004
2966.26868	0.08032
2964.34003	0.08064
2962.41137	0.08098
2960.48272	0.08113
2958.55407	0.08115
2956.62541	0.08126
2954.69676	0.08148
2952.76811	0.08167
2950.83945	0.08175
2948.91080	0.08181
2946.98215	0.08204
2945.05349	0.08233
2943.12484	0.08251
2941.19619	0.08279
2939.26754	0.08333
2937.33888	0.08363
2935.41023	0.08331
2933.48158	0.08284
2931.55292	0.08277
2929.62427	0.08298
2927.69562	0.08323
2925.76696	0.08333
2923.83831	0.08315
2921.90966	0.08271
2919.98100	0.08215
2918.05235	0.08164
2916.12370	0.08117
2914.19504	0.08045
2912.26639	0.07955
2910.33774	0.07869
2908.40908	0.07789
2906.48043	0.07722
2904.55178	0.07670
2902.62312	0.07616
2900.69447	0.07561
2898.76582	0.07525
2896.83716	0.07514
2894.90851	0.07503
2892.97986	0.07467
2891.05120	0.07425
2889.12255	0.07410
2887.19390	0.07429
2885.26524	0.07446
2883.33659	0.07433
2881.40794	0.07398
2879.47928	0.07376
2877.55063	0.07385
2875.62198	0.07405
2873.69333	0.07406
2871.76467	0.07386
2869.83602	0.07366
2867.90737	0.07340
2865.97871	0.07287
2864.05006	0.07227
2862.12141	0.07182
2860.19275	0.07140
2858.26410	0.07097
2856.33545	0.07065
2854.40679	0.07050
2852.47814	0.07033
2850.54949	0.06999
2848.62083	0.06950
2846.69218	0.06888
2844.76353	0.06826
2842.83487	0.06777
2840.90622	0.06724
2838.97757	0.06669
2837.04891	0.06638
2835.12026	0.06629
2833.19161	0.06615
2831.26295	0.06586
2829.33430	0.06551
2827.40565	0.06520
2825.47699	0.06494
2823.54834	0.06458
2821.61969	0.06409
2819.69103	0.06375
2817.76238	0.06365
2815.83373	0.06364
2813.90507	0.06363
2811.97642	0.06358
2810.04777	0.06340
2808.11912	0.06301
2806.19046	0.06259
2804.26181	0.06238
2802.33316	0.06235
2800.40450	0.06228
2798.47585	0.06210
2796.54720	0.06185
2794.61854	0.06157
2792.68989	0.06136
2790.76124	0.06126
2788.83258	0.06115
2786.90393	0.06095
2784.97528	0.06070
2783.04662	0.06044
2781.11797	0.06024
2779.18932	0.06017
2777.26066	0.06021
2775.33201	0.06020
2773.40336	0.06010
2771.47470	0.05997
2769.54605	0.05972
2767.61740	0.05929
2765.68874	0.05888
2763.76009	0.05876
2761.83144	0.05880
2759.90278	0.05881
2757.97413	0.05870
2756.04548	0.05842
2754.11682	0.05816
2752.18817	0.05817
2750.25952	0.05820
2748.33086	0.05794
2746.40221	0.05760
2744.47356	0.05737
2742.54490	0.05713
2740.61625	0.05678
2738.68760	0.05657
2736.75895	0.05663
2734.83029	0.05668
2732.90164	0.05652
2730.97299	0.05628
2729.04433	0.05610
2727.11568	0.05602
2725.18703	0.05598
2723.25837	0.05591
2721.32972	0.05580
2719.40107	0.05566
2717.47241	0.05550
2715.54376	0.05539
2713.61511	0.05531
2711.68645	0.05520
2709.75780	0.05509
2707.82915	0.05499
2705.90049	0.05477
2703.97184	0.05451
2702.04319	0.05439
2700.11453	0.05440
2698.18588	0.05439
2696.25723	0.05430
2694.32857	0.05411
2692.39992	0.05387
2690.47127	0.05372
2688.54261	0.05363
2686.61396	0.05351
2684.68531	0.05335
2682.75665	0.05315
2680.82800	0.05296
2678.89935	0.05281
2676.97069	0.05260
2675.04204	0.05239
2673.11339	0.05242
2671.18474	0.05257
2669.25608	0.05255
2667.32743	0.05234
2665.39878	0.05214
2663.47012	0.05208
2661.54147	0.05206
2659.61282	0.05183
2657.68416	0.05137
2655.75551	0.05082
2653.82686	0.05040
2651.89820	0.05019
2649.96955	0.04999
2648.04090	0.04966
2646.11224	0.04933
2644.18359	0.04903
2642.25494	0.04866
2640.32628	0.04838
2638.39763	0.04823
2636.46898	0.04795
2634.54032	0.04747
2632.61167	0.04704
2630.68302	0.04693
2628.75436	0.04692
2626.82571	0.04678
2624.89706	0.04677
2622.96840	0.04694
2621.03975	0.04678
2619.11110	0.04625
2617.18244	0.04580
2615.25379	0.04557
2613.32514	0.04543
2611.39648	0.04523
2609.46783	0.04476
2607.53918	0.04406
2605.61052	0.04356
2603.68187	0.04354
2601.75322	0.04376
2599.82457	0.04383
2597.89591	0.04372
2595.96726	0.04364
2594.03861	0.04370
2592.10995	0.04366
2590.18130	0.04320
2588.25265	0.04259
2586.32399	0.04220
2584.39534	0.04208
2582.46669	0.04218
2580.53803	0.04220
2578.60938	0.04204
2576.68073	0.04194
2574.75207	0.04191
2572.82342	0.04192
2570.89477	0.04187
2568.96611	0.04148
2567.03746	0.04090
2565.10881	0.04052
2563.18015	0.04053
2561.25150	0.04073
2559.32285	0.04076
2557.39419	0.04067
2555.46554	0.04072
2553.53689	0.04075
2551.60823	0.04046
2549.67958	0.04012
2547.75093	0.03996
2545.82227	0.03981
2543.89362	0.03961
2541.96497	0.03946
2540.03631	0.03955
2538.10766	0.03973
2536.17901	0.03961
2534.25036	0.03922
2532.32170	0.03892
2530.39305	0.03885
2528.46440	0.03884
2526.53574	0.03877
2524.60709	0.03862
2522.67844	0.03845
2520.74978	0.03832
2518.82113	0.03819
2516.89248	0.03806
2514.96382	0.03786
2513.03517	0.03764
2511.10652	0.03768
2509.17786	0.03804
2507.24921	0.03841
2505.32056	0.03848
2503.39190	0.03842
2501.46325	0.03835
2499.53460	0.03805
2497.60594	0.03741
2495.67729	0.03695
2493.74864	0.03717
2491.81998	0.03763
2489.89133	0.03763
2487.96268	0.03723
2486.03402	0.03698
2484.10537	0.03702
2482.17672	0.03723
2480.24806	0.03746
2478.31941	0.03740
2476.39076	0.03708
2474.46210	0.03671
2472.53345	0.03643
2470.60480	0.03649
2468.67615	0.03675
2466.74749	0.03675
2464.81884	0.03658
2462.89019	0.03658
2460.96153	0.03665
2459.03288	0.03649
2457.10423	0.03611
2455.17557	0.03560
2453.24692	0.03515
2451.31827	0.03506
2449.38961	0.03529
2447.46096	0.03543
2445.53231	0.03553
2443.60365	0.03574
2441.67500	0.03586
2439.74635	0.03586
2437.81769	0.03578
2435.88904	0.03576
2433.96039	0.03591
2432.03173	0.03598
2430.10308	0.03595
2428.17443	0.03586
2426.24577	0.03546
2424.31712	0.03504
2422.38847	0.03505
2420.45981	0.03514
2418.53116	0.03533
2416.60251	0.03581
2414.67385	0.03598
2412.74520	0.03563
2410.81655	0.03540
2408.88789	0.03554
2406.95924	0.03572
2405.03059	0.03559
2403.10193	0.03532
2401.17328	0.03541
2399.24463	0.03572
2397.31598	0.03588
2395.38732	0.03589
2393.45867	0.03598
2391.53002	0.03604
2389.60136	0.03600
2387.67271	0.03597
2385.74406	0.03590
2383.81540	0.03583
2381.88675	0.03599
2379.95810	0.03636
2378.02944	0.03663
2376.10079	0.03669
2374.17214	0.03660
2372.24348	0.03643
2370.31483	0.03640
2368.38618	0.03668
2366.45752	0.03693
2364.52887	0.03688
2362.60022	0.03672
2360.67156	0.03669
2358.74291	0.03672
2356.81426	0.03670
2354.88560	0.03659
2352.95695	0.03638
2351.02830	0.03612
2349.09964	0.03600
2347.17099	0.03610
2345.24234	0.03617
2343.31368	0.03611
2341.38503	0.03611
2339.45638	0.03625
2337.52772	0.03627
2335.59907	0.03615
2333.67042	0.03610
2331.74177	0.03597
2329.81311	0.03555
2327.88446	0.03499
2325.95581	0.03451
2324.02715	0.03424
2322.09850	0.03419
2320.16985	0.03418
2318.24119	0.03408
2316.31254	0.03381
2314.38389	0.03333
2312.45523	0.03290
2310.52658	0.03279
2308.59793	0.03282
2306.66927	0.03272
2304.74062	0.03242
2302.81197	0.03208
2300.88331	0.03184
2298.95466	0.03160
2297.02601	0.03138
2295.09735	0.03122
2293.16870	0.03102
2291.24005	0.03068
2289.31139	0.03024
2287.38274	0.02971
2285.45409	0.02904
2283.52543	0.02848
2281.59678	0.02842
2279.66813	0.02861
2277.73947	0.02851
2275.81082	0.02821
2273.88217	0.02786
2271.95351	0.02749
2270.02486	0.02743
2268.09621	0.02741
2266.16755	0.02693
2264.23890	0.02654
2262.31025	0.02689
2260.38160	0.02729
2258.45294	0.02692
2256.52429	0.02629
2254.59564	0.02600
2252.66698	0.02578
2250.73833	0.02553
2248.80968	0.02538
2246.88102	0.02497
2244.95237	0.02472
2243.02372	0.02435
2241.09506	0.02348
2239.16641	0.02271
2237.23776	0.02258
2235.30910	0.02280
2233.38045	0.02301
2231.45180	0.02315
2229.52314	0.02333
2227.59449	0.02337
2225.66584	0.02320
2223.73718	0.02309
2221.80853	0.02276
2219.87988	0.02172
2217.95122	0.02084
2216.02257	0.02090
2214.09392	0.02106
2212.16526	0.02087
2210.23661	0.02072
2208.30796	0.02070
2206.37930	0.02051
2204.45065	0.01987
2202.52200	0.01915
2200.59334	0.01927
2198.66469	0.02043
2196.73604	0.02139
2194.80739	0.02065
2192.87873	0.01893
2190.95008	0.01810
2189.02143	0.01828
2187.09277	0.01827
2185.16412	0.01746
2183.23547	0.01660
2181.30681	0.01684
2179.37816	0.01795
2177.44951	0.01868
2175.52085	0.01804
2173.59220	0.01628
2171.66355	0.01452
2169.73489	0.01339
2167.80624	0.01327
2165.87759	0.01386
2163.94893	0.01407
2162.02028	0.01363
2160.09163	0.01342
2158.16297	0.01458
2156.23432	0.01669
2154.30567	0.01753
2152.37701	0.01641
2150.44836	0.01557
2148.51971	0.01636
2146.59105	0.01748
2144.66240	0.01829
2142.73375	0.01933
2140.80509	0.02046
2138.87644	0.02131
2136.94779	0.02180
2135.01913	0.02174
2133.09048	0.02131
2131.16183	0.02135
2129.23318	0.02201
2127.30452	0.02263
2125.37587	0.02301
2123.44722	0.02330
2121.51856	0.02332
2119.58991	0.02308
2117.66126	0.02281
2115.73260	0.02256
2113.80395	0.02257
2111.87530	0.02276
2109.94664	0.02239
2108.01799	0.02167
2106.08934	0.02151
2104.16068	0.02172
2102.23203	0.02150
2100.30338	0.02088
2098.37472	0.02045
2096.44607	0.02083
2094.51742	0.02153
2092.58876	0.02173
2090.66011	0.02154
2088.73146	0.02133
2086.80280	0.02106
2084.87415	0.02094
2082.94550	0.02094
2081.01684	0.02067
2079.08819	0.02008
2077.15954	0.01954
2075.23088	0.01919
2073.30223	0.01883
2071.37358	0.01840
2069.44492	0.01810
2067.51627	0.01818
2065.58762	0.01843
2063.65896	0.01859
2061.73031	0.01893
2059.80166	0.01936
2057.87301	0.01923
2055.94435	0.01862
2054.01570	0.01806
2052.08705	0.01739
2050.15839	0.01614
2048.22974	0.01480
2046.30109	0.01427
2044.37243	0.01464
2042.44378	0.01524
2040.51513	0.01505
2038.58647	0.01391
2036.65782	0.01301
2034.72917	0.01301
2032.80051	0.01322
2030.87186	0.01320
2028.94321	0.01313
2027.01455	0.01300
2025.08590	0.01278
2023.15725	0.01240
2021.22859	0.01186
2019.29994	0.01170
2017.37129	0.01234
2015.44263	0.01360
2013.51398	0.01473
2011.58533	0.01492
2009.65667	0.01402
2007.72802	0.01296
2005.79937	0.01286
2003.87071	0.01361
2001.94206	0.01449
2000.01341	0.01518
1998.08475	0.01557
1996.15610	0.01575
1994.22745	0.01577
1992.29880	0.01579
1990.37014	0.01578
1988.44149	0.01545
1986.51284	0.01506
1984.58418	0.01518
1982.65553	0.01538
1980.72688	0.01458
1978.79822	0.01314
1976.86957	0.01245
1974.94092	0.01254
1973.01226	0.01276
1971.08361	0.01340
1969.15496	0.01470
1967.22630	0.01574
1965.29765	0.01612
1963.36900	0.01647
1961.44034	0.01684
1959.51169	0.01669
1957.58304	0.01623
1955.65438	0.01604
1953.72573	0.01586
1951.79708	0.01562
1949.86842	0.01588
1947.93977	0.01630
1946.01112	0.01641
1944.08246	0.01673
1942.15381	0.01742
1940.22516	0.01791
1938.29650	0.01801
1936.36785	0.01805
1934.43920	0.01820
1932.51054	0.01827
1930.58189	0.01804
1928.65324	0.01763
1926.72458	0.01743
1924.79593	0.01761
1922.86728	0.01807
1920.93863	0.01837
1919.00997	0.01829
1917.08132	0.01827
1915.15267	0.01850
1913.22401	0.01884
1911.29536	0.01920
1909.36671	0.01933
1907.43805	0.01926
1905.50940	0.01917
1903.58075	0.01894
1901.65209	0.01863
1899.72344	0.01840
1897.79479	0.01819
1895.86613	0.01809
1893.93748	0.01815
1892.00883	0.01828
1890.08017	0.01861
1888.15152	0.01902
1886.22287	0.01914
1884.29421	0.01895
1882.36556	0.01862
1880.43691	0.01836
1878.50825	0.01834
1876.57960	0.01849
1874.65095	0.01860
1872.72229	0.01860
1870.79364	0.01855
1868.86499	0.01839
1866.93633	0.01822
1865.00768	0.01822
1863.07903	0.01837
1861.15037	0.01852
1859.22172	0.01864
1857.29307	0.01879
1855.36442	0.01893
1853.43576	0.01884
1851.50711	0.01847
1849.57846	0.01811
1847.64980	0.01805
1845.72115	0.01812
1843.79250	0.01823
1841.86384	0.01834
1839.93519	0.01830
1838.00654	0.01816
1836.07788	0.01813
1834.14923	0.01821
1832.22058	0.01830
1830.29192	0.01832
1828.36327	0.01827
1826.43462	0.01826
1824.50596	0.01826
1822.57731	0.01810
1820.64866	0.01790
1818.72000	0.01792
1816.79135	0.01818
1814.86270	0.01839
1812.93404	0.01831
1811.00539	0.01799
1809.07674	0.01774
1807.14808	0.01763
1805.21943	0.01760
1803.29078	0.01761
1801.36212	0.01759
1799.43347	0.01744
1797.50482	0.01733
1795.57616	0.01742
1793.64751	0.01760
1791.71886	0.01768
1789.79021	0.01761
1787.86155	0.01747
1785.93290	0.01732
1784.00425	0.01726
1782.07559	0.01728
1780.14694	0.01732
1778.21829	0.01732
1776.28963	0.01724
1774.36098	0.01714
1772.43233	0.01710
1770.50367	0.01711
1768.57502	0.01706
1766.64637	0.01698
1764.71771	0.01695
1762.78906	0.01696
1760.86041	0.01695
1758.93175	0.01697
1757.00310	0.01715
1755.07445	0.01739
1753.14579	0.01752
1751.21714	0.01760
1749.28849	0.01781
1747.35983	0.01810
1745.43118	0.01836
1743.50253	0.01860
1741.57387	0.01888
1739.64522	0.01916
1737.71657	0.01943
1735.78791	0.01973
1733.85926	0.02010
1731.93061	0.02045
1730.00195	0.02075
1728.07330	0.02110
1726.14465	0.02153
1724.21599	0.02193
1722.28734	0.02224
1720.35869	0.02248
1718.43004	0.02282
1716.50138	0.02341
1714.57273	0.02411
1712.64408	0.02481
1710.71542	0.02567
1708.78677	0.02685
1706.85812	0.02843
1704.92946	0.03041
1703.00081	0.03270
1701.07216	0.03526
1699.14350	0.03808
1697.21485	0.04110
1695.28620	0.04425
1693.35754	0.04733
1691.42889	0.05035
1689.50024	0.05346
1687.57158	0.05676
1685.64293	0.06030
1683.71428	0.06402
1681.78562	0.06793
1679.85697	0.07216
1677.92832	0.07670
1675.99966	0.08149
1674.07101	0.08648
1672.14236	0.09163
1670.21370	0.09697
1668.28505	0.10232
1666.35640	0.10745
1664.42774	0.11241
1662.49909	0.11723
1660.57044	0.12168
1658.64178	0.12561
1656.71313	0.12905
1654.78448	0.13213
1652.85583	0.13490
1650.92717	0.13724
1648.99852	0.13916
1647.06987	0.14089
1645.14121	0.14247
1643.21256	0.14390
1641.28391	0.14523
1639.35525	0.14643
1637.42660	0.14747
1635.49795	0.14836
1633.56929	0.14894
1631.64064	0.14903
1629.71199	0.14839
1627.78333	0.14681
1625.85468	0.14420
1623.92603	0.14063
1621.99737	0.13633
1620.06872	0.13161
1618.14007	0.12668
1616.21141	0.12165
1614.28276	0.11664
1612.35411	0.11172
1610.42545	0.10696
1608.49680	0.10241
1606.56815	0.09808
1604.63949	0.09403
1602.71084	0.09037
1600.78219	0.08706
1598.85353	0.08408
1596.92488	0.08147
1594.99623	0.07921
1593.06757	0.07732
1591.13892	0.07582
1589.21027	0.07471
1587.28161	0.07395
1585.35296	0.07356
1583.42431	0.07350
1581.49566	0.07377
1579.56700	0.07447
1577.63835	0.07562
1575.70970	0.07718
1573.78104	0.07913
1571.85239	0.08146
1569.92374	0.08414
1567.99508	0.08704
1566.06643	0.09010
1564.13778	0.09334
1562.20912	0.09666
1560.28047	0.09995
1558.35182	0.10318
1556.42316	0.10621
1554.49451	0.10888
1552.56586	0.11110
1550.63720	0.11287
1548.70855	0.11428
1546.77990	0.11543
1544.85124	0.11631
1542.92259	0.11684
1540.99394	0.11705
1539.06528	0.11706
1537.13663	0.11687
1535.20798	0.11641
1533.27932	0.11577
1531.35067	0.11499
1529.42202	0.11405
1527.49336	0.11293
1525.56471	0.11163
1523.63606	0.11013
1521.70740	0.10852
1519.77875	0.10691
1517.85010	0.10529
1515.92145	0.10349
1513.99279	0.10135
1512.06414	0.09890
1510.13549	0.09626
1508.20683	0.09344
1506.27818	0.09046
1504.34953	0.08744
1502.42087	0.08443
1500.49222	0.08145
1498.56357	0.07854
1496.63491	0.07577
1494.70626	0.07301
1492.77761	0.07031
1490.84895	0.06787
1488.92030	0.06577
1486.99165	0.06400
1485.06299	0.06265
1483.13434	0.06175
1481.20569	0.06126
1479.27703	0.06116
1477.34838	0.06147
1475.41973	0.06220
1473.49107	0.06329
1471.56242	0.06464
1469.63377	0.06615
1467.70511	0.06779
1465.77646	0.06950
1463.84781	0.07123
1461.91915	0.07301
1459.99050	0.07486
1458.06185	0.07669
1456.13319	0.07832
1454.20454	0.07958
1452.27589	0.08040
1450.34724	0.08075
1448.41858	0.08061
1446.48993	0.08009
1444.56128	0.07937
1442.63262	0.07853
1440.70397	0.07756
1438.77532	0.07645
1436.84666	0.07508
1434.91801	0.07348
1432.98936	0.07182
1431.06070	0.07038
1429.13205	0.06925
1427.20340	0.06841
1425.27474	0.06783
1423.34609	0.06745
1421.41744	0.06722
1419.48878	0.06710
1417.56013	0.06704
1415.63148	0.06709
1413.70282	0.06725
1411.77417	0.06751
1409.84552	0.06788
1407.91686	0.06840
1405.98821	0.06891
1404.05956	0.06922
1402.13090	0.06931
1400.20225	0.06929
1398.27360	0.06920
1396.34494	0.06894
1394.41629	0.06855
1392.48764	0.06823
1390.55898	0.06806
1388.63033	0.06791
1386.70168	0.06768
1384.77302	0.06738
1382.84437	0.06702
1380.91572	0.06659
1378.98707	0.06615
1377.05841	0.06567
1375.12976	0.06502
1373.20111	0.06418
1371.27245	0.06325
1369.34380	0.06230
1367.41515	0.06132
1365.48649	0.06027
1363.55784	0.05921
1361.62919	0.05835
1359.70053	0.05774
1357.77188	0.05737
1355.84323	0.05731
1353.91457	0.05756
1351.98592	0.05804
1350.05727	0.05870
1348.12861	0.05957
1346.19996	0.06057
1344.27131	0.06157
1342.34265	0.06252
1340.41400	0.06335
1338.48535	0.06394
1336.55669	0.06424
1334.62804	0.06417
1332.69939	0.06366
1330.77073	0.06274
1328.84208	0.06170
1326.91343	0.06081
1324.98477	0.06011
1323.05612	0.05957
1321.12747	0.05916
1319.19881	0.05888
1317.27016	0.05868
1315.34151	0.05845
1313.41286	0.05805
1311.48420	0.05754
1309.55555	0.05705
1307.62690	0.05662
1305.69824	0.05625
1303.76959	0.05600
1301.84094	0.05582
1299.91228	0.05563
1297.98363	0.05546
1296.05498	0.05542
1294.12632	0.05558
1292.19767	0.05600
1290.26902	0.05664
1288.34036	0.05741
1286.41171	0.05818
1284.48306	0.05886
1282.55440	0.05943
1280.62575	0.05985
1278.69710	0.06005
1276.76844	0.06006
1274.83979	0.05998
1272.91114	0.05995
1270.98248	0.06006
1269.05383	0.06034
1267.12518	0.06072
1265.19652	0.06115
1263.26787	0.06161
1261.33922	0.06216
1259.41056	0.06288
1257.48191	0.06378
1255.55326	0.06477
1253.62460	0.06584
1251.69595	0.06701
1249.76730	0.06824
1247.83864	0.06950
1245.90999	0.07075
1243.98134	0.07199
1242.05269	0.07318
1240.12403	0.07421
1238.19538	0.07491
1236.26673	0.07529
1234.33807	0.07546
1232.40942	0.07530
1230.48077	0.07464
1228.55211	0.07354
1226.62346	0.07214
1224.69481	0.07049
1222.76615	0.06873
1220.83750	0.06705
1218.90885	0.06558
1216.98019	0.06441
1215.05154	0.06360
1213.12289	0.06316
1211.19423	0.06307
1209.26558	0.06335
1207.33693	0.06382
1205.40827	0.06421
1203.47962	0.06433
1201.55097	0.06410
1199.62231	0.06357
1197.69366	0.06260
1195.76501	0.06143
1193.83635	0.06026
1191.90770	0.05913
1189.97905	0.05795
1188.05039	0.05681
1186.12174	0.05586
1184.19309	0.05504
1182.26443	0.05436
1180.33578	0.05393
1178.40713	0.05370
1176.47848	0.05354
1174.54982	0.05340
1172.62117	0.05323
1170.69252	0.05305
1168.76386	0.05291
1166.83521	0.05288
1164.90656	0.05295
1162.97790	0.05295
1161.04925	0.05271
1159.12060	0.05224
1157.19194	0.05166
1155.26329	0.05109
1153.33464	0.05041
1151.40598	0.04949
1149.47733	0.04839
1147.54868	0.04741
1145.62002	0.04676
1143.69137	0.04623
1141.76272	0.04561
1139.83406	0.04497
1137.90541	0.04436
1135.97676	0.04387
1134.04810	0.04362
1132.11945	0.04351
1130.19080	0.04341
1128.26214	0.04332
1126.33349	0.04318
1124.40484	0.04297
1122.47618	0.04277
1120.54753	0.04253
1118.61888	0.04228
1116.69022	0.04223
1114.76157	0.04233
1112.83292	0.04238
1110.90427	0.04245
1108.97561	0.04268
1107.04696	0.04295
1105.11831	0.04319
1103.18965	0.04353
1101.26100	0.04390
1099.33235	0.04422
1097.40369	0.04462
1095.47504	0.04515
1093.54639	0.04577
1091.61773	0.04655
1089.68908	0.04756
1087.76043	0.04871
1085.83177	0.04992
1083.90312	0.05094
1081.97447	0.05160
1080.04581	0.05196
1078.11716	0.05213
1076.18851	0.05201
1074.25985	0.05158
1072.33120	0.05105
1070.40255	0.05071
1068.47389	0.05065
1066.54524	0.05073
1064.61659	0.05077
1062.68793	0.05070
1060.75928	0.05052
1058.83063	0.05023
1056.90197	0.04983
1054.97332	0.04939
1053.04467	0.04899
1051.11601	0.04855
1049.18736	0.04801
1047.25871	0.04752
1045.33005	0.04725
1043.40140	0.04709
1041.47275	0.04697
1039.54410	0.04702
1037.61544	0.04731
1035.68679	0.04775
1033.75814	0.04818
1031.82948	0.04841
1029.90083	0.04824
1027.97218	0.04760
1026.04352	0.04667
1024.11487	0.04570
1022.18622	0.04481
1020.25756	0.04396
1018.32891	0.04328
1016.40026	0.04285
1014.47160	0.04250
1012.54295	0.04202
1010.61430	0.04141
1008.68564	0.04077
1006.75699	0.04018
1004.82834	0.03969
1002.89968	0.03923
1000.97103	0.03870
999.04238	0.03811
997.11372	0.03758
995.18507	0.03712
993.25642	0.03674
991.32776	0.03637
989.39911	0.03600
987.47046	0.03572
985.54180	0.03562
983.61315	0.03559
981.68450	0.03559
979.75584	0.03561
977.82719	0.03564
975.89854	0.03567
973.96989	0.03569
972.04123	0.03560
970.11258	0.03534
968.18393	0.03504
966.25527	0.03477
964.32662	0.03446
962.39797	0.03413
960.46931	0.03388
958.54066	0.03370
956.61201	0.03361
954.68335	0.03351
952.75470	0.03333
950.82605	0.03310
948.89739	0.03297
946.96874	0.03302
945.04009	0.03314
943.11143	0.03325
941.18278	0.03335
939.25413	0.03333
937.32547	0.03321
935.39682	0.03316
933.46817	0.03322
931.53951	0.03319
929.61086	0.03303
927.68221	0.03288
925.75355	0.03282
923.82490	0.03281
921.89625	0.03281
919.96759	0.03278
918.03894	0.03265
916.11029	0.03245
914.18163	0.03230
912.25298	0.03212
910.32433	0.03185
908.39567	0.03160
906.46702	0.03147
904.53837	0.03123
902.60972	0.03079
900.68106	0.03050
898.75241	0.03056
896.82376	0.03074
894.89510	0.03072
892.96645	0.03042
891.03780	0.03013
889.10914	0.03007
887.18049	0.03007
885.25184	0.02994
883.32318	0.02983
881.39453	0.03000
879.46588	0.03037
877.53722	0.03059
875.60857	0.03059
873.67992	0.03049
871.75126	0.03034
869.82261	0.03018
867.89396	0.03006
865.96530	0.02996
864.03665	0.02988
862.10800	0.02984
860.17934	0.02973
858.25069	0.02964
856.32204	0.02973
854.39338	0.02992
852.46473	0.03004
850.53608	0.03005
848.60742	0.03004
846.67877	0.03004
844.75012	0.03004
842.82146	0.02998
840.89281	0.02988
838.96416	0.02973
837.03551	0.02955
835.10685	0.02945
833.17820	0.02946
831.24955	0.02957
829.32089	0.02963
827.39224	0.02956
825.46359	0.02954
823.53493	0.02977
821.60628	0.03026
819.67763	0.03075
817.74897	0.03102
815.82032	0.03115
813.89167	0.03121
811.96301	0.03125
810.03436	0.03134
808.10571	0.03150
806.17705	0.03165
804.24840	0.03171
802.31975	0.03175
800.39109	0.03191
798.46244	0.03216
796.53379	0.03243
794.60513	0.03267
792.67648	0.03289
790.74783	0.03309
788.81917	0.03322
786.89052	0.03335
784.96187	0.03357
783.03321	0.03390
781.10456	0.03420
779.17591	0.03432
777.24725	0.03436
775.31860	0.03452
773.38995	0.03479
771.46130	0.03511
769.53264	0.03544
767.60399	0.03582
765.67534	0.03615
763.74668	0.03629
761.81803	0.03639
759.88938	0.03665
757.96072	0.03697
756.03207	0.03728
754.10342	0.03765
752.17476	0.03798
750.24611	0.03822
748.31746	0.03835
746.38880	0.03843
744.46015	0.03862
742.53150	0.03894
740.60284	0.03943
738.67419	0.04001
736.74554	0.04037
734.81688	0.04049
732.88823	0.04058
730.95958	0.04075
729.03092	0.04105
727.10227	0.04135
725.17362	0.04158
723.24496	0.04178
721.31631	0.04226
719.38766	0.04278
717.45900	0.04322
715.53035	0.04350
713.60170	0.04364
711.67304	0.04386
709.74439	0.04418
707.81574	0.04451
705.88708	0.04486
703.95843	0.04525
702.02978	0.04558
700.10113	0.04576
698.17247	0.04592
696.24382	0.04617
694.31517	0.04637
692.38651	0.04646
690.45786	0.04659
688.52921	0.04684
686.60055	0.04710
684.67190	0.04724
682.74325	0.04734
680.81459	0.04752
678.88594	0.04780
676.95729	0.04807
675.02863	0.04829
673.09998	0.04852
671.17133	0.04882
669.24267	0.04912
667.31402	0.04932
665.38537	0.04946
663.45671	0.04962
661.52806	0.04978
659.59941	0.04995
657.67075	0.05011
655.74210	0.05015
653.81345	0.05009
651.88479	0.05018
649.95614	0.05047
648.02749	0.05079
646.09883	0.05097
644.17018	0.05096
642.24153	0.05086
640.31287	0.05088
638.38422	0.05106
636.45557	0.05126
634.52692	0.05137
632.59826	0.05127
630.66961	0.05128
628.74096	0.05203
626.81230	0.05057
624.88365	0.04883
622.95500	0.04901
621.02634	0.05123
619.09769	0.05274
617.16904	0.05307
615.24038	0.05296
613.31173	0.05202
611.38308	0.05053
609.45442	0.04964
607.52577	0.04997
605.59712	0.05094
603.66846	0.05184
601.73981	0.05272
599.81116	0.05315
597.88250	0.05268
595.95385	0.05172
594.02520	0.05100
592.09654	0.05100
590.16789	0.05148
588.23924	0.05168
586.31058	0.05156
584.38193	0.05158
582.45328	0.05160
580.52462	0.05148
578.59597	0.05151
576.66732	0.05167
574.73866	0.05172
572.81001	0.05169
570.88136	0.05171
568.95270	0.05189
567.02405	0.05220
565.09540	0.05243
563.16675	0.05246
561.23809	0.05252
559.30944	0.05267
557.38079	0.05278
555.45213	0.05273
553.52348	0.05264
551.59483	0.05260
549.66617	0.05253
547.73752	0.05238
545.80887	0.05219
543.88021	0.05188
541.95156	0.05164
540.02291	0.05166
538.09425	0.05181
536.16560	0.05186
534.23695	0.05191
532.30829	0.05204
530.37964	0.05207
528.45099	0.05187
526.52233	0.05163
524.59368	0.05153
522.66503	0.05145
520.73637	0.05117
518.80772	0.05070
516.87907	0.05023
514.95041	0.04993
513.02176	0.04978
511.09311	0.04966
509.16445	0.04949
507.23580	0.04925
505.30715	0.04887
503.37849	0.04838
501.44984	0.04808
499.52119	0.04803
497.59254	0.04785
495.66388	0.04734
493.73523	0.04682
491.80658	0.04656
489.87792	0.04634
487.94927	0.04600
486.02062	0.04562
484.09196	0.04521
482.16331	0.04474
480.23466	0.04439
478.30600	0.04430
476.37735	0.04432
474.44870	0.04415
472.52004	0.04377
470.59139	0.04328
468.66274	0.04276
466.73408	0.04235
464.80543	0.04202
462.87678	0.04173
460.94812	0.04155
459.01947	0.04139
457.09082	0.04101
455.16216	0.04048
453.23351	0.04006
451.30486	0.03978
449.37620	0.03949
447.44755	0.03918
445.51890	0.03888
443.59024	0.03863
441.66159	0.03834
439.73294	0.03801
437.80428	0.03779
435.87563	0.03766
433.94698	0.03747
432.01833	0.03720
430.08967	0.03692
428.16102	0.03667
426.23237	0.03639
424.30371	0.03601
422.37506	0.03566
420.44641	0.03547
418.51775	0.03534
416.58910	0.03517
414.66045	0.03494
412.73179	0.03467
410.80314	0.03441
408.87449	0.03425
406.94583	0.03414
405.01718	0.03390
403.08853	0.03357
401.15987	0.03337
399.23122	0.03326
