3996.16951	0.07496
3994.24086	0.07520
3992.31220	0.07532
3990.38355	0.07524
3988.45490	0.07518
3986.52624	0.07514
3984.59759	0.07478
3982.66894	0.07438
3980.74028	0.07453
3978.81163	0.07481
3976.88298	0.07457
3974.95432	0.07421
3973.02567	0.07412
3971.09702	0.07397
3969.16836	0.07366
3967.23971	0.07338
3965.31106	0.07328
3963.38240	0.07354
3961.45375	0.07400
3959.52510	0.07408
3957.59645	0.07352
3955.66779	0.07287
3953.73914	0.07274
3951.81049	0.07316
3949.88183	0.07346
3947.95318	0.07321
3946.02453	0.07263
3944.09587	0.07206
3942.16722	0.07197
3940.23857	0.07238
3938.30991	0.07247
3936.38126	0.07209
3934.45261	0.07203
3932.52395	0.07247
3930.59530	0.07271
3928.66665	0.07240
3926.73799	0.07194
3924.80934	0.07155
3922.88069	0.07124
3920.95203	0.07109
3919.02338	0.07106
3917.09473	0.07109
3915.16607	0.07114
3913.23742	0.07107
3911.30877	0.07094
3909.38011	0.07110
3907.45146	0.07142
3905.52281	0.07124
3903.59415	0.07063
3901.66550	0.07044
3899.73685	0.07056
3897.80819	0.07047
3895.87954	0.07031
3893.95089	0.07023
3892.02224	0.07019
3890.09358	0.07004
3888.16493	0.06971
3886.23628	0.06947
3884.30762	0.06943
3882.37897	0.06933
3880.45032	0.06914
3878.52166	0.06927
3876.59301	0.06965
3874.66436	0.06969
3872.73570	0.06938
3870.80705	0.06922
3868.87840	0.06920
3866.94974	0.06893
3865.02109	0.06850
3863.09244	0.06820
3861.16378	0.06805
3859.23513	0.06816
3857.30648	0.06851
3855.37782	0.06863
3853.44917	0.06841
3851.52052	0.06823
3849.59186	0.06814
3847.66321	0.06774
3845.73456	0.06695
3843.80590	0.06612
3841.87725	0.06584
3839.94860	0.06622
3838.01994	0.06656
3836.09129	0.06646
3834.16264	0.06631
3832.23398	0.06626
3830.30533	0.06619
3828.37668	0.06612
3826.44803	0.06579
3824.51937	0.06511
3822.59072	0.06480
3820.66207	0.06515
3818.73341	0.06542
3816.80476	0.06535
3814.87611	0.06523
3812.94745	0.06501
3811.01880	0.06491
3809.09015	0.06523
3807.16149	0.06555
3805.23284	0.06520
3803.30419	0.06414
3801.37553	0.06326
3799.44688	0.06301
3797.51823	0.06274
3795.58957	0.06220
3793.66092	0.06194
3791.73227	0.06241
3789.80361	0.06344
3787.87496	0.06438
3785.94631	0.06434
3784.01765	0.06314
3782.08900	0.06211
3780.16035	0.06216
3778.23169	0.06251
3776.30304	0.06276
3774.37439	0.06348
3772.44573	0.06418
3770.51708	0.06381
3768.58843	0.06293
3766.65977	0.06258
3764.73112	0.06242
3762.80247	0.06174
3760.87381	0.06086
3758.94516	0.06070
3757.01651	0.06124
3755.08786	0.06170
3753.15920	0.06201
3751.23055	0.06236
3749.30190	0.06217
3747.37324	0.06133
3745.44459	0.06057
3743.51594	0.06021
3741.58728	0.06014
3739.65863	0.06008
3737.72998	0.06000
3735.80132	0.06003
3733.87267	0.05981
3731.94402	0.05904
3730.01536	0.05833
3728.08671	0.05853
3726.15806	0.05946
3724.22940	0.05996
3722.30075	0.05956
3720.37210	0.05902
3718.44344	0.05885
3716.51479	0.05875
3714.58614	0.05814
3712.65748	0.05723
3710.72883	0.05706
3708.80018	0.05756
3706.87152	0.05772
3704.94287	0.05745
3703.01422	0.05728
3701.08556	0.05728
3699.15691	0.05708
3697.22826	0.05672
3695.29960	0.05676
3693.37095	0.05729
3691.44230	0.05767
3689.51365	0.05750
3687.58499	0.05706
3685.65634	0.05678
3683.72769	0.05684
3681.79903	0.05722
3679.87038	0.05744
3677.94173	0.05733
3676.01307	0.05714
3674.08442	0.05691
3672.15577	0.05679
3670.22711	0.05720
3668.29846	0.05805
3666.36981	0.05866
3664.44115	0.05874
3662.51250	0.05860
3660.58385	0.05844
3658.65519	0.05831
3656.72654	0.05821
3654.79789	0.05794
3652.86923	0.05765
3650.94058	0.05794
3649.01193	0.05891
3647.08327	0.06026
3645.15462	0.06164
3643.22597	0.06234
3641.29731	0.06212
3639.36866	0.06190
3637.44001	0.06247
3635.51135	0.06340
3633.58270	0.06379
3631.65405	0.06360
3629.72539	0.06357
3627.79674	0.06409
3625.86809	0.06468
3623.93943	0.06504
3622.01078	0.06534
3620.08213	0.06600
3618.15348	0.06702
3616.22482	0.06789
3614.29617	0.06835
3612.36752	0.06876
3610.43886	0.06933
3608.51021	0.06978
3606.58156	0.06999
3604.65290	0.07010
3602.72425	0.07055
3600.79560	0.07166
3598.86694	0.07291
3596.93829	0.07345
3595.00964	0.07360
3593.08098	0.07432
3591.15233	0.07531
3589.22368	0.07560
3587.29502	0.07554
3585.36637	0.07631
3583.43772	0.07778
3581.50906	0.07879
3579.58041	0.07915
3577.65176	0.07957
3575.72310	0.08015
3573.79445	0.08059
3571.86580	0.08110
3569.93714	0.08189
3568.00849	0.08262
3566.07984	0.08346
3564.15118	0.08468
3562.22253	0.08572
3560.29388	0.08638
3558.36522	0.08740
3556.43657	0.08879
3554.50792	0.08981
3552.57927	0.09042
3550.65061	0.09089
3548.72196	0.09133
3546.79331	0.09197
3544.86465	0.09290
3542.93600	0.09398
3541.00735	0.09488
3539.07869	0.09546
3537.15004	0.09598
3535.22139	0.09653
3533.29273	0.09716
3531.36408	0.09784
3529.43543	0.09843
3527.50677	0.09918
3525.57812	0.10027
3523.64947	0.10132
3521.72081	0.10204
3519.79216	0.10259
3517.86351	0.10339
3515.93485	0.10460
3514.00620	0.10575
3512.07755	0.10648
3510.14889	0.10704
3508.22024	0.10767
3506.29159	0.10838
3504.36293	0.10914
3502.43428	0.10966
3500.50563	0.10986
3498.57697	0.11027
3496.64832	0.11093
3494.71967	0.11153
3492.79101	0.11243
3490.86236	0.11365
3488.93371	0.11450
3487.00506	0.11465
3485.07640	0.11461
3483.14775	0.11507
3481.21910	0.11594
3479.29044	0.11651
3477.36179	0.11666
3475.43314	0.11695
3473.50448	0.11746
3471.57583	0.11798
3469.64718	0.11861
3467.71852	0.11938
3465.78987	0.12000
3463.86122	0.12048
3461.93256	0.12104
3460.00391	0.12187
3458.07526	0.12295
3456.14660	0.12383
3454.21795	0.12417
3452.28930	0.12435
3450.36064	0.12487
3448.43199	0.12564
3446.50334	0.12619
3444.57468	0.12641
3442.64603	0.12668
3440.71738	0.12720
3438.78872	0.12783
3436.86007	0.12843
3434.93142	0.12902
3433.00276	0.12981
3431.07411	0.13081
3429.14546	0.13158
3427.21680	0.13187
3425.28815	0.13199
3423.35950	0.13229
3421.43084	0.13283
3419.50219	0.13328
3417.57354	0.13369
3415.64489	0.13448
3413.71623	0.13534
3411.78758	0.13575
3409.85893	0.13605
3407.93027	0.13657
3406.00162	0.13696
3404.07297	0.13716
3402.14431	0.13765
3400.21566	0.13855
3398.28701	0.13945
3396.35835	0.14026
3394.42970	0.14109
3392.50105	0.14154
3390.57239	0.14153
3388.64374	0.14160
3386.71509	0.14191
3384.78643	0.14231
3382.85778	0.14281
3380.92913	0.14345
3379.00047	0.14413
3377.07182	0.14480
3375.14317	0.14560
3373.21451	0.14642
3371.28586	0.14713
3369.35721	0.14804
3367.42855	0.14916
3365.49990	0.15019
3363.57125	0.15109
3361.64259	0.15210
3359.71394	0.15329
3357.78529	0.15451
3355.85663	0.15577
3353.92798	0.15729
3351.99933	0.15902
3350.07068	0.16059
3348.14202	0.16191
3346.21337	0.16308
3344.28472	0.16425
3342.35606	0.16556
3340.42741	0.16686
3338.49876	0.16785
3336.57010	0.16864
3334.64145	0.16949
3332.71280	0.17047
3330.78414	0.17144
3328.85549	0.17218
3326.92684	0.17286
3324.99818	0.17369
3323.06953	0.17462
3321.14088	0.17560
3319.21222	0.17638
3317.28357	0.17672
3315.35492	0.17707
3313.42626	0.17772
3311.49761	0.17840
3309.56896	0.17910
3307.64030	0.17980
3305.71165	0.18005
3303.78300	0.17978
3301.85434	0.17958
3299.92569	0.17988
3297.99704	0.18040
3296.06838	0.18060
3294.13973	0.18035
3292.21108	0.17984
3290.28242	0.17945
3288.35377	0.17947
3286.42512	0.17958
3284.49646	0.17962
3282.56781	0.17978
3280.63916	0.17973
3278.71051	0.17913
3276.78185	0.17831
3274.85320	0.17763
3272.92455	0.17691
3270.99589	0.17607
3269.06724	0.17539
3267.13859	0.17488
3265.20993	0.17425
3263.28128	0.17335
3261.35263	0.17229
3259.42397	0.17124
3257.49532	0.17023
3255.56667	0.16940
3253.63801	0.16875
3251.70936	0.16817
3249.78071	0.16749
3247.85205	0.16676
3245.92340	0.16610
3243.99475	0.16543
3242.06609	0.16479
3240.13744	0.16432
3238.20879	0.16396
3236.28013	0.16348
3234.35148	0.16276
3232.42283	0.16195
3230.49417	0.16123
3228.56552	0.16075
3226.63687	0.16039
3224.70821	0.15981
3222.77956	0.15906
3220.85091	0.15842
3218.92225	0.15793
3216.99360	0.15750
3215.06495	0.15702
3213.13630	0.15655
3211.20764	0.15622
3209.27899	0.15576
3207.35034	0.15512
3205.42168	0.15461
3203.49303	0.15421
3201.56438	0.15378
3199.63572	0.15313
3197.70707	0.15212
3195.77842	0.15085
3193.84976	0.14960
3191.92111	0.14885
3189.99246	0.14872
3188.06380	0.14869
3186.13515	0.14825
3184.20650	0.14732
3182.27784	0.14627
3180.34919	0.14521
3178.42054	0.14392
3176.49188	0.14257
3174.56323	0.14147
3172.63458	0.14054
3170.70592	0.13960
3168.77727	0.13871
3166.84862	0.13790
3164.91996	0.13709
3162.99131	0.13623
3161.06266	0.13529
3159.13400	0.13444
3157.20535	0.13375
3155.27670	0.13298
3153.34804	0.13197
3151.41939	0.13094
3149.49074	0.12991
3147.56209	0.12879
3145.63343	0.12790
3143.70478	0.12728
3141.77613	0.12653
3139.84747	0.12563
3137.91882	0.12487
3135.99017	0.12426
3134.06151	0.12358
3132.13286	0.12283
3130.20421	0.12227
3128.27555	0.12185
3126.34690	0.12131
3124.41825	0.12061
3122.48959	0.11992
3120.56094	0.11961
3118.63229	0.11990
3116.70363	0.12031
3114.77498	0.12036
3112.84633	0.12024
3110.91767	0.12016
3108.98902	0.11993
3107.06037	0.11971
3105.13171	0.11987
3103.20306	0.12025
3101.27441	0.12044
3099.34575	0.12034
3097.41710	0.12006
3095.48845	0.11987
3093.55979	0.12010
3091.63114	0.12076
3089.70249	0.12140
3087.77383	0.12179
3085.84518	0.12207
3083.91653	0.12234
3081.98787	0.12257
3080.05922	0.12270
3078.13057	0.12270
3076.20192	0.12255
3074.27326	0.12231
3072.34461	0.12211
3070.41596	0.12200
3068.48730	0.12185
3066.55865	0.12154
3064.63000	0.12108
3062.70134	0.12037
3060.77269	0.11967
3058.84404	0.11931
3056.91538	0.11911
3054.98673	0.11864
3053.05808	0.11787
3051.12942	0.11699
3049.20077	0.11613
3047.27212	0.11539
3045.34346	0.11464
3043.41481	0.11385
3041.48616	0.11318
3039.55750	0.11239
3037.62885	0.11120
3035.70020	0.11009
3033.77154	0.10947
3031.84289	0.10898
3029.91424	0.10834
3027.98558	0.10771
3026.05693	0.10709
3024.12828	0.10639
3022.19962	0.10561
3020.27097	0.10482
3018.34232	0.10415
3016.41366	0.10367
3014.48501	0.10324
3012.55636	0.10290
3010.62771	0.10270
3008.69905	0.10252
3006.77040	0.10223
3004.84175	0.10188
3002.91309	0.10161
3000.98444	0.10159
2999.05579	0.10174
2997.12713	0.10187
2995.19848	0.10205
2993.26983	0.10240
2991.34117	0.10293
2989.41252	0.10349
2987.48387	0.10393
2985.55521	0.10431
2983.62656	0.10485
2981.69791	0.10556
2979.76925	0.10629
2977.84060	0.10679
2975.91195	0.10704
2973.98329	0.10737
2972.05464	0.10785
2970.12599	0.10823
2968.19733	0.10858
2966.26868	0.10907
2964.34003	0.10956
2962.41137	0.10994
2960.48272	0.11028
2958.55407	0.11060
2956.62541	0.11089
2954.69676	0.11101
2952.76811	0.11088
2950.83945	0.11074
2948.91080	0.11081
2946.98215	0.11103
2945.05349	0.11115
2943.12484	0.11124
2941.19619	0.11164
2939.26754	0.11236
2937.33888	0.11285
2935.41023	0.11270
2933.48158	0.11217
2931.55292	0.11173
2929.62427	0.11150
2927.69562	0.11144
2925.76696	0.11138
2923.83831	0.11094
2921.90966	0.11005
2919.98100	0.10898
2918.05235	0.10802
2916.12370	0.10711
2914.19504	0.10612
2912.26639	0.10516
2910.33774	0.10415
2908.40908	0.10304
2906.48043	0.10203
2904.55178	0.10110
2902.62312	0.10020
2900.69447	0.09947
2898.76582	0.09899
2896.83716	0.09870
2894.90851	0.09841
2892.97986	0.09801
2891.05120	0.09773
2889.12255	0.09774
2887.19390	0.09784
2885.26524	0.09782
2883.33659	0.09773
2881.40794	0.09770
2879.47928	0.09775
2877.55063	0.09771
2875.62198	0.09749
2873.69333	0.09714
2871.76467	0.09667
2869.83602	0.09617
2867.90737	0.09564
2865.97871	0.09482
2864.05006	0.09379
2862.12141	0.09284
2860.19275	0.09211
2858.26410	0.09161
2856.33545	0.09128
2854.40679	0.09104
2852.47814	0.09076
2850.54949	0.09026
2848.62083	0.08948
2846.69218	0.08857
2844.76353	0.08783
2842.83487	0.08722
2840.90622	0.08655
2838.97757	0.08594
2837.04891	0.08544
2835.12026	0.08504
2833.19161	0.08472
2831.26295	0.08439
2829.33430	0.08391
2827.40565	0.08340
2825.47699	0.08300
2823.54834	0.08256
2821.61969	0.08208
2819.69103	0.08181
2817.76238	0.08173
2815.83373	0.08157
2813.90507	0.08125
2811.97642	0.08092
2810.04777	0.08059
2808.11912	0.08017
2806.19046	0.07976
2804.26181	0.07964
2802.33316	0.07973
2800.40450	0.07968
2798.47585	0.07932
2796.54720	0.07872
2794.61854	0.07815
2792.68989	0.07789
2790.76124	0.07776
2788.83258	0.07745
2786.90393	0.07705
2784.97528	0.07674
2783.04662	0.07651
2781.11797	0.07627
2779.18932	0.07609
2777.26066	0.07605
2775.33201	0.07598
2773.40336	0.07581
2771.47470	0.07561
2769.54605	0.07521
2767.61740	0.07470
2765.68874	0.07441
2763.76009	0.07429
2761.83144	0.07409
2759.90278	0.07380
2757.97413	0.07351
2756.04548	0.07321
2754.11682	0.07298
2752.18817	0.07292
2750.25952	0.07296
2748.33086	0.07281
2746.40221	0.07243
2744.47356	0.07203
2742.54490	0.07164
2740.61625	0.07119
2738.68760	0.07083
2736.75895	0.07079
2734.83029	0.07083
2732.90164	0.07069
2730.97299	0.07039
2729.04433	0.06999
2727.11568	0.06964
2725.18703	0.06951
2723.25837	0.06961
2721.32972	0.06980
2719.40107	0.06973
2717.47241	0.06919
2715.54376	0.06851
2713.61511	0.06817
2711.68645	0.06810
2709.75780	0.06802
2707.82915	0.06788
2705.90049	0.06772
2703.97184	0.06748
2702.04319	0.06720
2700.11453	0.06701
2698.18588	0.06694
2696.25723	0.06681
2694.32857	0.06642
2692.39992	0.06593
2690.47127	0.06569
2688.54261	0.06574
2686.61396	0.06588
2684.68531	0.06591
2682.75665	0.06571
2680.82800	0.06534
2678.89935	0.06508
2676.97069	0.06503
2675.04204	0.06506
2673.11339	0.06509
2671.18474	0.06506
2669.25608	0.06487
2667.32743	0.06457
2665.39878	0.06436
2663.47012	0.06431
2661.54147	0.06422
2659.61282	0.06387
2657.68416	0.06336
2655.75551	0.06288
2653.82686	0.06249
2651.89820	0.06219
2649.96955	0.06197
2648.04090	0.06168
2646.11224	0.06125
2644.18359	0.06069
2642.25494	0.06017
2640.32628	0.05991
2638.39763	0.05965
2636.46898	0.05905
2634.54032	0.05846
2632.61167	0.05821
2630.68302	0.05814
2628.75436	0.05805
2626.82571	0.05796
2624.89706	0.05793
2622.96840	0.05783
2621.03975	0.05748
2619.11110	0.05693
2617.18244	0.05641
2615.25379	0.05599
2613.32514	0.05571
2611.39648	0.05553
2609.46783	0.05516
2607.53918	0.05454
2605.61052	0.05395
2603.68187	0.05368
2601.75322	0.05380
2599.82457	0.05389
2597.89591	0.05362
2595.96726	0.05323
2594.03861	0.05310
2592.10995	0.05323
2590.18130	0.05321
2588.25265	0.05280
2586.32399	0.05228
2584.39534	0.05211
2582.46669	0.05228
2580.53803	0.05223
2578.60938	0.05171
2576.68073	0.05120
2574.75207	0.05104
2572.82342	0.05101
2570.89477	0.05081
2568.96611	0.05047
2567.03746	0.05019
2565.10881	0.05007
2563.18015	0.04997
2561.25150	0.04975
2559.32285	0.04951
2557.39419	0.04955
2555.46554	0.04977
2553.53689	0.04973
2551.60823	0.04942
2549.67958	0.04904
2547.75093	0.04864
2545.82227	0.04846
2543.89362	0.04854
2541.96497	0.04848
2540.03631	0.04826
2538.10766	0.04813
2536.17901	0.04794
2534.25036	0.04766
2532.32170	0.04760
2530.39305	0.04769
2528.46440	0.04756
2526.53574	0.04729
2524.60709	0.04712
2522.67844	0.04703
2520.74978	0.04692
2518.82113	0.04678
2516.89248	0.04652
2514.96382	0.04624
2513.03517	0.04623
2511.10652	0.04634
2509.17786	0.04625
2507.24921	0.04605
2505.32056	0.04578
2503.39190	0.04561
2501.46325	0.04562
2499.53460	0.04540
2497.60594	0.04488
2495.67729	0.04475
2493.74864	0.04524
2491.81998	0.04560
2489.89133	0.04532
2487.96268	0.04480
2486.03402	0.04435
2484.10537	0.04410
2482.17672	0.04420
2480.24806	0.04445
2478.31941	0.04451
2476.39076	0.04445
2474.46210	0.04425
2472.53345	0.04392
2470.60480	0.04393
2468.67615	0.04425
2466.74749	0.04426
2464.81884	0.04404
2462.89019	0.04408
2460.96153	0.04408
2459.03288	0.04356
2457.10423	0.04291
2455.17557	0.04273
2453.24692	0.04285
2451.31827	0.04281
2449.38961	0.04273
2447.46096	0.04265
2445.53231	0.04254
2443.60365	0.04258
2441.67500	0.04270
2439.74635	0.04287
2437.81769	0.04300
2435.88904	0.04293
2433.96039	0.04277
2432.03173	0.04271
2430.10308	0.04270
2428.17443	0.04253
2426.24577	0.04228
2424.31712	0.04225
2422.38847	0.04241
2420.45981	0.04235
2418.53116	0.04220
2416.60251	0.04233
2414.67385	0.04237
2412.74520	0.04206
2410.81655	0.04196
2408.88789	0.04240
2406.95924	0.04282
2405.03059	0.04262
2403.10193	0.04212
2401.17328	0.04191
2399.24463	0.04185
2397.31598	0.04173
2395.38732	0.04170
2393.45867	0.04198
2391.53002	0.04238
2389.60136	0.04256
2387.67271	0.04259
2385.74406	0.04257
2383.81540	0.04245
2381.88675	0.04238
2379.95810	0.04261
2378.02944	0.04301
2376.10079	0.04317
2374.17214	0.04298
2372.24348	0.04275
2370.31483	0.04296
2368.38618	0.04302
2366.45752	0.04311
2364.52887	0.04316
2362.60022	0.04337
2360.67156	0.04279
2358.74291	0.04371
2356.81426	0.04289
2354.88560	0.04311
2352.95695	0.04345
2351.02830	0.04291
2349.09964	0.04273
2347.17099	0.04276
2345.24234	0.04248
2343.31368	0.04256
2341.38503	0.04371
2339.45638	0.04436
2337.52772	0.04415
2335.59907	0.04303
2333.67042	0.04187
2331.74177	0.04123
2329.81311	0.04083
2327.88446	0.04042
2325.95581	0.04002
2324.02715	0.03981
2322.09850	0.03989
2320.16985	0.04000
2318.24119	0.03996
2316.31254	0.03977
2314.38389	0.03958
2312.45523	0.03959
2310.52658	0.03956
2308.59793	0.03927
2306.66927	0.03896
2304.74062	0.03870
2302.81197	0.03835
2300.88331	0.03799
2298.95466	0.03769
2297.02601	0.03745
2295.09735	0.03710
2293.16870	0.03658
2291.24005	0.03593
2289.31139	0.03535
2287.38274	0.03484
2285.45409	0.03431
2283.52543	0.03391
2281.59678	0.03390
2279.66813	0.03396
2277.73947	0.03370
2275.81082	0.03332
2273.88217	0.03303
2271.95351	0.03276
2270.02486	0.03255
2268.09621	0.03232
2266.16755	0.03215
2264.23890	0.03236
2262.31025	0.03268
2260.38160	0.03250
2258.45294	0.03200
2256.52429	0.03165
2254.59564	0.03134
2252.66698	0.03074
2250.73833	0.03013
2248.80968	0.03005
2246.88102	0.02997
2244.95237	0.02985
2243.02372	0.02956
2241.09506	0.02887
2239.16641	0.02807
2237.23776	0.02763
2235.30910	0.02765
2233.38045	0.02805
2231.45180	0.02842
2229.52314	0.02837
2227.59449	0.02812
2225.66584	0.02799
2223.73718	0.02795
2221.80853	0.02762
2219.87988	0.02669
2217.95122	0.02570
2216.02257	0.02518
2214.09392	0.02460
2212.16526	0.02368
2210.23661	0.02309
2208.30796	0.02374
2206.37930	0.02507
2204.45065	0.02504
2202.52200	0.02377
2200.59334	0.02331
2198.66469	0.02377
2196.73604	0.02393
2194.80739	0.02350
2192.87873	0.02269
2190.95008	0.02183
2189.02143	0.02132
2187.09277	0.02128
2185.16412	0.02122
2183.23547	0.02074
2181.30681	0.02036
2179.37816	0.02086
2177.44951	0.02158
2175.52085	0.02090
2173.59220	0.01922
2171.66355	0.01819
2169.73489	0.01792
2167.80624	0.01761
2165.87759	0.01693
2163.94893	0.01609
2162.02028	0.01520
2160.09163	0.01475
2158.16297	0.01578
2156.23432	0.01779
2154.30567	0.01910
2152.37701	0.01956
2150.44836	0.02019
2148.51971	0.02067
2146.59105	0.02080
2144.66240	0.02165
2142.73375	0.02310
2140.80509	0.02408
2138.87644	0.02466
2136.94779	0.02521
2135.01913	0.02554
2133.09048	0.02565
2131.16183	0.02604
2129.23318	0.02674
2127.30452	0.02714
2125.37587	0.02722
2123.44722	0.02713
2121.51856	0.02659
2119.58991	0.02605
2117.66126	0.02606
2115.73260	0.02609
2113.80395	0.02601
2111.87530	0.02626
2109.94664	0.02674
2108.01799	0.02691
2106.08934	0.02647
2104.16068	0.02584
2102.23203	0.02538
2100.30338	0.02498
2098.37472	0.02478
2096.44607	0.02512
2094.51742	0.02562
2092.58876	0.02587
2090.66011	0.02587
2088.73146	0.02578
2086.80280	0.02555
2084.87415	0.02531
2082.94550	0.02510
2081.01684	0.02455
2079.08819	0.02343
2077.15954	0.02214
2075.23088	0.02126
2073.30223	0.02104
2071.37358	0.02116
2069.44492	0.02102
2067.51627	0.02073
2065.58762	0.02070
2063.65896	0.02076
2061.73031	0.02099
2059.80166	0.02167
2057.87301	0.02211
2055.94435	0.02164
2054.01570	0.02068
2052.08705	0.01973
2050.15839	0.01884
2048.22974	0.01820
2046.30109	0.01813
2044.37243	0.01837
2042.44378	0.01838
2040.51513	0.01773
2038.58647	0.01661
2036.65782	0.01586
2034.72917	0.01577
2032.80051	0.01582
2030.87186	0.01548
2028.94321	0.01476
2027.01455	0.01420
2025.08590	0.01416
2023.15725	0.01439
2021.22859	0.01449
2019.29994	0.01470
2017.37129	0.01564
2015.44263	0.01709
2013.51398	0.01788
2011.58533	0.01749
2009.65667	0.01664
2007.72802	0.01593
2005.79937	0.01558
2003.87071	0.01567
2001.94206	0.01575
2000.01341	0.01575
1998.08475	0.01662
1996.15610	0.01821
1994.22745	0.01914
1992.29880	0.01933
1990.37014	0.01911
1988.44149	0.01819
1986.51284	0.01723
1984.58418	0.01697
1982.65553	0.01658
1980.72688	0.01527
1978.79822	0.01392
1976.86957	0.01361
1974.94092	0.01387
1973.01226	0.01391
1971.08361	0.01401
1969.15496	0.01457
1967.22630	0.01515
1965.29765	0.01560
1963.36900	0.01631
1961.44034	0.01724
1959.51169	0.01792
1957.58304	0.01830
1955.65438	0.01858
1953.72573	0.01868
1951.79708	0.01873
1949.86842	0.01915
1947.93977	0.01960
1946.01112	0.01965
1944.08246	0.01966
1942.15381	0.02008
1940.22516	0.02074
1938.29650	0.02107
1936.36785	0.02068
1934.43920	0.02002
1932.51054	0.01989
1930.58189	0.02015
1928.65324	0.02027
1926.72458	0.02028
1924.79593	0.02035
1922.86728	0.02055
1920.93863	0.02086
1919.00997	0.02111
1917.08132	0.02116
1915.15267	0.02094
1913.22401	0.02066
1911.29536	0.02068
1909.36671	0.02096
1907.43805	0.02132
1905.50940	0.02157
1903.58075	0.02160
1901.65209	0.02159
1899.72344	0.02162
1897.79479	0.02155
1895.86613	0.02146
1893.93748	0.02145
1892.00883	0.02155
1890.08017	0.02177
1888.15152	0.02193
1886.22287	0.02173
1884.29421	0.02133
1882.36556	0.02116
1880.43691	0.02130
1878.50825	0.02139
1876.57960	0.02120
1874.65095	0.02090
1872.72229	0.02074
1870.79364	0.02074
1868.86499	0.02075
1866.93633	0.02086
1865.00768	0.02109
1863.07903	0.02124
1861.15037	0.02123
1859.22172	0.02124
1857.29307	0.02141
1855.36442	0.02154
1853.43576	0.02137
1851.50711	0.02095
1849.57846	0.02056
1847.64980	0.02037
1845.72115	0.02042
1843.79250	0.02070
1841.86384	0.02098
1839.93519	0.02099
1838.00654	0.02088
1836.07788	0.02090
1834.14923	0.02098
1832.22058	0.02088
1830.29192	0.02064
1828.36327	0.02051
1826.43462	0.02047
1824.50596	0.02038
1822.57731	0.02033
1820.64866	0.02035
1818.72000	0.02045
1816.79135	0.02073
1814.86270	0.02110
1812.93404	0.02116
1811.00539	0.02090
1809.07674	0.02055
1807.14808	0.02026
1805.21943	0.02016
1803.29078	0.02031
1801.36212	0.02051
1799.43347	0.02053
1797.50482	0.02041
1795.57616	0.02029
1793.64751	0.02014
1791.71886	0.02009
1789.79021	0.02020
1787.86155	0.02025
1785.93290	0.02014
1784.00425	0.02004
1782.07559	0.02000
1780.14694	0.01994
1778.21829	0.01981
1776.28963	0.01959
1774.36098	0.01944
1772.43233	0.01951
1770.50367	0.01970
1768.57502	0.01981
1766.64637	0.01988
1764.71771	0.01996
1762.78906	0.01997
1760.86041	0.01993
1758.93175	0.01999
1757.00310	0.02025
1755.07445	0.02051
1753.14579	0.02065
1751.21714	0.02078
1749.28849	0.02110
1747.35983	0.02156
1745.43118	0.02196
1743.50253	0.02229
1741.57387	0.02266
1739.64522	0.02305
1737.71657	0.02350
1735.78791	0.02408
1733.85926	0.02474
1731.93061	0.02530
1730.00195	0.02575
1728.07330	0.02632
1726.14465	0.02693
1724.21599	0.02743
1722.28734	0.02787
1720.35869	0.02843
1718.43004	0.02916
1716.50138	0.03012
1714.57273	0.03129
1712.64408	0.03262
1710.71542	0.03411
1708.78677	0.03596
1706.85812	0.03836
1704.92946	0.04127
1703.00081	0.04453
1701.07216	0.04826
1699.14350	0.05252
1697.21485	0.05705
1695.28620	0.06158
1693.35754	0.06606
1691.42889	0.07057
1689.50024	0.07520
1687.57158	0.07988
1685.64293	0.08479
1683.71428	0.09013
1681.78562	0.09593
1679.85697	0.10224
1677.92832	0.10896
1675.99966	0.11594
1674.07101	0.12313
1672.14236	0.13051
1670.21370	0.13810
1668.28505	0.14581
1666.35640	0.15340
1664.42774	0.16076
1662.49909	0.16784
1660.57044	0.17439
1658.64178	0.18018
1656.71313	0.18515
1654.78448	0.18948
1652.85583	0.19346
1650.92717	0.19693
1648.99852	0.19976
1647.06987	0.20224
1645.14121	0.20456
1643.21256	0.20663
1641.28391	0.20846
1639.35525	0.21008
1637.42660	0.21141
1635.49795	0.21241
1633.56929	0.21295
1631.64064	0.21270
1629.71199	0.21126
1627.78333	0.20828
1625.85468	0.20367
1623.92603	0.19773
1621.99737	0.19086
1620.06872	0.18343
1618.14007	0.17573
1616.21141	0.16802
1614.28276	0.16049
1612.35411	0.15316
1610.42545	0.14605
1608.49680	0.13930
1606.56815	0.13298
1604.63949	0.12714
1602.71084	0.12187
1600.78219	0.11724
1598.85353	0.11322
1596.92488	0.10975
1594.99623	0.10677
1593.06757	0.10434
1591.13892	0.10254
1589.21027	0.10129
1587.28161	0.10049
1585.35296	0.10018
1583.42431	0.10040
1581.49566	0.10114
1579.56700	0.10240
1577.63835	0.10425
1575.70970	0.10672
1573.78104	0.10979
1571.85239	0.11337
1569.92374	0.11740
1567.99508	0.12178
1566.06643	0.12641
1564.13778	0.13118
1562.20912	0.13591
1560.28047	0.14061
1558.35182	0.14523
1556.42316	0.14948
1554.49451	0.15311
1552.56586	0.15609
1550.63720	0.15851
1548.70855	0.16050
1546.77990	0.16199
1544.85124	0.16287
1542.92259	0.16319
1540.99394	0.16311
1539.06528	0.16277
1537.13663	0.16216
1535.20798	0.16122
1533.27932	0.15994
1531.35067	0.15841
1529.42202	0.15670
1527.49336	0.15479
1525.56471	0.15263
1523.63606	0.15029
1521.70740	0.14787
1519.77875	0.14541
1517.85010	0.14279
1515.92145	0.13988
1513.99279	0.13656
1512.06414	0.13273
1510.13549	0.12852
1508.20683	0.12408
1506.27818	0.11952
1504.34953	0.11503
1502.42087	0.11068
1500.49222	0.10639
1498.56357	0.10222
1496.63491	0.09820
1494.70626	0.09431
1492.77761	0.09058
1490.84895	0.08717
1488.92030	0.08423
1486.99165	0.08188
1485.06299	0.08018
1483.13434	0.07909
1481.20569	0.07857
1479.27703	0.07863
1477.34838	0.07930
1475.41973	0.08055
1473.49107	0.08229
1471.56242	0.08434
1469.63377	0.08660
1467.70511	0.08904
1465.77646	0.09159
1463.84781	0.09417
1461.91915	0.09677
1459.99050	0.09938
1458.06185	0.10198
1456.13319	0.10435
1454.20454	0.10618
1452.27589	0.10730
1450.34724	0.10767
1448.41858	0.10731
1446.48993	0.10640
1444.56128	0.10519
1442.63262	0.10379
1440.70397	0.10225
1438.77532	0.10048
1436.84666	0.09831
1434.91801	0.09585
1432.98936	0.09338
1431.06070	0.09123
1429.13205	0.08965
1427.20340	0.08863
1425.27474	0.08797
1423.34609	0.08753
1421.41744	0.08724
1419.48878	0.08709
1417.56013	0.08711
1415.63148	0.08733
1413.70282	0.08769
1411.77417	0.08817
1409.84552	0.08884
1407.91686	0.08967
1405.98821	0.09048
1404.05956	0.09108
1402.13090	0.09135
1400.20225	0.09124
1398.27360	0.09087
1396.34494	0.09041
1394.41629	0.08994
1392.48764	0.08955
1390.55898	0.08925
1388.63033	0.08891
1386.70168	0.08841
1384.77302	0.08784
1382.84437	0.08726
1380.91572	0.08662
1378.98707	0.08590
1377.05841	0.08506
1375.12976	0.08405
1373.20111	0.08285
1371.27245	0.08145
1369.34380	0.07992
1367.41515	0.07836
1365.48649	0.07684
1363.55784	0.07545
1361.62919	0.07430
1359.70053	0.07346
1357.77188	0.07302
1355.84323	0.07305
1353.91457	0.07351
1351.98592	0.07431
1350.05727	0.07543
1348.12861	0.07678
1346.19996	0.07817
1344.27131	0.07950
1342.34265	0.08079
1340.41400	0.08192
1338.48535	0.08269
1336.55669	0.08293
1334.62804	0.08263
1332.69939	0.08179
1330.77073	0.08054
1328.84208	0.07913
1326.91343	0.07783
1324.98477	0.07676
1323.05612	0.07594
1321.12747	0.07533
1319.19881	0.07495
1317.27016	0.07471
1315.34151	0.07445
1313.41286	0.07401
1311.48420	0.07335
1309.55555	0.07264
1307.62690	0.07202
1305.69824	0.07151
1303.76959	0.07113
1301.84094	0.07085
1299.91228	0.07053
1297.98363	0.07026
1296.05498	0.07026
1294.12632	0.07063
1292.19767	0.07131
1290.26902	0.07222
1288.34036	0.07326
1286.41171	0.07427
1284.48306	0.07521
1282.55440	0.07600
1280.62575	0.07655
1278.69710	0.07678
1276.76844	0.07679
1274.83979	0.07672
1272.91114	0.07671
1270.98248	0.07687
1269.05383	0.07728
1267.12518	0.07786
1265.19652	0.07850
1263.26787	0.07924
1261.33922	0.08013
1259.41056	0.08119
1257.48191	0.08234
1255.55326	0.08357
1253.62460	0.08501
1251.69595	0.08668
1249.76730	0.08849
1247.83864	0.09034
1245.90999	0.09213
1243.98134	0.09384
1242.05269	0.09543
1240.12403	0.09672
1238.19538	0.09755
1236.26673	0.09789
1234.33807	0.09779
1232.40942	0.09718
1230.48077	0.09600
1228.55211	0.09428
1226.62346	0.09206
1224.69481	0.08948
1222.76615	0.08686
1220.83750	0.08447
1218.90885	0.08246
1216.98019	0.08092
1215.05154	0.07987
1213.12289	0.07929
1211.19423	0.07916
1209.26558	0.07946
1207.33693	0.08001
1205.40827	0.08051
1203.47962	0.08062
1201.55097	0.08017
1199.62231	0.07922
1197.69366	0.07777
1195.76501	0.07612
1193.83635	0.07439
1191.90770	0.07266
1189.97905	0.07093
1188.05039	0.06935
1186.12174	0.06811
1184.19309	0.06714
1182.26443	0.06633
1180.33578	0.06568
1178.40713	0.06514
1176.47848	0.06475
1174.54982	0.06461
1172.62117	0.06457
1170.69252	0.06445
1168.76386	0.06424
1166.83521	0.06414
1164.90656	0.06422
1162.97790	0.06421
1161.04925	0.06386
1159.12060	0.06314
1157.19194	0.06220
1155.26329	0.06117
1153.33464	0.06001
1151.40598	0.05872
1149.47733	0.05743
1147.54868	0.05626
1145.62002	0.05533
1143.69137	0.05457
1141.76272	0.05381
1139.83406	0.05311
1137.90541	0.05250
1135.97676	0.05197
1134.04810	0.05163
1132.11945	0.05154
1130.19080	0.05155
1128.26214	0.05141
1126.33349	0.05108
1124.40484	0.05077
1122.47618	0.05062
1120.54753	0.05052
1118.61888	0.05043
1116.69022	0.05052
1114.76157	0.05065
1112.83292	0.05063
1110.90427	0.05074
1108.97561	0.05116
1107.04696	0.05161
1105.11831	0.05193
1103.18965	0.05232
1101.26100	0.05287
1099.33235	0.05358
1097.40369	0.05437
1095.47504	0.05515
1093.54639	0.05596
1091.61773	0.05699
1089.68908	0.05835
1087.76043	0.05992
1085.83177	0.06155
1083.90312	0.06303
1081.97447	0.06408
1080.04581	0.06453
1078.11716	0.06454
1076.18851	0.06419
1074.25985	0.06348
1072.33120	0.06272
1070.40255	0.06228
1068.47389	0.06210
1066.54524	0.06198
1064.61659	0.06191
1062.68793	0.06187
1060.75928	0.06171
1058.83063	0.06126
1056.90197	0.06056
1054.97332	0.05980
1053.04467	0.05917
1051.11601	0.05866
1049.18736	0.05812
1047.25871	0.05752
1045.33005	0.05708
1043.40140	0.05686
1041.47275	0.05684
1039.54410	0.05707
1037.61544	0.05756
1035.68679	0.05814
1033.75814	0.05864
1031.82948	0.05877
1029.90083	0.05828
1027.97218	0.05733
1026.04352	0.05623
1024.11487	0.05509
1022.18622	0.05387
1020.25756	0.05273
1018.32891	0.05184
1016.40026	0.05117
1014.47160	0.05052
1012.54295	0.04984
1010.61430	0.04911
1008.68564	0.04830
1006.75699	0.04744
1004.82834	0.04667
1002.89968	0.04601
1000.97103	0.04539
999.04238	0.04473
997.11372	0.04403
995.18507	0.04338
993.25642	0.04281
991.32776	0.04230
989.39911	0.04183
987.47046	0.04146
985.54180	0.04126
983.61315	0.04125
981.68450	0.04137
979.75584	0.04147
977.82719	0.04149
975.89854	0.04155
973.96989	0.04163
972.04123	0.04163
970.11258	0.04146
968.18393	0.04117
966.25527	0.04080
964.32662	0.04035
962.39797	0.03990
960.46931	0.03956
958.54066	0.03929
956.61201	0.03898
954.68335	0.03864
952.75470	0.03836
950.82605	0.03821
948.89739	0.03819
946.96874	0.03824
945.04009	0.03830
943.11143	0.03837
941.18278	0.03848
939.25413	0.03852
937.32547	0.03842
935.39682	0.03834
933.46817	0.03836
931.53951	0.03838
929.61086	0.03830
927.68221	0.03812
925.75355	0.03800
923.82490	0.03805
921.89625	0.03809
919.96759	0.03798
918.03894	0.03775
916.11029	0.03751
914.18163	0.03728
912.25298	0.03705
910.32433	0.03682
908.39567	0.03663
906.46702	0.03641
904.53837	0.03612
902.60972	0.03592
900.68106	0.03589
898.75241	0.03598
896.82376	0.03604
894.89510	0.03589
892.96645	0.03559
891.03780	0.03537
889.10914	0.03527
887.18049	0.03525
885.25184	0.03525
883.32318	0.03525
881.39453	0.03536
879.46588	0.03550
877.53722	0.03560
875.60857	0.03575
873.67992	0.03584
871.75126	0.03566
869.82261	0.03538
867.89396	0.03516
865.96530	0.03495
864.03665	0.03471
862.10800	0.03458
860.17934	0.03462
858.25069	0.03482
856.32204	0.03506
854.39338	0.03526
852.46473	0.03541
850.53608	0.03550
848.60742	0.03541
846.67877	0.03525
844.75012	0.03524
842.82146	0.03528
840.89281	0.03520
838.96416	0.03507
837.03551	0.03501
835.10685	0.03508
833.17820	0.03521
831.24955	0.03532
829.32089	0.03538
827.39224	0.03551
825.46359	0.03575
823.53493	0.03604
821.60628	0.03640
819.67763	0.03676
817.74897	0.03712
815.82032	0.03752
813.89167	0.03783
811.96301	0.03796
810.03436	0.03811
808.10571	0.03837
806.17705	0.03857
804.24840	0.03865
802.31975	0.03880
800.39109	0.03908
798.46244	0.03939
796.53379	0.03975
794.60513	0.04022
792.67648	0.04064
790.74783	0.04089
788.81917	0.04105
786.89052	0.04131
784.96187	0.04168
783.03321	0.04207
781.10456	0.04242
779.17591	0.04264
777.24725	0.04273
775.31860	0.04288
773.38995	0.04327
771.46130	0.04376
769.53264	0.04417
767.60399	0.04448
765.67534	0.04479
763.74668	0.04516
761.81803	0.04556
759.88938	0.04598
757.96072	0.04634
756.03207	0.04663
754.10342	0.04697
752.17476	0.04738
750.24611	0.04772
748.31746	0.04797
746.38880	0.04835
744.46015	0.04883
742.53150	0.04916
740.60284	0.04947
738.67419	0.04989
736.74554	0.05030
734.81688	0.05071
732.88823	0.05106
730.95958	0.05132
729.03092	0.05159
727.10227	0.05204
725.17362	0.05260
723.24496	0.05293
721.31631	0.05333
719.38766	0.05385
717.45900	0.05447
715.53035	0.05498
713.60170	0.05529
711.67304	0.05555
709.74439	0.05589
707.81574	0.05639
705.88708	0.05695
703.95843	0.05744
702.02978	0.05778
700.10113	0.05803
698.17247	0.05828
696.24382	0.05848
694.31517	0.05856
692.38651	0.05857
690.45786	0.05869
688.52921	0.05898
686.60055	0.05936
684.67190	0.05975
682.74325	0.06019
680.81459	0.06065
678.88594	0.06098
676.95729	0.06119
675.02863	0.06140
673.09998	0.06168
671.17133	0.06193
669.24267	0.06211
667.31402	0.06247
665.38537	0.06267
663.45671	0.06284
661.52806	0.06301
659.59941	0.06318
657.67075	0.06332
655.74210	0.06340
653.81345	0.06347
651.88479	0.06360
649.95614	0.06374
648.02749	0.06388
646.09883	0.06404
644.17018	0.06413
642.24153	0.06420
640.31287	0.06432
638.38422	0.06446
636.45557	0.06460
634.52692	0.06480
632.59826	0.06486
630.66961	0.06486
628.74096	0.06544
626.81230	0.06420
624.88365	0.06336
622.95500	0.06407
621.02634	0.06482
619.09769	0.06438
617.16904	0.06480
615.24038	0.06646
613.31173	0.06721
611.38308	0.06652
609.45442	0.06491
607.52577	0.06306
605.59712	0.06226
603.66846	0.06317
601.73981	0.06489
599.81116	0.06591
597.88250	0.06602
595.95385	0.06560
594.02520	0.06501
592.09654	0.06468
590.16789	0.06466
588.23924	0.06464
586.31058	0.06456
584.38193	0.06464
582.45328	0.06483
580.52462	0.06494
578.59597	0.06491
576.66732	0.06476
574.73866	0.06467
572.81001	0.06474
570.88136	0.06486
568.95270	0.06499
567.02405	0.06525
565.09540	0.06559
563.16675	0.06571
561.23809	0.06564
559.30944	0.06572
557.38079	0.06603
555.45213	0.06632
553.52348	0.06625
551.59483	0.06582
549.66617	0.06544
547.73752	0.06538
545.80887	0.06537
543.88021	0.06508
541.95156	0.06467
540.02291	0.06444
538.09425	0.06441
536.16560	0.06444
534.23695	0.06452
532.30829	0.06473
530.37964	0.06493
528.45099	0.06483
526.52233	0.06432
524.59368	0.06357
522.66503	0.06285
520.73637	0.06240
518.80772	0.06219
516.87907	0.06197
514.95041	0.06167
513.02176	0.06131
511.09311	0.06091
509.16445	0.06066
507.23580	0.06051
505.30715	0.06011
503.37849	0.05941
501.44984	0.05889
499.52119	0.05866
497.59254	0.05837
495.66388	0.05798
493.73523	0.05762
491.80658	0.05723
489.87792	0.05674
487.94927	0.05615
486.02062	0.05561
484.09196	0.05519
482.16331	0.05484
480.23466	0.05452
478.30600	0.05433
476.37735	0.05423
474.44870	0.05393
472.52004	0.05333
470.59139	0.05271
468.66274	0.05234
466.73408	0.05213
464.80543	0.05181
462.87678	0.05135
460.94812	0.05083
459.01947	0.05026
457.09082	0.04974
455.16216	0.04932
453.23351	0.04892
451.30486	0.04854
449.37620	0.04825
447.44755	0.04792
445.51890	0.04746
443.59024	0.04705
441.66159	0.04674
439.73294	0.04642
437.80428	0.04611
435.87563	0.04584
433.94698	0.04557
432.01833	0.04528
430.08967	0.04499
428.16102	0.04466
426.23237	0.04428
424.30371	0.04387
422.37506	0.04344
420.44641	0.04303
418.51775	0.04269
416.58910	0.04241
414.66045	0.04219
412.73179	0.04204
410.80314	0.04188
408.87449	0.04164
406.94583	0.04134
405.01718	0.04106
403.08853	0.04080
401.15987	0.04056
399.23122	0.04030
