3996.16951	0.07007
3994.24086	0.07016
3992.31220	0.07031
3990.38355	0.07052
3988.45490	0.07062
3986.52624	0.07047
3984.59759	0.07027
3982.66894	0.07027
3980.74028	0.07042
3978.81163	0.07061
3976.88298	0.07055
3974.95432	0.07031
3973.02567	0.07027
3971.09702	0.07005
3969.16836	0.06952
3967.23971	0.06936
3965.31106	0.06951
3963.38240	0.06942
3961.45375	0.06940
3959.52510	0.06970
3957.59645	0.06980
3955.66779	0.06943
3953.73914	0.06890
3951.81049	0.06861
3949.88183	0.06881
3947.95318	0.06908
3946.02453	0.06893
3944.09587	0.06855
3942.16722	0.06836
3940.23857	0.06840
3938.30991	0.06819
3936.38126	0.06769
3934.45261	0.06754
3932.52395	0.06789
3930.59530	0.06811
3928.66665	0.06773
3926.73799	0.06715
3924.80934	0.06706
3922.88069	0.06727
3920.95203	0.06725
3919.02338	0.06701
3917.09473	0.06680
3915.16607	0.06665
3913.23742	0.06666
3911.30877	0.06693
3909.38011	0.06729
3907.45146	0.06743
3905.52281	0.06708
3903.59415	0.06658
3901.66550	0.06656
3899.73685	0.06661
3897.80819	0.06603
3895.87954	0.06533
3893.95089	0.06521
3892.02224	0.06541
3890.09358	0.06532
3888.16493	0.06514
3886.23628	0.06541
3884.30762	0.06573
3882.37897	0.06544
3880.45032	0.06481
3878.52166	0.06467
3876.59301	0.06500
3874.66436	0.06508
3872.73570	0.06494
3870.80705	0.06525
3868.87840	0.06590
3866.94974	0.06628
3865.02109	0.06609
3863.09244	0.06538
3861.16378	0.06456
3859.23513	0.06394
3857.30648	0.06371
3855.37782	0.06402
3853.44917	0.06451
3851.52052	0.06479
3849.59186	0.06482
3847.66321	0.06435
3845.73456	0.06326
3843.80590	0.06222
3841.87725	0.06184
3839.94860	0.06218
3838.01994	0.06272
3836.09129	0.06281
3834.16264	0.06249
3832.23398	0.06210
3830.30533	0.06199
3828.37668	0.06229
3826.44803	0.06243
3824.51937	0.06207
3822.59072	0.06200
3820.66207	0.06254
3818.73341	0.06288
3816.80476	0.06266
3814.87611	0.06215
3812.94745	0.06143
3811.01880	0.06081
3809.09015	0.06071
3807.16149	0.06092
3805.23284	0.06085
3803.30419	0.06040
3801.37553	0.06005
3799.44688	0.06007
3797.51823	0.06016
3795.58957	0.05988
3793.66092	0.05940
3791.73227	0.05943
3789.80361	0.05996
3787.87496	0.06026
3785.94631	0.05999
3784.01765	0.05944
3782.08900	0.05911
3780.16035	0.05912
3778.23169	0.05900
3776.30304	0.05872
3774.37439	0.05891
3772.44573	0.05941
3770.51708	0.05941
3768.58843	0.05901
3766.65977	0.05880
3764.73112	0.05852
3762.80247	0.05786
3760.87381	0.05740
3758.94516	0.05768
3757.01651	0.05834
3755.08786	0.05871
3753.15920	0.05879
3751.23055	0.05864
3749.30190	0.05811
3747.37324	0.05763
3745.44459	0.05763
3743.51594	0.05770
3741.58728	0.05737
3739.65863	0.05665
3737.72998	0.05607
3735.80132	0.05634
3733.87267	0.05698
3731.94402	0.05676
3730.01536	0.05573
3728.08671	0.05513
3726.15806	0.05558
3724.22940	0.05612
3722.30075	0.05596
3720.37210	0.05567
3718.44344	0.05563
3716.51479	0.05553
3714.58614	0.05506
3712.65748	0.05452
3710.72883	0.05452
3708.80018	0.05497
3706.87152	0.05521
3704.94287	0.05506
3703.01422	0.05474
3701.08556	0.05424
3699.15691	0.05395
3697.22826	0.05435
3695.29960	0.05490
3693.37095	0.05512
3691.44230	0.05526
3689.51365	0.05526
3687.58499	0.05516
3685.65634	0.05522
3683.72769	0.05526
3681.79903	0.05522
3679.87038	0.05530
3677.94173	0.05537
3676.01307	0.05530
3674.08442	0.05517
3672.15577	0.05524
3670.22711	0.05569
3668.29846	0.05632
3666.36981	0.05644
3664.44115	0.05616
3662.51250	0.05643
3660.58385	0.05717
3658.65519	0.05772
3656.72654	0.05815
3654.79789	0.05849
3652.86923	0.05854
3650.94058	0.05876
3649.01193	0.05960
3647.08327	0.06060
3645.15462	0.06143
3643.22597	0.06215
3641.29731	0.06270
3639.36866	0.06309
3637.44001	0.06357
3635.51135	0.06416
3633.58270	0.06445
3631.65405	0.06452
3629.72539	0.06484
3627.79674	0.06542
3625.86809	0.06608
3623.93943	0.06712
3622.01078	0.06841
3620.08213	0.06987
3618.15348	0.07143
3616.22482	0.07258
3614.29617	0.07304
3612.36752	0.07331
3610.43886	0.07381
3608.51021	0.07442
3606.58156	0.07476
3604.65290	0.07480
3602.72425	0.07511
3600.79560	0.07610
3598.86694	0.07766
3596.93829	0.07910
3595.00964	0.08012
3593.08098	0.08106
3591.15233	0.08193
3589.22368	0.08252
3587.29502	0.08295
3585.36637	0.08355
3583.43772	0.08434
3581.50906	0.08514
3579.58041	0.08623
3577.65176	0.08783
3575.72310	0.08931
3573.79445	0.09006
3571.86580	0.09053
3569.93714	0.09133
3568.00849	0.09228
3566.07984	0.09332
3564.15118	0.09478
3562.22253	0.09641
3560.29388	0.09773
3558.36522	0.09899
3556.43657	0.10022
3554.50792	0.10110
3552.57927	0.10182
3550.65061	0.10283
3548.72196	0.10420
3546.79331	0.10558
3544.86465	0.10676
3542.93600	0.10783
3541.00735	0.10859
3539.07869	0.10910
3537.15004	0.10991
3535.22139	0.11111
3533.29273	0.11217
3531.36408	0.11292
3529.43543	0.11372
3527.50677	0.11482
3525.57812	0.11598
3523.64947	0.11689
3521.72081	0.11759
3519.79216	0.11845
3517.86351	0.11973
3515.93485	0.12114
3514.00620	0.12222
3512.07755	0.12309
3510.14889	0.12410
3508.22024	0.12502
3506.29159	0.12569
3504.36293	0.12632
3502.43428	0.12681
3500.50563	0.12729
3498.57697	0.12815
3496.64832	0.12915
3494.71967	0.13001
3492.79101	0.13119
3490.86236	0.13284
3488.93371	0.13421
3487.00506	0.13478
3485.07640	0.13514
3483.14775	0.13580
3481.21910	0.13634
3479.29044	0.13659
3477.36179	0.13703
3475.43314	0.13774
3473.50448	0.13823
3471.57583	0.13853
3469.64718	0.13924
3467.71852	0.14063
3465.78987	0.14218
3463.86122	0.14318
3461.93256	0.14355
3460.00391	0.14380
3458.07526	0.14445
3456.14660	0.14552
3454.21795	0.14653
3452.28930	0.14724
3450.36064	0.14791
3448.43199	0.14867
3446.50334	0.14927
3444.57468	0.14954
3442.64603	0.14983
3440.71738	0.15032
3438.78872	0.15086
3436.86007	0.15165
3434.93142	0.15273
3433.00276	0.15380
3431.07411	0.15478
3429.14546	0.15548
3427.21680	0.15565
3425.28815	0.15585
3423.35950	0.15679
3421.43084	0.15805
3419.50219	0.15885
3417.57354	0.15938
3415.64489	0.16009
3413.71623	0.16088
3411.78758	0.16157
3409.85893	0.16218
3407.93027	0.16279
3406.00162	0.16339
3404.07297	0.16400
3402.14431	0.16472
3400.21566	0.16562
3398.28701	0.16660
3396.35835	0.16752
3394.42970	0.16844
3392.50105	0.16917
3390.57239	0.16942
3388.64374	0.16947
3386.71509	0.16987
3384.78643	0.17056
3382.85778	0.17122
3380.92913	0.17190
3379.00047	0.17289
3377.07182	0.17412
3375.14317	0.17531
3373.21451	0.17627
3371.28586	0.17728
3369.35721	0.17859
3367.42855	0.17979
3365.49990	0.18064
3363.57125	0.18163
3361.64259	0.18299
3359.71394	0.18447
3357.78529	0.18595
3355.85663	0.18747
3353.92798	0.18909
3351.99933	0.19100
3350.07068	0.19306
3348.14202	0.19483
3346.21337	0.19617
3344.28472	0.19732
3342.35606	0.19855
3340.42741	0.19990
3338.49876	0.20121
3336.57010	0.20244
3334.64145	0.20375
3332.71280	0.20527
3330.78414	0.20686
3328.85549	0.20823
3326.92684	0.20925
3324.99818	0.20997
3323.06953	0.21066
3321.14088	0.21154
3319.21222	0.21235
3317.28357	0.21282
3315.35492	0.21323
3313.42626	0.21389
3311.49761	0.21464
3309.56896	0.21538
3307.64030	0.21627
3305.71165	0.21711
3303.78300	0.21751
3301.85434	0.21758
3299.92569	0.21787
3297.99704	0.21828
3296.06838	0.21819
3294.13973	0.21769
3292.21108	0.21747
3290.28242	0.21769
3288.35377	0.21799
3286.42512	0.21800
3284.49646	0.21781
3282.56781	0.21777
3280.63916	0.21767
3278.71051	0.21712
3276.78185	0.21623
3274.85320	0.21537
3272.92455	0.21460
3270.99589	0.21382
3269.06724	0.21298
3267.13859	0.21225
3265.20993	0.21182
3263.28128	0.21144
3261.35263	0.21072
3259.42397	0.20970
3257.49532	0.20842
3255.56667	0.20696
3253.63801	0.20570
3251.70936	0.20477
3249.78071	0.20388
3247.85205	0.20291
3245.92340	0.20209
3243.99475	0.20142
3242.06609	0.20077
3240.13744	0.20024
3238.20879	0.19982
3236.28013	0.19927
3234.35148	0.19838
3232.42283	0.19725
3230.49417	0.19625
3228.56552	0.19567
3226.63687	0.19523
3224.70821	0.19454
3222.77956	0.19391
3220.85091	0.19358
3218.92225	0.19322
3216.99360	0.19250
3215.06495	0.19148
3213.13630	0.19054
3211.20764	0.18987
3209.27899	0.18921
3207.35034	0.18836
3205.42168	0.18759
3203.49303	0.18698
3201.56438	0.18630
3199.63572	0.18545
3197.70707	0.18443
3195.77842	0.18313
3193.84976	0.18173
3191.92111	0.18076
3189.99246	0.18033
3188.06380	0.17997
3186.13515	0.17926
3184.20650	0.17804
3182.27784	0.17666
3180.34919	0.17552
3178.42054	0.17440
3176.49188	0.17302
3174.56323	0.17166
3172.63458	0.17049
3170.70592	0.16915
3168.77727	0.16750
3166.84862	0.16585
3164.91996	0.16457
3162.99131	0.16362
3161.06266	0.16261
3159.13400	0.16138
3157.20535	0.15998
3155.27670	0.15854
3153.34804	0.15728
3151.41939	0.15628
3149.49074	0.15539
3147.56209	0.15446
3145.63343	0.15352
3143.70478	0.15259
3141.77613	0.15163
3139.84747	0.15072
3137.91882	0.14983
3135.99017	0.14876
3134.06151	0.14747
3132.13286	0.14633
3130.20421	0.14577
3128.27555	0.14558
3126.34690	0.14534
3124.41825	0.14492
3122.48959	0.14424
3120.56094	0.14353
3118.63229	0.14327
3116.70363	0.14332
3114.77498	0.14326
3112.84633	0.14310
3110.91767	0.14304
3108.98902	0.14310
3107.06037	0.14331
3105.13171	0.14369
3103.20306	0.14401
3101.27441	0.14408
3099.34575	0.14410
3097.41710	0.14419
3095.48845	0.14421
3093.55979	0.14426
3091.63114	0.14468
3089.70249	0.14534
3087.77383	0.14583
3085.84518	0.14606
3083.91653	0.14630
3081.98787	0.14663
3080.05922	0.14691
3078.13057	0.14719
3076.20192	0.14741
3074.27326	0.14731
3072.34461	0.14704
3070.41596	0.14683
3068.48730	0.14652
3066.55865	0.14594
3064.63000	0.14520
3062.70134	0.14442
3060.77269	0.14363
3058.84404	0.14301
3056.91538	0.14250
3054.98673	0.14178
3053.05808	0.14089
3051.12942	0.13997
3049.20077	0.13881
3047.27212	0.13741
3045.34346	0.13606
3043.41481	0.13508
3041.48616	0.13440
3039.55750	0.13353
3037.62885	0.13230
3035.70020	0.13106
3033.77154	0.13000
3031.84289	0.12909
3029.91424	0.12827
3027.98558	0.12737
3026.05693	0.12643
3024.12828	0.12559
3022.19962	0.12468
3020.27097	0.12348
3018.34232	0.12232
3016.41366	0.12173
3014.48501	0.12150
3012.55636	0.12099
3010.62771	0.12016
3008.69905	0.11956
3006.77040	0.11933
3004.84175	0.11924
3002.91309	0.11914
3000.98444	0.11902
2999.05579	0.11898
2997.12713	0.11920
2995.19848	0.11969
2993.26983	0.12026
2991.34117	0.12084
2989.41252	0.12150
2987.48387	0.12225
2985.55521	0.12303
2983.62656	0.12390
2981.69791	0.12483
2979.76925	0.12549
2977.84060	0.12578
2975.91195	0.12597
2973.98329	0.12647
2972.05464	0.12726
2970.12599	0.12810
2968.19733	0.12888
2966.26868	0.12955
2964.34003	0.13018
2962.41137	0.13084
2960.48272	0.13142
2958.55407	0.13192
2956.62541	0.13240
2954.69676	0.13268
2952.76811	0.13255
2950.83945	0.13219
2948.91080	0.13196
2946.98215	0.13197
2945.05349	0.13213
2943.12484	0.13250
2941.19619	0.13315
2939.26754	0.13393
2937.33888	0.13447
2935.41023	0.13442
2933.48158	0.13396
2931.55292	0.13365
2929.62427	0.13370
2927.69562	0.13387
2925.76696	0.13375
2923.83831	0.13326
2921.90966	0.13251
2919.98100	0.13140
2918.05235	0.12991
2916.12370	0.12814
2914.19504	0.12619
2912.26639	0.12428
2910.33774	0.12257
2908.40908	0.12111
2906.48043	0.12003
2904.55178	0.11912
2902.62312	0.11801
2900.69447	0.11677
2898.76582	0.11575
2896.83716	0.11514
2894.90851	0.11482
2892.97986	0.11448
2891.05120	0.11402
2889.12255	0.11372
2887.19390	0.11369
2885.26524	0.11375
2883.33659	0.11379
2881.40794	0.11389
2879.47928	0.11408
2877.55063	0.11413
2875.62198	0.11387
2873.69333	0.11328
2871.76467	0.11250
2869.83602	0.11170
2867.90737	0.11073
2865.97871	0.10950
2864.05006	0.10837
2862.12141	0.10758
2860.19275	0.10697
2858.26410	0.10634
2856.33545	0.10574
2854.40679	0.10548
2852.47814	0.10535
2850.54949	0.10467
2848.62083	0.10327
2846.69218	0.10167
2844.76353	0.10034
2842.83487	0.09933
2840.90622	0.09856
2838.97757	0.09795
2837.04891	0.09732
2835.12026	0.09660
2833.19161	0.09586
2831.26295	0.09522
2829.33430	0.09470
2827.40565	0.09423
2825.47699	0.09375
2823.54834	0.09315
2821.61969	0.09248
2819.69103	0.09201
2817.76238	0.09172
2815.83373	0.09139
2813.90507	0.09103
2811.97642	0.09075
2810.04777	0.09040
2808.11912	0.08991
2806.19046	0.08946
2804.26181	0.08911
2802.33316	0.08885
2800.40450	0.08862
2798.47585	0.08831
2796.54720	0.08788
2794.61854	0.08732
2792.68989	0.08673
2790.76124	0.08632
2788.83258	0.08612
2786.90393	0.08591
2784.97528	0.08547
2783.04662	0.08495
2781.11797	0.08462
2779.18932	0.08446
2777.26066	0.08431
2775.33201	0.08411
2773.40336	0.08376
2771.47470	0.08325
2769.54605	0.08273
2767.61740	0.08229
2765.68874	0.08196
2763.76009	0.08164
2761.83144	0.08130
2759.90278	0.08103
2757.97413	0.08070
2756.04548	0.08020
2754.11682	0.07981
2752.18817	0.07970
2750.25952	0.07957
2748.33086	0.07920
2746.40221	0.07874
2744.47356	0.07840
2742.54490	0.07809
2740.61625	0.07767
2738.68760	0.07735
2736.75895	0.07730
2734.83029	0.07721
2732.90164	0.07687
2730.97299	0.07645
2729.04433	0.07616
2727.11568	0.07596
2725.18703	0.07575
2723.25837	0.07550
2721.32972	0.07522
2719.40107	0.07480
2717.47241	0.07420
2715.54376	0.07374
2713.61511	0.07358
2711.68645	0.07352
2709.75780	0.07338
2707.82915	0.07322
2705.90049	0.07302
2703.97184	0.07269
2702.04319	0.07226
2700.11453	0.07191
2698.18588	0.07174
2696.25723	0.07167
2694.32857	0.07142
2692.39992	0.07099
2690.47127	0.07076
2688.54261	0.07080
2686.61396	0.07085
2684.68531	0.07069
2682.75665	0.07043
2680.82800	0.07024
2678.89935	0.07011
2676.97069	0.06993
2675.04204	0.06970
2673.11339	0.06952
2671.18474	0.06941
2669.25608	0.06921
2667.32743	0.06899
2665.39878	0.06890
2663.47012	0.06889
2661.54147	0.06876
2659.61282	0.06834
2657.68416	0.06777
2655.75551	0.06739
2653.82686	0.06716
2651.89820	0.06691
2649.96955	0.06665
2648.04090	0.06639
2646.11224	0.06606
2644.18359	0.06566
2642.25494	0.06522
2640.32628	0.06480
2638.39763	0.06441
2636.46898	0.06394
2634.54032	0.06342
2632.61167	0.06300
2630.68302	0.06267
2628.75436	0.06224
2626.82571	0.06180
2624.89706	0.06170
2622.96840	0.06187
2621.03975	0.06183
2619.11110	0.06142
2617.18244	0.06093
2615.25379	0.06057
2613.32514	0.06028
2611.39648	0.05998
2609.46783	0.05951
2607.53918	0.05876
2605.61052	0.05816
2603.68187	0.05813
2601.75322	0.05831
2599.82457	0.05800
2597.89591	0.05719
2595.96726	0.05663
2594.03861	0.05668
2592.10995	0.05680
2590.18130	0.05658
2588.25265	0.05606
2586.32399	0.05548
2584.39534	0.05532
2582.46669	0.05553
2580.53803	0.05544
2578.60938	0.05497
2576.68073	0.05458
2574.75207	0.05443
2572.82342	0.05452
2570.89477	0.05464
2568.96611	0.05439
2567.03746	0.05382
2565.10881	0.05335
2563.18015	0.05327
2561.25150	0.05334
2559.32285	0.05312
2557.39419	0.05273
2555.46554	0.05260
2553.53689	0.05274
2551.60823	0.05279
2549.67958	0.05258
2547.75093	0.05229
2545.82227	0.05199
2543.89362	0.05168
2541.96497	0.05144
2540.03631	0.05140
2538.10766	0.05135
2536.17901	0.05099
2534.25036	0.05040
2532.32170	0.04995
2530.39305	0.04982
2528.46440	0.04979
2526.53574	0.04973
2524.60709	0.04966
2522.67844	0.04953
2520.74978	0.04938
2518.82113	0.04929
2516.89248	0.04914
2514.96382	0.04887
2513.03517	0.04866
2511.10652	0.04871
2509.17786	0.04888
2507.24921	0.04893
2505.32056	0.04878
2503.39190	0.04862
2501.46325	0.04845
2499.53460	0.04804
2497.60594	0.04750
2495.67729	0.04750
2493.74864	0.04814
2491.81998	0.04853
2489.89133	0.04815
2487.96268	0.04764
2486.03402	0.04765
2484.10537	0.04772
2482.17672	0.04735
2480.24806	0.04679
2478.31941	0.04638
2476.39076	0.04624
2474.46210	0.04628
2472.53345	0.04624
2470.60480	0.04615
2468.67615	0.04613
2466.74749	0.04606
2464.81884	0.04595
2462.89019	0.04603
2460.96153	0.04615
2459.03288	0.04595
2457.10423	0.04555
2455.17557	0.04521
2453.24692	0.04494
2451.31827	0.04487
2449.38961	0.04498
2447.46096	0.04489
2445.53231	0.04466
2443.60365	0.04452
2441.67500	0.04443
2439.74635	0.04452
2437.81769	0.04458
2435.88904	0.04430
2433.96039	0.04408
2432.03173	0.04410
2430.10308	0.04402
2428.17443	0.04387
2426.24577	0.04399
2424.31712	0.04444
2422.38847	0.04483
2420.45981	0.04487
2418.53116	0.04492
2416.60251	0.04500
2414.67385	0.04465
2412.74520	0.04402
2410.81655	0.04369
2408.88789	0.04376
2406.95924	0.04382
2405.03059	0.04367
2403.10193	0.04359
2401.17328	0.04379
2399.24463	0.04387
2397.31598	0.04346
2395.38732	0.04304
2393.45867	0.04327
2391.53002	0.04380
2389.60136	0.04402
2387.67271	0.04407
2385.74406	0.04411
2383.81540	0.04396
2381.88675	0.04368
2379.95810	0.04369
2378.02944	0.04409
2376.10079	0.04428
2374.17214	0.04394
2372.24348	0.04364
2370.31483	0.04433
2368.38618	0.04382
2366.45752	0.04418
2364.52887	0.04405
2362.60022	0.04476
2360.67156	0.04355
2358.74291	0.04551
2356.81426	0.04364
2354.88560	0.04416
2352.95695	0.04482
2351.02830	0.04400
2349.09964	0.04387
2347.17099	0.04379
2345.24234	0.04325
2343.31368	0.04351
2341.38503	0.04527
2339.45638	0.04604
2337.52772	0.04552
2335.59907	0.04408
2333.67042	0.04280
2331.74177	0.04219
2329.81311	0.04198
2327.88446	0.04193
2325.95581	0.04221
2324.02715	0.04229
2322.09850	0.04232
2320.16985	0.04212
2318.24119	0.04178
2316.31254	0.04116
2314.38389	0.04063
2312.45523	0.04057
2310.52658	0.04082
2308.59793	0.04097
2306.66927	0.04090
2304.74062	0.04059
2302.81197	0.04008
2300.88331	0.03956
2298.95466	0.03907
2297.02601	0.03878
2295.09735	0.03856
2293.16870	0.03832
2291.24005	0.03806
2289.31139	0.03789
2287.38274	0.03754
2285.45409	0.03685
2283.52543	0.03630
2281.59678	0.03616
2279.66813	0.03597
2277.73947	0.03549
2275.81082	0.03526
2273.88217	0.03534
2271.95351	0.03521
2270.02486	0.03494
2268.09621	0.03475
2266.16755	0.03431
2264.23890	0.03389
2262.31025	0.03403
2260.38160	0.03408
2258.45294	0.03356
2256.52429	0.03304
2254.59564	0.03265
2252.66698	0.03217
2250.73833	0.03183
2248.80968	0.03173
2246.88102	0.03147
2244.95237	0.03097
2243.02372	0.03061
2241.09506	0.03050
2239.16641	0.03026
2237.23776	0.02981
2235.30910	0.02945
2233.38045	0.02929
2231.45180	0.02932
2229.52314	0.02961
2227.59449	0.02982
2225.66584	0.02955
2223.73718	0.02907
2221.80853	0.02854
2219.87988	0.02775
2217.95122	0.02704
2216.02257	0.02665
2214.09392	0.02620
2212.16526	0.02564
2210.23661	0.02543
2208.30796	0.02588
2206.37930	0.02617
2204.45065	0.02553
2202.52200	0.02502
2200.59334	0.02520
2198.66469	0.02537
2196.73604	0.02515
2194.80739	0.02422
2192.87873	0.02314
2190.95008	0.02267
2189.02143	0.02216
2187.09277	0.02138
2185.16412	0.02092
2183.23547	0.02072
2181.30681	0.02063
2179.37816	0.02105
2177.44951	0.02193
2175.52085	0.02236
2173.59220	0.02183
2171.66355	0.02097
2169.73489	0.02016
2167.80624	0.01921
2165.87759	0.01831
2163.94893	0.01759
2162.02028	0.01659
2160.09163	0.01549
2158.16297	0.01571
2156.23432	0.01780
2154.30567	0.01997
2152.37701	0.02064
2150.44836	0.02071
2148.51971	0.02093
2146.59105	0.02092
2144.66240	0.02133
2142.73375	0.02280
2140.80509	0.02457
2138.87644	0.02561
2136.94779	0.02573
2135.01913	0.02558
2133.09048	0.02567
2131.16183	0.02596
2129.23318	0.02611
2127.30452	0.02629
2125.37587	0.02697
2123.44722	0.02773
2121.51856	0.02786
2119.58991	0.02763
2117.66126	0.02745
2115.73260	0.02731
2113.80395	0.02732
2111.87530	0.02765
2109.94664	0.02795
2108.01799	0.02785
2106.08934	0.02735
2104.16068	0.02671
2102.23203	0.02609
2100.30338	0.02545
2098.37472	0.02518
2096.44607	0.02555
2094.51742	0.02615
2092.58876	0.02640
2090.66011	0.02635
2088.73146	0.02620
2086.80280	0.02598
2084.87415	0.02578
2082.94550	0.02576
2081.01684	0.02568
2079.08819	0.02514
2077.15954	0.02454
2075.23088	0.02451
2073.30223	0.02471
2071.37358	0.02451
2069.44492	0.02372
2067.51627	0.02265
2065.58762	0.02185
2063.65896	0.02161
2061.73031	0.02201
2059.80166	0.02265
2057.87301	0.02271
2055.94435	0.02216
2054.01570	0.02184
2052.08705	0.02186
2050.15839	0.02152
2048.22974	0.02087
2046.30109	0.02076
2044.37243	0.02068
2042.44378	0.01926
2040.51513	0.01724
2038.58647	0.01643
2036.65782	0.01689
2034.72917	0.01743
2032.80051	0.01753
2030.87186	0.01739
2028.94321	0.01701
2027.01455	0.01661
2025.08590	0.01641
2023.15725	0.01614
2021.22859	0.01591
2019.29994	0.01592
2017.37129	0.01578
2015.44263	0.01591
2013.51398	0.01710
2011.58533	0.01837
2009.65667	0.01837
2007.72802	0.01736
2005.79937	0.01681
2003.87071	0.01761
2001.94206	0.01900
2000.01341	0.01991
1998.08475	0.02003
1996.15610	0.01942
1994.22745	0.01860
1992.29880	0.01828
1990.37014	0.01825
1988.44149	0.01801
1986.51284	0.01805
1984.58418	0.01873
1982.65553	0.01930
1980.72688	0.01883
1978.79822	0.01747
1976.86957	0.01626
1974.94092	0.01581
1973.01226	0.01600
1971.08361	0.01655
1969.15496	0.01696
1967.22630	0.01715
1965.29765	0.01768
1963.36900	0.01850
1961.44034	0.01881
1959.51169	0.01846
1957.58304	0.01824
1955.65438	0.01860
1953.72573	0.01900
1951.79708	0.01904
1949.86842	0.01920
1947.93977	0.01962
1946.01112	0.01998
1944.08246	0.02039
1942.15381	0.02110
1940.22516	0.02172
1938.29650	0.02174
1936.36785	0.02141
1934.43920	0.02133
1932.51054	0.02136
1930.58189	0.02098
1928.65324	0.02060
1926.72458	0.02074
1924.79593	0.02107
1922.86728	0.02143
1920.93863	0.02189
1919.00997	0.02216
1917.08132	0.02220
1915.15267	0.02209
1913.22401	0.02186
1911.29536	0.02181
1909.36671	0.02201
1907.43805	0.02220
1905.50940	0.02222
1903.58075	0.02212
1901.65209	0.02206
1899.72344	0.02213
1897.79479	0.02226
1895.86613	0.02227
1893.93748	0.02215
1892.00883	0.02220
1890.08017	0.02247
1888.15152	0.02256
1886.22287	0.02230
1884.29421	0.02202
1882.36556	0.02193
1880.43691	0.02195
1878.50825	0.02198
1876.57960	0.02197
1874.65095	0.02200
1872.72229	0.02205
1870.79364	0.02194
1868.86499	0.02164
1866.93633	0.02145
1865.00768	0.02151
1863.07903	0.02176
1861.15037	0.02202
1859.22172	0.02217
1857.29307	0.02230
1855.36442	0.02235
1853.43576	0.02213
1851.50711	0.02174
1849.57846	0.02143
1847.64980	0.02128
1845.72115	0.02135
1843.79250	0.02159
1841.86384	0.02173
1839.93519	0.02157
1838.00654	0.02128
1836.07788	0.02111
1834.14923	0.02106
1832.22058	0.02110
1830.29192	0.02125
1828.36327	0.02142
1826.43462	0.02146
1824.50596	0.02145
1822.57731	0.02148
1820.64866	0.02149
1818.72000	0.02145
1816.79135	0.02144
1814.86270	0.02148
1812.93404	0.02136
1811.00539	0.02110
1809.07674	0.02091
1807.14808	0.02089
1805.21943	0.02098
1803.29078	0.02108
1801.36212	0.02109
1799.43347	0.02100
1797.50482	0.02096
1795.57616	0.02105
1793.64751	0.02113
1791.71886	0.02116
1789.79021	0.02112
1787.86155	0.02098
1785.93290	0.02086
1784.00425	0.02089
1782.07559	0.02095
1780.14694	0.02090
1778.21829	0.02074
1776.28963	0.02054
1774.36098	0.02046
1772.43233	0.02060
1770.50367	0.02076
1768.57502	0.02076
1766.64637	0.02071
1764.71771	0.02082
1762.78906	0.02106
1760.86041	0.02125
1758.93175	0.02136
1757.00310	0.02152
1755.07445	0.02176
1753.14579	0.02204
1751.21714	0.02244
1749.28849	0.02297
1747.35983	0.02353
1745.43118	0.02400
1743.50253	0.02446
1741.57387	0.02501
1739.64522	0.02560
1737.71657	0.02623
1735.78791	0.02697
1733.85926	0.02768
1731.93061	0.02817
1730.00195	0.02857
1728.07330	0.02917
1726.14465	0.02995
1724.21599	0.03064
1722.28734	0.03121
1720.35869	0.03188
1718.43004	0.03282
1716.50138	0.03393
1714.57273	0.03508
1712.64408	0.03641
1710.71542	0.03810
1708.78677	0.04023
1706.85812	0.04284
1704.92946	0.04598
1703.00081	0.04964
1701.07216	0.05377
1699.14350	0.05814
1697.21485	0.06265
1695.28620	0.06728
1693.35754	0.07184
1691.42889	0.07623
1689.50024	0.08075
1687.57158	0.08555
1685.64293	0.09062
1683.71428	0.09580
1681.78562	0.10101
1679.85697	0.10660
1677.92832	0.11282
1675.99966	0.11946
1674.07101	0.12616
1672.14236	0.13293
1670.21370	0.13995
1668.28505	0.14709
1666.35640	0.15410
1664.42774	0.16102
1662.49909	0.16782
1660.57044	0.17416
1658.64178	0.17990
1656.71313	0.18514
1654.78448	0.19016
1652.85583	0.19488
1650.92717	0.19887
1648.99852	0.20220
1647.06987	0.20538
1645.14121	0.20844
1643.21256	0.21120
1641.28391	0.21374
1639.35525	0.21619
1637.42660	0.21855
1635.49795	0.22068
1633.56929	0.22225
1631.64064	0.22317
1629.71199	0.22334
1627.78333	0.22243
1625.85468	0.22016
1623.92603	0.21657
1621.99737	0.21186
1620.06872	0.20629
1618.14007	0.20016
1616.21141	0.19361
1614.28276	0.18676
1612.35411	0.17977
1610.42545	0.17280
1608.49680	0.16596
1606.56815	0.15929
1604.63949	0.15289
1602.71084	0.14694
1600.78219	0.14152
1598.85353	0.13664
1596.92488	0.13232
1594.99623	0.12854
1593.06757	0.12527
1591.13892	0.12260
1589.21027	0.12059
1587.28161	0.11916
1585.35296	0.11829
1583.42431	0.11798
1581.49566	0.11826
1579.56700	0.11916
1577.63835	0.12073
1575.70970	0.12287
1573.78104	0.12542
1571.85239	0.12848
1569.92374	0.13215
1567.99508	0.13618
1566.06643	0.14039
1564.13778	0.14480
1562.20912	0.14936
1560.28047	0.15397
1558.35182	0.15845
1556.42316	0.16251
1554.49451	0.16610
1552.56586	0.16923
1550.63720	0.17188
1548.70855	0.17420
1546.77990	0.17621
1544.85124	0.17782
1542.92259	0.17899
1540.99394	0.17972
1539.06528	0.18004
1537.13663	0.18002
1535.20798	0.17983
1533.27932	0.17947
1531.35067	0.17886
1529.42202	0.17802
1527.49336	0.17694
1525.56471	0.17559
1523.63606	0.17404
1521.70740	0.17235
1519.77875	0.17045
1517.85010	0.16828
1515.92145	0.16578
1513.99279	0.16285
1512.06414	0.15942
1510.13549	0.15553
1508.20683	0.15128
1506.27818	0.14677
1504.34953	0.14203
1502.42087	0.13713
1500.49222	0.13220
1498.56357	0.12737
1496.63491	0.12261
1494.70626	0.11783
1492.77761	0.11316
1490.84895	0.10881
1488.92030	0.10496
1486.99165	0.10174
1485.06299	0.09920
1483.13434	0.09739
1481.20569	0.09633
1479.27703	0.09603
1477.34838	0.09647
1475.41973	0.09759
1473.49107	0.09929
1471.56242	0.10139
1469.63377	0.10374
1467.70511	0.10624
1465.77646	0.10882
1463.84781	0.11144
1461.91915	0.11421
1459.99050	0.11718
1458.06185	0.12019
1456.13319	0.12288
1454.20454	0.12500
1452.27589	0.12653
1450.34724	0.12735
1448.41858	0.12735
1446.48993	0.12670
1444.56128	0.12572
1442.63262	0.12451
1440.70397	0.12301
1438.77532	0.12116
1436.84666	0.11891
1434.91801	0.11629
1432.98936	0.11355
1431.06070	0.11111
1429.13205	0.10915
1427.20340	0.10768
1425.27474	0.10664
1423.34609	0.10597
1421.41744	0.10561
1419.48878	0.10542
1417.56013	0.10531
1415.63148	0.10538
1413.70282	0.10567
1411.77417	0.10617
1409.84552	0.10682
1407.91686	0.10760
1405.98821	0.10838
1404.05956	0.10896
1402.13090	0.10928
1400.20225	0.10938
1398.27360	0.10930
1396.34494	0.10898
1394.41629	0.10849
1392.48764	0.10797
1390.55898	0.10748
1388.63033	0.10692
1386.70168	0.10627
1384.77302	0.10567
1382.84437	0.10513
1380.91572	0.10447
1378.98707	0.10363
1377.05841	0.10260
1375.12976	0.10137
1373.20111	0.09995
1371.27245	0.09844
1369.34380	0.09684
1367.41515	0.09513
1365.48649	0.09338
1363.55784	0.09173
1361.62919	0.09030
1359.70053	0.08917
1357.77188	0.08849
1355.84323	0.08836
1353.91457	0.08872
1351.98592	0.08942
1350.05727	0.09038
1348.12861	0.09164
1346.19996	0.09312
1344.27131	0.09462
1342.34265	0.09599
1340.41400	0.09723
1338.48535	0.09816
1336.55669	0.09859
1334.62804	0.09843
1332.69939	0.09771
1330.77073	0.09654
1328.84208	0.09513
1326.91343	0.09371
1324.98477	0.09252
1323.05612	0.09157
1321.12747	0.09087
1319.19881	0.09039
1317.27016	0.09005
1315.34151	0.08964
1313.41286	0.08903
1311.48420	0.08827
1309.55555	0.08751
1307.62690	0.08683
1305.69824	0.08626
1303.76959	0.08580
1301.84094	0.08535
1299.91228	0.08484
1297.98363	0.08441
1296.05498	0.08428
1294.12632	0.08450
1292.19767	0.08502
1290.26902	0.08581
1288.34036	0.08682
1286.41171	0.08798
1284.48306	0.08908
1282.55440	0.08992
1280.62575	0.09044
1278.69710	0.09069
1276.76844	0.09078
1274.83979	0.09081
1272.91114	0.09087
1270.98248	0.09105
1269.05383	0.09144
1267.12518	0.09198
1265.19652	0.09260
1263.26787	0.09333
1261.33922	0.09425
1259.41056	0.09534
1257.48191	0.09662
1255.55326	0.09809
1253.62460	0.09968
1251.69595	0.10133
1249.76730	0.10305
1247.83864	0.10485
1245.90999	0.10666
1243.98134	0.10842
1242.05269	0.11009
1240.12403	0.11155
1238.19538	0.11261
1236.26673	0.11324
1234.33807	0.11348
1232.40942	0.11322
1230.48077	0.11234
1228.55211	0.11092
1226.62346	0.10907
1224.69481	0.10683
1222.76615	0.10432
1220.83750	0.10185
1218.90885	0.09970
1216.98019	0.09798
1215.05154	0.09670
1213.12289	0.09586
1211.19423	0.09553
1209.26558	0.09570
1207.33693	0.09617
1205.40827	0.09663
1203.47962	0.09684
1201.55097	0.09662
1199.62231	0.09588
1197.69366	0.09460
1195.76501	0.09294
1193.83635	0.09110
1191.90770	0.08917
1189.97905	0.08722
1188.05039	0.08544
1186.12174	0.08397
1184.19309	0.08275
1182.26443	0.08173
1180.33578	0.08097
1178.40713	0.08041
1176.47848	0.07993
1174.54982	0.07955
1172.62117	0.07927
1170.69252	0.07902
1168.76386	0.07881
1166.83521	0.07869
1164.90656	0.07863
1162.97790	0.07850
1161.04925	0.07816
1159.12060	0.07753
1157.19194	0.07662
1155.26329	0.07551
1153.33464	0.07416
1151.40598	0.07259
1149.47733	0.07096
1147.54868	0.06942
1145.62002	0.06813
1143.69137	0.06710
1141.76272	0.06617
1139.83406	0.06526
1137.90541	0.06445
1135.97676	0.06379
1134.04810	0.06325
1132.11945	0.06290
1130.19080	0.06269
1128.26214	0.06249
1126.33349	0.06222
1124.40484	0.06187
1122.47618	0.06148
1120.54753	0.06113
1118.61888	0.06091
1116.69022	0.06083
1114.76157	0.06080
1112.83292	0.06079
1110.90427	0.06101
1108.97561	0.06151
1107.04696	0.06200
1105.11831	0.06239
1103.18965	0.06284
1101.26100	0.06338
1099.33235	0.06398
1097.40369	0.06468
1095.47504	0.06553
1093.54639	0.06655
1091.61773	0.06782
1089.68908	0.06937
1087.76043	0.07110
1085.83177	0.07294
1083.90312	0.07471
1081.97447	0.07605
1080.04581	0.07674
1078.11716	0.07681
1076.18851	0.07632
1074.25985	0.07547
1072.33120	0.07469
1070.40255	0.07422
1068.47389	0.07395
1066.54524	0.07380
1064.61659	0.07377
1062.68793	0.07367
1060.75928	0.07331
1058.83063	0.07275
1056.90197	0.07217
1054.97332	0.07158
1053.04467	0.07095
1051.11601	0.07032
1049.18736	0.06965
1047.25871	0.06896
1045.33005	0.06842
1043.40140	0.06813
1041.47275	0.06808
1039.54410	0.06824
1037.61544	0.06866
1035.68679	0.06930
1033.75814	0.06993
1031.82948	0.07018
1029.90083	0.06981
1027.97218	0.06888
1026.04352	0.06762
1024.11487	0.06623
1022.18622	0.06486
1020.25756	0.06362
1018.32891	0.06267
1016.40026	0.06199
1014.47160	0.06131
1012.54295	0.06044
1010.61430	0.05947
1008.68564	0.05847
1006.75699	0.05747
1004.82834	0.05655
1002.89968	0.05567
1000.97103	0.05480
999.04238	0.05393
997.11372	0.05310
995.18507	0.05235
993.25642	0.05165
991.32776	0.05099
989.39911	0.05043
987.47046	0.04997
985.54180	0.04957
983.61315	0.04930
981.68450	0.04925
979.75584	0.04934
977.82719	0.04945
975.89854	0.04958
973.96989	0.04975
972.04123	0.04980
970.11258	0.04948
968.18393	0.04888
966.25527	0.04826
964.32662	0.04769
962.39797	0.04715
960.46931	0.04675
958.54066	0.04649
956.61201	0.04617
954.68335	0.04575
952.75470	0.04542
950.82605	0.04527
948.89739	0.04525
946.96874	0.04534
945.04009	0.04542
943.11143	0.04550
941.18278	0.04562
939.25413	0.04570
937.32547	0.04567
935.39682	0.04562
933.46817	0.04561
931.53951	0.04558
929.61086	0.04544
927.68221	0.04524
925.75355	0.04516
923.82490	0.04520
921.89625	0.04519
919.96759	0.04508
918.03894	0.04488
916.11029	0.04463
914.18163	0.04443
912.25298	0.04420
910.32433	0.04381
908.39567	0.04333
906.46702	0.04293
904.53837	0.04267
902.60972	0.04253
900.68106	0.04250
898.75241	0.04254
896.82376	0.04254
894.89510	0.04236
892.96645	0.04208
891.03780	0.04179
889.10914	0.04147
887.18049	0.04128
885.25184	0.04137
883.32318	0.04161
881.39453	0.04181
879.46588	0.04190
877.53722	0.04194
875.60857	0.04200
873.67992	0.04196
871.75126	0.04166
869.82261	0.04141
867.89396	0.04135
865.96530	0.04125
864.03665	0.04108
862.10800	0.04102
860.17934	0.04111
858.25069	0.04120
856.32204	0.04130
854.39338	0.04141
852.46473	0.04147
850.53608	0.04149
848.60742	0.04145
846.67877	0.04133
844.75012	0.04122
842.82146	0.04117
840.89281	0.04107
838.96416	0.04097
837.03551	0.04102
835.10685	0.04111
833.17820	0.04111
831.24955	0.04111
829.32089	0.04123
827.39224	0.04139
825.46359	0.04152
823.53493	0.04177
821.60628	0.04227
819.67763	0.04285
817.74897	0.04327
815.82032	0.04363
813.89167	0.04392
811.96301	0.04405
810.03436	0.04408
808.10571	0.04418
806.17705	0.04442
804.24840	0.04465
802.31975	0.04478
800.39109	0.04494
798.46244	0.04523
796.53379	0.04561
794.60513	0.04600
792.67648	0.04635
790.74783	0.04669
788.81917	0.04699
786.89052	0.04723
784.96187	0.04748
783.03321	0.04783
781.10456	0.04822
779.17591	0.04860
777.24725	0.04894
775.31860	0.04915
773.38995	0.04929
771.46130	0.04960
769.53264	0.05003
767.60399	0.05043
765.67534	0.05077
763.74668	0.05108
761.81803	0.05134
759.88938	0.05167
757.96072	0.05216
756.03207	0.05271
754.10342	0.05317
752.17476	0.05352
750.24611	0.05388
748.31746	0.05432
746.38880	0.05476
744.46015	0.05505
742.53150	0.05512
740.60284	0.05524
738.67419	0.05567
736.74554	0.05617
734.81688	0.05647
732.88823	0.05674
730.95958	0.05721
729.03092	0.05775
727.10227	0.05822
725.17362	0.05853
723.24496	0.05884
721.31631	0.05931
719.38766	0.05982
717.45900	0.06027
715.53035	0.06070
713.60170	0.06107
711.67304	0.06142
709.74439	0.06177
707.81574	0.06217
705.88708	0.06262
703.95843	0.06305
702.02978	0.06335
700.10113	0.06353
698.17247	0.06374
696.24382	0.06404
694.31517	0.06429
692.38651	0.06443
690.45786	0.06461
688.52921	0.06490
686.60055	0.06520
684.67190	0.06547
682.74325	0.06578
680.81459	0.06609
678.88594	0.06633
676.95729	0.06657
675.02863	0.06689
673.09998	0.06722
671.17133	0.06748
669.24267	0.06771
667.31402	0.06800
665.38537	0.06814
663.45671	0.06840
661.52806	0.06876
659.59941	0.06904
657.67075	0.06918
655.74210	0.06927
653.81345	0.06941
651.88479	0.06962
649.95614	0.06981
648.02749	0.06993
646.09883	0.06997
644.17018	0.06994
642.24153	0.06995
640.31287	0.07012
638.38422	0.07031
636.45557	0.07046
634.52692	0.07057
632.59826	0.07057
630.66961	0.07033
628.74096	0.06979
626.81230	0.06932
624.88365	0.06936
622.95500	0.07056
621.02634	0.07170
619.09769	0.07167
617.16904	0.07189
615.24038	0.07278
613.31173	0.07314
611.38308	0.07269
609.45442	0.07237
607.52577	0.07195
605.59712	0.07123
603.66846	0.07183
601.73981	0.07345
599.81116	0.07403
597.88250	0.07345
595.95385	0.07238
594.02520	0.07134
592.09654	0.07102
590.16789	0.07136
588.23924	0.07171
586.31058	0.07190
584.38193	0.07207
582.45328	0.07204
580.52462	0.07177
578.59597	0.07154
576.66732	0.07151
574.73866	0.07170
572.81001	0.07200
570.88136	0.07221
568.95270	0.07248
567.02405	0.07281
565.09540	0.07276
563.16675	0.07249
561.23809	0.07255
559.30944	0.07285
557.38079	0.07299
555.45213	0.07294
553.52348	0.07288
551.59483	0.07295
549.66617	0.07306
547.73752	0.07308
545.80887	0.07305
543.88021	0.07294
541.95156	0.07254
540.02291	0.07201
538.09425	0.07180
536.16560	0.07197
534.23695	0.07225
532.30829	0.07246
530.37964	0.07249
528.45099	0.07237
526.52233	0.07223
524.59368	0.07188
522.66503	0.07136
520.73637	0.07105
518.80772	0.07090
516.87907	0.07054
514.95041	0.07007
513.02176	0.06973
511.09311	0.06943
509.16445	0.06919
507.23580	0.06911
505.30715	0.06893
503.37849	0.06846
501.44984	0.06791
499.52119	0.06759
497.59254	0.06749
495.66388	0.06731
493.73523	0.06689
491.80658	0.06641
489.87792	0.06606
487.94927	0.06567
486.02062	0.06524
484.09196	0.06475
482.16331	0.06415
480.23466	0.06355
478.30600	0.06314
476.37735	0.06295
474.44870	0.06278
472.52004	0.06247
470.59139	0.06202
468.66274	0.06160
466.73408	0.06131
464.80543	0.06098
462.87678	0.06049
460.94812	0.05996
459.01947	0.05947
457.09082	0.05897
455.16216	0.05842
453.23351	0.05783
451.30486	0.05727
449.37620	0.05680
447.44755	0.05643
445.51890	0.05611
443.59024	0.05580
441.66159	0.05542
439.73294	0.05504
437.80428	0.05478
435.87563	0.05457
433.94698	0.05422
432.01833	0.05385
430.08967	0.05352
428.16102	0.05309
426.23237	0.05260
424.30371	0.05221
422.37506	0.05196
420.44641	0.05171
418.51775	0.05136
416.58910	0.05090
414.66045	0.05049
412.73179	0.05020
410.80314	0.04995
408.87449	0.04968
406.94583	0.04950
405.01718	0.04937
403.08853	0.04909
401.15987	0.04874
399.23122	0.04846
