3996.16951	0.05866
3994.24086	0.05838
3992.31220	0.05786
3990.38355	0.05762
3988.45490	0.05785
3986.52624	0.05812
3984.59759	0.05818
3982.66894	0.05817
3980.74028	0.05833
3978.81163	0.05865
3976.88298	0.05874
3974.95432	0.05836
3973.02567	0.05768
3971.09702	0.05707
3969.16836	0.05693
3967.23971	0.05736
3965.31106	0.05783
3963.38240	0.05787
3961.45375	0.05758
3959.52510	0.05744
3957.59645	0.05778
3955.66779	0.05825
3953.73914	0.05828
3951.81049	0.05807
3949.88183	0.05793
3947.95318	0.05754
3946.02453	0.05690
3944.09587	0.05651
3942.16722	0.05632
3940.23857	0.05608
3938.30991	0.05583
3936.38126	0.05558
3934.45261	0.05545
3932.52395	0.05560
3930.59530	0.05587
3928.66665	0.05603
3926.73799	0.05604
3924.80934	0.05584
3922.88069	0.05533
3920.95203	0.05505
3919.02338	0.05522
3917.09473	0.05539
3915.16607	0.05526
3913.23742	0.05522
3911.30877	0.05516
3909.38011	0.05495
3907.45146	0.05497
3905.52281	0.05526
3903.59415	0.05531
3901.66550	0.05531
3899.73685	0.05544
3897.80819	0.05519
3895.87954	0.05491
3893.95089	0.05514
3892.02224	0.05536
3890.09358	0.05466
3888.16493	0.05394
3886.23628	0.05398
3884.30762	0.05358
3882.37897	0.05326
3880.45032	0.05338
3878.52166	0.05326
3876.59301	0.05351
3874.66436	0.05399
3872.73570	0.05417
3870.80705	0.05466
3868.87840	0.05463
3866.94974	0.05429
3865.02109	0.05431
3863.09244	0.05400
3861.16378	0.05349
3859.23513	0.05273
3857.30648	0.05240
3855.37782	0.05359
3853.44917	0.05432
3851.52052	0.05339
3849.59186	0.05302
3847.66321	0.05329
3845.73456	0.05297
3843.80590	0.05211
3841.87725	0.05123
3839.94860	0.05113
3838.01994	0.05166
3836.09129	0.05172
3834.16264	0.05176
3832.23398	0.05165
3830.30533	0.05093
3828.37668	0.05062
3826.44803	0.05092
3824.51937	0.05109
3822.59072	0.05160
3820.66207	0.05165
3818.73341	0.05116
3816.80476	0.05143
3814.87611	0.05095
3812.94745	0.05022
3811.01880	0.05040
3809.09015	0.05093
3807.16149	0.05135
3805.23284	0.05072
3803.30419	0.05036
3801.37553	0.05052
3799.44688	0.04993
3797.51823	0.04959
3795.58957	0.04922
3793.66092	0.04895
3791.73227	0.04973
3789.80361	0.05070
3787.87496	0.05098
3785.94631	0.05084
3784.01765	0.05044
3782.08900	0.04992
3780.16035	0.04977
3778.23169	0.04945
3776.30304	0.04880
3774.37439	0.04864
3772.44573	0.04921
3770.51708	0.04958
3768.58843	0.04911
3766.65977	0.04886
3764.73112	0.04880
3762.80247	0.04833
3760.87381	0.04810
3758.94516	0.04818
3757.01651	0.04833
3755.08786	0.04840
3753.15920	0.04877
3751.23055	0.04896
3749.30190	0.04827
3747.37324	0.04738
3745.44459	0.04792
3743.51594	0.04755
3741.58728	0.04635
3739.65863	0.04655
3737.72998	0.04734
3735.80132	0.04765
3733.87267	0.04709
3731.94402	0.04624
3730.01536	0.04534
3728.08671	0.04559
3726.15806	0.04674
3724.22940	0.04747
3722.30075	0.04734
3720.37210	0.04662
3718.44344	0.04622
3716.51479	0.04613
3714.58614	0.04594
3712.65748	0.04563
3710.72883	0.04521
3708.80018	0.04505
3706.87152	0.04521
3704.94287	0.04577
3703.01422	0.04649
3701.08556	0.04635
3699.15691	0.04544
3697.22826	0.04496
3695.29960	0.04495
3693.37095	0.04508
3691.44230	0.04538
3689.51365	0.04586
3687.58499	0.04575
3685.65634	0.04537
3683.72769	0.04575
3681.79903	0.04615
3679.87038	0.04604
3677.94173	0.04604
3676.01307	0.04641
3674.08442	0.04577
3672.15577	0.04559
3670.22711	0.04620
3668.29846	0.04608
3666.36981	0.04598
3664.44115	0.04607
3662.51250	0.04630
3660.58385	0.04689
3658.65519	0.04777
3656.72654	0.04837
3654.79789	0.04789
3652.86923	0.04746
3650.94058	0.04814
3649.01193	0.04888
3647.08327	0.04912
3645.15462	0.04962
3643.22597	0.05049
3641.29731	0.05121
3639.36866	0.05166
3637.44001	0.05201
3635.51135	0.05224
3633.58270	0.05208
3631.65405	0.05204
3629.72539	0.05306
3627.79674	0.05365
3625.86809	0.05343
3623.93943	0.05346
3622.01078	0.05409
3620.08213	0.05507
3618.15348	0.05572
3616.22482	0.05629
3614.29617	0.05706
3612.36752	0.05754
3610.43886	0.05778
3608.51021	0.05800
3606.58156	0.05813
3604.65290	0.05858
3602.72425	0.05946
3600.79560	0.06053
3598.86694	0.06145
3596.93829	0.06227
3595.00964	0.06318
3593.08098	0.06412
3591.15233	0.06475
3589.22368	0.06474
3587.29502	0.06442
3585.36637	0.06487
3583.43772	0.06629
3581.50906	0.06746
3579.58041	0.06803
3577.65176	0.06866
3575.72310	0.06935
3573.79445	0.06985
3571.86580	0.07032
3569.93714	0.07098
3568.00849	0.07184
3566.07984	0.07266
3564.15118	0.07357
3562.22253	0.07464
3560.29388	0.07560
3558.36522	0.07639
3556.43657	0.07708
3554.50792	0.07770
3552.57927	0.07803
3550.65061	0.07825
3548.72196	0.07914
3546.79331	0.08035
3544.86465	0.08104
3542.93600	0.08174
3541.00735	0.08269
3539.07869	0.08342
3537.15004	0.08395
3535.22139	0.08445
3533.29273	0.08502
3531.36408	0.08581
3529.43543	0.08668
3527.50677	0.08770
3525.57812	0.08893
3523.64947	0.08966
3521.72081	0.08974
3519.79216	0.09013
3517.86351	0.09128
3515.93485	0.09251
3514.00620	0.09316
3512.07755	0.09351
3510.14889	0.09420
3508.22024	0.09495
3506.29159	0.09546
3504.36293	0.09615
3502.43428	0.09693
3500.50563	0.09749
3498.57697	0.09802
3496.64832	0.09851
3494.71967	0.09877
3492.79101	0.09913
3490.86236	0.09990
3488.93371	0.10084
3487.00506	0.10154
3485.07640	0.10211
3483.14775	0.10272
3481.21910	0.10319
3479.29044	0.10342
3477.36179	0.10378
3475.43314	0.10437
3473.50448	0.10483
3471.57583	0.10503
3469.64718	0.10546
3467.71852	0.10631
3465.78987	0.10725
3463.86122	0.10793
3461.93256	0.10826
3460.00391	0.10853
3458.07526	0.10917
3456.14660	0.10991
3454.21795	0.11029
3452.28930	0.11054
3450.36064	0.11096
3448.43199	0.11155
3446.50334	0.11212
3444.57468	0.11254
3442.64603	0.11289
3440.71738	0.11320
3438.78872	0.11354
3436.86007	0.11410
3434.93142	0.11492
3433.00276	0.11588
3431.07411	0.11678
3429.14546	0.11729
3427.21680	0.11734
3425.28815	0.11741
3423.35950	0.11795
3421.43084	0.11894
3419.50219	0.11980
3417.57354	0.12030
3415.64489	0.12103
3413.71623	0.12196
3411.78758	0.12240
3409.85893	0.12251
3407.93027	0.12283
3406.00162	0.12337
3404.07297	0.12388
3402.14431	0.12417
3400.21566	0.12450
3398.28701	0.12524
3396.35835	0.12620
3394.42970	0.12695
3392.50105	0.12736
3390.57239	0.12758
3388.64374	0.12790
3386.71509	0.12838
3384.78643	0.12862
3382.85778	0.12863
3380.92913	0.12892
3379.00047	0.12963
3377.07182	0.13044
3375.14317	0.13127
3373.21451	0.13211
3371.28586	0.13298
3369.35721	0.13405
3367.42855	0.13524
3365.49990	0.13620
3363.57125	0.13683
3361.64259	0.13763
3359.71394	0.13876
3357.78529	0.13985
3355.85663	0.14082
3353.92798	0.14183
3351.99933	0.14297
3350.07068	0.14425
3348.14202	0.14536
3346.21337	0.14604
3344.28472	0.14661
3342.35606	0.14767
3340.42741	0.14917
3338.49876	0.15044
3336.57010	0.15134
3334.64145	0.15224
3332.71280	0.15326
3330.78414	0.15432
3328.85549	0.15526
3326.92684	0.15596
3324.99818	0.15656
3323.06953	0.15738
3321.14088	0.15827
3319.21222	0.15884
3317.28357	0.15913
3315.35492	0.15949
3313.42626	0.16007
3311.49761	0.16075
3309.56896	0.16146
3307.64030	0.16199
3305.71165	0.16219
3303.78300	0.16223
3301.85434	0.16235
3299.92569	0.16254
3297.99704	0.16267
3296.06838	0.16269
3294.13973	0.16261
3292.21108	0.16241
3290.28242	0.16222
3288.35377	0.16225
3286.42512	0.16238
3284.49646	0.16241
3282.56781	0.16244
3280.63916	0.16257
3278.71051	0.16276
3276.78185	0.16283
3274.85320	0.16240
3272.92455	0.16143
3270.99589	0.16051
3269.06724	0.16002
3267.13859	0.15979
3265.20993	0.15943
3263.28128	0.15880
3261.35263	0.15805
3259.42397	0.15741
3257.49532	0.15670
3255.56667	0.15576
3253.63801	0.15492
3251.70936	0.15440
3249.78071	0.15394
3247.85205	0.15335
3245.92340	0.15262
3243.99475	0.15177
3242.06609	0.15114
3240.13744	0.15100
3238.20879	0.15099
3236.28013	0.15061
3234.35148	0.14981
3232.42283	0.14882
3230.49417	0.14796
3228.56552	0.14758
3226.63687	0.14754
3224.70821	0.14732
3222.77956	0.14691
3220.85091	0.14655
3218.92225	0.14614
3216.99360	0.14565
3215.06495	0.14520
3213.13630	0.14472
3211.20764	0.14417
3209.27899	0.14359
3207.35034	0.14299
3205.42168	0.14247
3203.49303	0.14217
3201.56438	0.14196
3199.63572	0.14146
3197.70707	0.14057
3195.77842	0.13961
3193.84976	0.13877
3191.92111	0.13824
3189.99246	0.13814
3188.06380	0.13809
3186.13515	0.13760
3184.20650	0.13654
3182.27784	0.13543
3180.34919	0.13459
3178.42054	0.13371
3176.49188	0.13258
3174.56323	0.13148
3172.63458	0.13055
3170.70592	0.12959
3168.77727	0.12871
3166.84862	0.12815
3164.91996	0.12758
3162.99131	0.12662
3161.06266	0.12548
3159.13400	0.12444
3157.20535	0.12345
3155.27670	0.12252
3153.34804	0.12183
3151.41939	0.12130
3149.49074	0.12056
3147.56209	0.11954
3145.63343	0.11854
3143.70478	0.11777
3141.77613	0.11733
3139.84747	0.11709
3137.91882	0.11671
3135.99017	0.11607
3134.06151	0.11527
3132.13286	0.11444
3130.20421	0.11371
3128.27555	0.11304
3126.34690	0.11254
3124.41825	0.11235
3122.48959	0.11210
3120.56094	0.11170
3118.63229	0.11157
3116.70363	0.11163
3114.77498	0.11141
3112.84633	0.11110
3110.91767	0.11118
3108.98902	0.11138
3107.06037	0.11130
3105.13171	0.11117
3103.20306	0.11122
3101.27441	0.11141
3099.34575	0.11172
3097.41710	0.11195
3095.48845	0.11192
3093.55979	0.11198
3091.63114	0.11248
3089.70249	0.11308
3087.77383	0.11332
3085.84518	0.11335
3083.91653	0.11361
3081.98787	0.11400
3080.05922	0.11414
3078.13057	0.11408
3076.20192	0.11415
3074.27326	0.11425
3072.34461	0.11408
3070.41596	0.11385
3068.48730	0.11385
3066.55865	0.11381
3064.63000	0.11343
3062.70134	0.11287
3060.77269	0.11236
3058.84404	0.11202
3056.91538	0.11176
3054.98673	0.11120
3053.05808	0.11034
3051.12942	0.10955
3049.20077	0.10881
3047.27212	0.10788
3045.34346	0.10683
3043.41481	0.10603
3041.48616	0.10552
3039.55750	0.10492
3037.62885	0.10407
3035.70020	0.10316
3033.77154	0.10248
3031.84289	0.10187
3029.91424	0.10110
3027.98558	0.10037
3026.05693	0.09983
3024.12828	0.09926
3022.19962	0.09850
3020.27097	0.09775
3018.34232	0.09714
3016.41366	0.09662
3014.48501	0.09621
3012.55636	0.09590
3010.62771	0.09553
3008.69905	0.09516
3006.77040	0.09492
3004.84175	0.09479
3002.91309	0.09469
3000.98444	0.09469
2999.05579	0.09488
2997.12713	0.09514
2995.19848	0.09533
2993.26983	0.09550
2991.34117	0.09572
2989.41252	0.09606
2987.48387	0.09657
2985.55521	0.09720
2983.62656	0.09793
2981.69791	0.09866
2979.76925	0.09930
2977.84060	0.09982
2975.91195	0.10032
2973.98329	0.10077
2972.05464	0.10111
2970.12599	0.10152
2968.19733	0.10217
2966.26868	0.10291
2964.34003	0.10361
2962.41137	0.10427
2960.48272	0.10470
2958.55407	0.10495
2956.62541	0.10527
2954.69676	0.10552
2952.76811	0.10551
2950.83945	0.10549
2948.91080	0.10563
2946.98215	0.10577
2945.05349	0.10572
2943.12484	0.10568
2941.19619	0.10595
2939.26754	0.10655
2937.33888	0.10704
2935.41023	0.10700
2933.48158	0.10669
2931.55292	0.10654
2929.62427	0.10661
2927.69562	0.10685
2925.76696	0.10695
2923.83831	0.10661
2921.90966	0.10597
2919.98100	0.10527
2918.05235	0.10461
2916.12370	0.10375
2914.19504	0.10246
2912.26639	0.10102
2910.33774	0.09972
2908.40908	0.09856
2906.48043	0.09761
2904.55178	0.09684
2902.62312	0.09610
2900.69447	0.09539
2898.76582	0.09482
2896.83716	0.09444
2894.90851	0.09400
2892.97986	0.09335
2891.05120	0.09287
2889.12255	0.09285
2887.19390	0.09307
2885.26524	0.09312
2883.33659	0.09289
2881.40794	0.09268
2879.47928	0.09281
2877.55063	0.09293
2875.62198	0.09266
2873.69333	0.09231
2871.76467	0.09209
2869.83602	0.09179
2867.90737	0.09120
2865.97871	0.09025
2864.05006	0.08914
2862.12141	0.08812
2860.19275	0.08737
2858.26410	0.08683
2856.33545	0.08650
2854.40679	0.08635
2852.47814	0.08614
2850.54949	0.08561
2848.62083	0.08487
2846.69218	0.08414
2844.76353	0.08345
2842.83487	0.08268
2840.90622	0.08180
2838.97757	0.08098
2837.04891	0.08034
2835.12026	0.07993
2833.19161	0.07972
2831.26295	0.07952
2829.33430	0.07902
2827.40565	0.07829
2825.47699	0.07766
2823.54834	0.07721
2821.61969	0.07682
2819.69103	0.07656
2817.76238	0.07639
2815.83373	0.07618
2813.90507	0.07591
2811.97642	0.07571
2810.04777	0.07551
2808.11912	0.07506
2806.19046	0.07456
2804.26181	0.07438
2802.33316	0.07432
2800.40450	0.07413
2798.47585	0.07389
2796.54720	0.07347
2794.61854	0.07281
2792.68989	0.07228
2790.76124	0.07202
2788.83258	0.07187
2786.90393	0.07175
2784.97528	0.07166
2783.04662	0.07151
2781.11797	0.07117
2779.18932	0.07078
2777.26066	0.07062
2775.33201	0.07057
2773.40336	0.07036
2771.47470	0.06997
2769.54605	0.06961
2767.61740	0.06934
2765.68874	0.06913
2763.76009	0.06892
2761.83144	0.06864
2759.90278	0.06837
2757.97413	0.06809
2756.04548	0.06770
2754.11682	0.06738
2752.18817	0.06731
2750.25952	0.06733
2748.33086	0.06722
2746.40221	0.06693
2744.47356	0.06656
2742.54490	0.06623
2740.61625	0.06597
2738.68760	0.06583
2736.75895	0.06577
2734.83029	0.06556
2732.90164	0.06523
2730.97299	0.06490
2729.04433	0.06458
2727.11568	0.06439
2725.18703	0.06438
2723.25837	0.06441
2721.32972	0.06441
2719.40107	0.06426
2717.47241	0.06376
2715.54376	0.06320
2713.61511	0.06299
2711.68645	0.06296
2709.75780	0.06285
2707.82915	0.06264
2705.90049	0.06226
2703.97184	0.06185
2702.04319	0.06164
2700.11453	0.06167
2698.18588	0.06163
2696.25723	0.06136
2694.32857	0.06093
2692.39992	0.06060
2690.47127	0.06056
2688.54261	0.06062
2686.61396	0.06056
2684.68531	0.06048
2682.75665	0.06050
2680.82800	0.06052
2678.89935	0.06047
2676.97069	0.06032
2675.04204	0.06003
2673.11339	0.05974
2671.18474	0.05956
2669.25608	0.05945
2667.32743	0.05936
2665.39878	0.05933
2663.47012	0.05938
2661.54147	0.05941
2659.61282	0.05919
2657.68416	0.05874
2655.75551	0.05823
2653.82686	0.05784
2651.89820	0.05763
2649.96955	0.05747
2648.04090	0.05723
2646.11224	0.05691
2644.18359	0.05652
2642.25494	0.05610
2640.32628	0.05589
2638.39763	0.05577
2636.46898	0.05544
2634.54032	0.05500
2632.61167	0.05462
2630.68302	0.05437
2628.75436	0.05421
2626.82571	0.05403
2624.89706	0.05379
2622.96840	0.05342
2621.03975	0.05295
2619.11110	0.05245
2617.18244	0.05197
2615.25379	0.05173
2613.32514	0.05168
2611.39648	0.05147
2609.46783	0.05111
2607.53918	0.05083
2605.61052	0.05066
2603.68187	0.05057
2601.75322	0.05052
2599.82457	0.05039
2597.89591	0.05016
2595.96726	0.04997
2594.03861	0.04994
2592.10995	0.04985
2590.18130	0.04950
2588.25265	0.04899
2586.32399	0.04853
2584.39534	0.04831
2582.46669	0.04824
2580.53803	0.04806
2578.60938	0.04793
2576.68073	0.04798
2574.75207	0.04790
2572.82342	0.04769
2570.89477	0.04759
2568.96611	0.04743
2567.03746	0.04707
2565.10881	0.04678
2563.18015	0.04661
2561.25150	0.04632
2559.32285	0.04598
2557.39419	0.04597
2555.46554	0.04622
2553.53689	0.04625
2551.60823	0.04598
2549.67958	0.04565
2547.75093	0.04540
2545.82227	0.04528
2543.89362	0.04529
2541.96497	0.04517
2540.03631	0.04486
2538.10766	0.04471
2536.17901	0.04475
2534.25036	0.04450
2532.32170	0.04398
2530.39305	0.04386
2528.46440	0.04424
2526.53574	0.04442
2524.60709	0.04408
2522.67844	0.04366
2520.74978	0.04336
2518.82113	0.04305
2516.89248	0.04275
2514.96382	0.04239
2513.03517	0.04205
2511.10652	0.04213
2509.17786	0.04262
2507.24921	0.04301
2505.32056	0.04300
2503.39190	0.04284
2501.46325	0.04276
2499.53460	0.04240
2497.60594	0.04178
2495.67729	0.04155
2493.74864	0.04192
2491.81998	0.04236
2489.89133	0.04237
2487.96268	0.04196
2486.03402	0.04152
2484.10537	0.04120
2482.17672	0.04104
2480.24806	0.04107
2478.31941	0.04103
2476.39076	0.04087
2474.46210	0.04080
2472.53345	0.04079
2470.60480	0.04088
2468.67615	0.04106
2466.74749	0.04098
2464.81884	0.04079
2462.89019	0.04089
2460.96153	0.04107
2459.03288	0.04088
2457.10423	0.04036
2455.17557	0.03983
2453.24692	0.03939
2451.31827	0.03918
2449.38961	0.03935
2447.46096	0.03950
2445.53231	0.03929
2443.60365	0.03907
2441.67500	0.03910
2439.74635	0.03918
2437.81769	0.03914
2435.88904	0.03916
2433.96039	0.03929
2432.03173	0.03923
2430.10308	0.03899
2428.17443	0.03880
2426.24577	0.03870
2424.31712	0.03873
2422.38847	0.03876
2420.45981	0.03869
2418.53116	0.03876
2416.60251	0.03902
2414.67385	0.03902
2412.74520	0.03883
2410.81655	0.03884
2408.88789	0.03906
2406.95924	0.03921
2405.03059	0.03902
2403.10193	0.03869
2401.17328	0.03864
2399.24463	0.03861
2397.31598	0.03845
2395.38732	0.03838
2393.45867	0.03869
2391.53002	0.03908
2389.60136	0.03917
2387.67271	0.03904
2385.74406	0.03895
2383.81540	0.03885
2381.88675	0.03869
2379.95810	0.03883
2378.02944	0.03931
2376.10079	0.03965
2374.17214	0.03963
2372.24348	0.03943
2370.31483	0.03918
2368.38618	0.03956
2366.45752	0.03978
2364.52887	0.03973
2362.60022	0.03935
2360.67156	0.03983
2358.74291	0.03931
2356.81426	0.04024
2354.88560	0.04008
2352.95695	0.03959
2351.02830	0.03971
2349.09964	0.03972
2347.17099	0.03985
2345.24234	0.04026
2343.31368	0.04018
2341.38503	0.03934
2339.45638	0.03899
2337.52772	0.03906
2335.59907	0.03940
2333.67042	0.03972
2331.74177	0.03984
2329.81311	0.03987
2327.88446	0.03992
2325.95581	0.03984
2324.02715	0.03955
2322.09850	0.03921
2320.16985	0.03903
2318.24119	0.03875
2316.31254	0.03817
2314.38389	0.03755
2312.45523	0.03718
2310.52658	0.03704
2308.59793	0.03691
2306.66927	0.03667
2304.74062	0.03642
2302.81197	0.03615
2300.88331	0.03578
2298.95466	0.03550
2297.02601	0.03536
2295.09735	0.03524
2293.16870	0.03495
2291.24005	0.03455
2289.31139	0.03409
2287.38274	0.03347
2285.45409	0.03277
2283.52543	0.03245
2281.59678	0.03267
2279.66813	0.03270
2277.73947	0.03209
2275.81082	0.03144
2273.88217	0.03111
2271.95351	0.03094
2270.02486	0.03096
2268.09621	0.03089
2266.16755	0.03043
2264.23890	0.03009
2262.31025	0.03044
2260.38160	0.03082
2258.45294	0.03033
2256.52429	0.02944
2254.59564	0.02881
2252.66698	0.02834
2250.73833	0.02815
2248.80968	0.02824
2246.88102	0.02776
2244.95237	0.02703
2243.02372	0.02665
2241.09506	0.02651
2239.16641	0.02657
2237.23776	0.02683
2235.30910	0.02693
2233.38045	0.02683
2231.45180	0.02673
2229.52314	0.02674
2227.59449	0.02683
2225.66584	0.02684
2223.73718	0.02658
2221.80853	0.02588
2219.87988	0.02509
2217.95122	0.02485
2216.02257	0.02493
2214.09392	0.02470
2212.16526	0.02407
2210.23661	0.02352
2208.30796	0.02387
2206.37930	0.02425
2204.45065	0.02296
2202.52200	0.02114
2200.59334	0.02066
2198.66469	0.02105
2196.73604	0.02154
2194.80739	0.02190
2192.87873	0.02174
2190.95008	0.02135
2189.02143	0.02130
2187.09277	0.02127
2185.16412	0.02054
2183.23547	0.01969
2181.30681	0.01989
2179.37816	0.02049
2177.44951	0.02037
2175.52085	0.01920
2173.59220	0.01740
2171.66355	0.01639
2169.73489	0.01674
2167.80624	0.01731
2165.87759	0.01697
2163.94893	0.01576
2162.02028	0.01434
2160.09163	0.01314
2158.16297	0.01313
2156.23432	0.01475
2154.30567	0.01632
2152.37701	0.01676
2150.44836	0.01719
2148.51971	0.01829
2146.59105	0.01924
2144.66240	0.01982
2142.73375	0.02065
2140.80509	0.02173
2138.87644	0.02246
2136.94779	0.02276
2135.01913	0.02273
2133.09048	0.02246
2131.16183	0.02272
2129.23318	0.02353
2127.30452	0.02427
2125.37587	0.02497
2123.44722	0.02542
2121.51856	0.02507
2119.58991	0.02446
2117.66126	0.02432
2115.73260	0.02446
2113.80395	0.02468
2111.87530	0.02489
2109.94664	0.02479
2108.01799	0.02451
2106.08934	0.02431
2104.16068	0.02412
2102.23203	0.02379
2100.30338	0.02353
2098.37472	0.02349
2096.44607	0.02377
2094.51742	0.02403
2092.58876	0.02392
2090.66011	0.02381
2088.73146	0.02426
2086.80280	0.02470
2084.87415	0.02427
2082.94550	0.02329
2081.01684	0.02252
2079.08819	0.02196
2077.15954	0.02139
2075.23088	0.02102
2073.30223	0.02104
2071.37358	0.02099
2069.44492	0.02056
2067.51627	0.02012
2065.58762	0.01970
2063.65896	0.01920
2061.73031	0.01921
2059.80166	0.01980
2057.87301	0.02022
2055.94435	0.02001
2054.01570	0.01947
2052.08705	0.01899
2050.15839	0.01821
2048.22974	0.01725
2046.30109	0.01696
2044.37243	0.01699
2042.44378	0.01661
2040.51513	0.01607
2038.58647	0.01536
2036.65782	0.01456
2034.72917	0.01426
2032.80051	0.01449
2030.87186	0.01470
2028.94321	0.01463
2027.01455	0.01444
2025.08590	0.01412
2023.15725	0.01340
2021.22859	0.01284
2019.29994	0.01350
2017.37129	0.01500
2015.44263	0.01622
2013.51398	0.01692
2011.58533	0.01698
2009.65667	0.01618
2007.72802	0.01481
2005.79937	0.01373
2003.87071	0.01391
2001.94206	0.01528
2000.01341	0.01655
1998.08475	0.01687
1996.15610	0.01655
1994.22745	0.01644
1992.29880	0.01683
1990.37014	0.01704
1988.44149	0.01675
1986.51284	0.01669
1984.58418	0.01736
1982.65553	0.01774
1980.72688	0.01652
1978.79822	0.01454
1976.86957	0.01368
1974.94092	0.01364
1973.01226	0.01328
1971.08361	0.01312
1969.15496	0.01382
1967.22630	0.01488
1965.29765	0.01570
1963.36900	0.01644
1961.44034	0.01732
1959.51169	0.01789
1957.58304	0.01779
1955.65438	0.01736
1953.72573	0.01679
1951.79708	0.01622
1949.86842	0.01635
1947.93977	0.01745
1946.01112	0.01859
1944.08246	0.01910
1942.15381	0.01929
1940.22516	0.01955
1938.29650	0.01992
1936.36785	0.02018
1934.43920	0.02020
1932.51054	0.02005
1930.58189	0.01972
1928.65324	0.01919
1926.72458	0.01872
1924.79593	0.01874
1922.86728	0.01944
1920.93863	0.02023
1919.00997	0.02050
1917.08132	0.02025
1915.15267	0.01983
1913.22401	0.01968
1911.29536	0.01981
1909.36671	0.01982
1907.43805	0.01977
1905.50940	0.02003
1903.58075	0.02034
1901.65209	0.02035
1899.72344	0.02023
1897.79479	0.02015
1895.86613	0.02008
1893.93748	0.01993
1892.00883	0.01992
1890.08017	0.02025
1888.15152	0.02050
1886.22287	0.02038
1884.29421	0.02012
1882.36556	0.01991
1880.43691	0.01997
1878.50825	0.02028
1876.57960	0.02042
1874.65095	0.02022
1872.72229	0.01997
1870.79364	0.01989
1868.86499	0.01988
1866.93633	0.01985
1865.00768	0.01979
1863.07903	0.01969
1861.15037	0.01980
1859.22172	0.02015
1857.29307	0.02044
1855.36442	0.02045
1853.43576	0.02008
1851.50711	0.01946
1849.57846	0.01900
1847.64980	0.01899
1845.72115	0.01943
1843.79250	0.01988
1841.86384	0.01992
1839.93519	0.01977
1838.00654	0.01958
1836.07788	0.01945
1834.14923	0.01943
1832.22058	0.01954
1830.29192	0.01965
1828.36327	0.01950
1826.43462	0.01946
1824.50596	0.01954
1822.57731	0.01942
1820.64866	0.01920
1818.72000	0.01907
1816.79135	0.01915
1814.86270	0.01931
1812.93404	0.01937
1811.00539	0.01930
1809.07674	0.01917
1807.14808	0.01908
1805.21943	0.01910
1803.29078	0.01920
1801.36212	0.01922
1799.43347	0.01913
1797.50482	0.01907
1795.57616	0.01910
1793.64751	0.01920
1791.71886	0.01917
1789.79021	0.01899
1787.86155	0.01894
1785.93290	0.01892
1784.00425	0.01879
1782.07559	0.01869
1780.14694	0.01869
1778.21829	0.01857
1776.28963	0.01838
1774.36098	0.01841
1772.43233	0.01854
1770.50367	0.01843
1768.57502	0.01835
1766.64637	0.01823
1764.71771	0.01822
1762.78906	0.01853
1760.86041	0.01866
1758.93175	0.01868
1757.00310	0.01890
1755.07445	0.01900
1753.14579	0.01910
1751.21714	0.01932
1749.28849	0.01959
1747.35983	0.02005
1745.43118	0.02048
1743.50253	0.02081
1741.57387	0.02127
1739.64522	0.02172
1737.71657	0.02194
1735.78791	0.02259
1733.85926	0.02342
1731.93061	0.02366
1730.00195	0.02397
1728.07330	0.02453
1726.14465	0.02508
1724.21599	0.02556
1722.28734	0.02587
1720.35869	0.02631
1718.43004	0.02716
1716.50138	0.02792
1714.57273	0.02871
1712.64408	0.02988
1710.71542	0.03126
1708.78677	0.03291
1706.85812	0.03507
1704.92946	0.03757
1703.00081	0.04038
1701.07216	0.04391
1699.14350	0.04728
1697.21485	0.05090
1695.28620	0.05487
1693.35754	0.05833
1691.42889	0.06196
1689.50024	0.06562
1687.57158	0.06921
1685.64293	0.07346
1683.71428	0.07776
1681.78562	0.08186
1679.85697	0.08651
1677.92832	0.09155
1675.99966	0.09693
1674.07101	0.10220
1672.14236	0.10753
1670.21370	0.11333
1668.28505	0.11903
1666.35640	0.12446
1664.42774	0.12997
1662.49909	0.13533
1660.57044	0.14023
1658.64178	0.14473
1656.71313	0.14882
1654.78448	0.15304
1652.85583	0.15685
1650.92717	0.15928
1648.99852	0.16178
1647.06987	0.16472
1645.14121	0.16719
1643.21256	0.16935
1641.28391	0.17155
1639.35525	0.17352
1637.42660	0.17546
1635.49795	0.17725
1633.56929	0.17827
1631.64064	0.17892
1629.71199	0.17920
1627.78333	0.17857
1625.85468	0.17687
1623.92603	0.17432
1621.99737	0.17077
1620.06872	0.16645
1618.14007	0.16197
1616.21141	0.15704
1614.28276	0.15160
1612.35411	0.14636
1610.42545	0.14118
1608.49680	0.13591
1606.56815	0.13073
1604.63949	0.12579
1602.71084	0.12119
1600.78219	0.11695
1598.85353	0.11311
1596.92488	0.10972
1594.99623	0.10672
1593.06757	0.10403
1591.13892	0.10176
1589.21027	0.10003
1587.28161	0.09879
1585.35296	0.09798
1583.42431	0.09757
1581.49566	0.09758
1579.56700	0.09802
1577.63835	0.09920
1575.70970	0.10079
1573.78104	0.10237
1571.85239	0.10470
1569.92374	0.10771
1567.99508	0.11080
1566.06643	0.11407
1564.13778	0.11736
1562.20912	0.12070
1560.28047	0.12455
1558.35182	0.12808
1556.42316	0.13106
1554.49451	0.13418
1552.56586	0.13689
1550.63720	0.13907
1548.70855	0.14089
1546.77990	0.14249
1544.85124	0.14386
1542.92259	0.14485
1540.99394	0.14569
1539.06528	0.14614
1537.13663	0.14601
1535.20798	0.14602
1533.27932	0.14600
1531.35067	0.14554
1529.42202	0.14501
1527.49336	0.14440
1525.56471	0.14341
1523.63606	0.14220
1521.70740	0.14110
1519.77875	0.13976
1517.85010	0.13835
1515.92145	0.13674
1513.99279	0.13460
1512.06414	0.13199
1510.13549	0.12895
1508.20683	0.12592
1506.27818	0.12268
1504.34953	0.11882
1502.42087	0.11506
1500.49222	0.11151
1498.56357	0.10784
1496.63491	0.10407
1494.70626	0.10011
1492.77761	0.09631
1490.84895	0.09294
1488.92030	0.08979
1486.99165	0.08706
1485.06299	0.08494
1483.13434	0.08340
1481.20569	0.08238
1479.27703	0.08187
1477.34838	0.08199
1475.41973	0.08272
1473.49107	0.08403
1471.56242	0.08550
1469.63377	0.08706
1467.70511	0.08898
1465.77646	0.09108
1463.84781	0.09304
1461.91915	0.09500
1459.99050	0.09725
1458.06185	0.09983
1456.13319	0.10196
1454.20454	0.10341
1452.27589	0.10469
1450.34724	0.10552
1448.41858	0.10567
1446.48993	0.10525
1444.56128	0.10455
1442.63262	0.10368
1440.70397	0.10254
1438.77532	0.10130
1436.84666	0.09983
1434.91801	0.09776
1432.98936	0.09560
1431.06070	0.09382
1429.13205	0.09232
1427.20340	0.09113
1425.27474	0.09032
1423.34609	0.08969
1421.41744	0.08926
1419.48878	0.08909
1417.56013	0.08884
1415.63148	0.08880
1413.70282	0.08907
1411.77417	0.08944
1409.84552	0.08989
1407.91686	0.09049
1405.98821	0.09115
1404.05956	0.09159
1402.13090	0.09173
1400.20225	0.09179
1398.27360	0.09171
1396.34494	0.09151
1394.41629	0.09127
1392.48764	0.09089
1390.55898	0.09055
1388.63033	0.09030
1386.70168	0.08998
1384.77302	0.08955
1382.84437	0.08912
1380.91572	0.08867
1378.98707	0.08816
1377.05841	0.08750
1375.12976	0.08665
1373.20111	0.08557
1371.27245	0.08429
1369.34380	0.08290
1367.41515	0.08141
1365.48649	0.07990
1363.55784	0.07855
1361.62919	0.07742
1359.70053	0.07654
1357.77188	0.07597
1355.84323	0.07578
1353.91457	0.07597
1351.98592	0.07647
1350.05727	0.07722
1348.12861	0.07819
1346.19996	0.07930
1344.27131	0.08045
1342.34265	0.08158
1340.41400	0.08259
1338.48535	0.08328
1336.55669	0.08360
1334.62804	0.08358
1332.69939	0.08312
1330.77073	0.08222
1328.84208	0.08116
1326.91343	0.08015
1324.98477	0.07921
1323.05612	0.07837
1321.12747	0.07778
1319.19881	0.07745
1317.27016	0.07719
1315.34151	0.07684
1313.41286	0.07632
1311.48420	0.07570
1309.55555	0.07514
1307.62690	0.07467
1305.69824	0.07423
1303.76959	0.07384
1301.84094	0.07344
1299.91228	0.07299
1297.98363	0.07263
1296.05498	0.07250
1294.12632	0.07266
1292.19767	0.07306
1290.26902	0.07358
1288.34036	0.07427
1286.41171	0.07513
1284.48306	0.07603
1282.55440	0.07678
1280.62575	0.07728
1278.69710	0.07753
1276.76844	0.07761
1274.83979	0.07762
1272.91114	0.07767
1270.98248	0.07783
1269.05383	0.07812
1267.12518	0.07853
1265.19652	0.07909
1263.26787	0.07976
1261.33922	0.08051
1259.41056	0.08138
1257.48191	0.08239
1255.55326	0.08351
1253.62460	0.08470
1251.69595	0.08597
1249.76730	0.08738
1247.83864	0.08887
1245.90999	0.09034
1243.98134	0.09176
1242.05269	0.09315
1240.12403	0.09441
1238.19538	0.09536
1236.26673	0.09597
1234.33807	0.09625
1232.40942	0.09609
1230.48077	0.09547
1228.55211	0.09449
1226.62346	0.09320
1224.69481	0.09153
1222.76615	0.08963
1220.83750	0.08778
1218.90885	0.08614
1216.98019	0.08475
1215.05154	0.08370
1213.12289	0.08301
1211.19423	0.08269
1209.26558	0.08276
1207.33693	0.08314
1205.40827	0.08358
1203.47962	0.08384
1201.55097	0.08373
1199.62231	0.08317
1197.69366	0.08210
1195.76501	0.08078
1193.83635	0.07939
1191.90770	0.07803
1189.97905	0.07663
1188.05039	0.07521
1186.12174	0.07398
1184.19309	0.07299
1182.26443	0.07211
1180.33578	0.07136
1178.40713	0.07079
1176.47848	0.07041
1174.54982	0.07015
1172.62117	0.06993
1170.69252	0.06976
1168.76386	0.06960
1166.83521	0.06946
1164.90656	0.06941
1162.97790	0.06942
1161.04925	0.06927
1159.12060	0.06880
1157.19194	0.06802
1155.26329	0.06705
1153.33464	0.06596
1151.40598	0.06479
1149.47733	0.06357
1147.54868	0.06235
1145.62002	0.06127
1143.69137	0.06037
1141.76272	0.05957
1139.83406	0.05883
1137.90541	0.05813
1135.97676	0.05749
1134.04810	0.05702
1132.11945	0.05667
1130.19080	0.05638
1128.26214	0.05616
1126.33349	0.05592
1124.40484	0.05558
1122.47618	0.05523
1120.54753	0.05500
1118.61888	0.05489
1116.69022	0.05483
1114.76157	0.05475
1112.83292	0.05465
1110.90427	0.05471
1108.97561	0.05503
1107.04696	0.05545
1105.11831	0.05581
1103.18965	0.05619
1101.26100	0.05667
1099.33235	0.05715
1097.40369	0.05764
1095.47504	0.05818
1093.54639	0.05881
1091.61773	0.05978
1089.68908	0.06117
1087.76043	0.06267
1085.83177	0.06405
1083.90312	0.06535
1081.97447	0.06647
1080.04581	0.06722
1078.11716	0.06747
1076.18851	0.06725
1074.25985	0.06672
1072.33120	0.06618
1070.40255	0.06583
1068.47389	0.06563
1066.54524	0.06550
1064.61659	0.06542
1062.68793	0.06536
1060.75928	0.06529
1058.83063	0.06508
1056.90197	0.06463
1054.97332	0.06401
1053.04467	0.06344
1051.11601	0.06293
1049.18736	0.06236
1047.25871	0.06184
1045.33005	0.06152
1043.40140	0.06133
1041.47275	0.06119
1039.54410	0.06123
1037.61544	0.06152
1035.68679	0.06197
1033.75814	0.06244
1031.82948	0.06269
1029.90083	0.06253
1027.97218	0.06193
1026.04352	0.06103
1024.11487	0.05997
1022.18622	0.05887
1020.25756	0.05780
1018.32891	0.05694
1016.40026	0.05637
1014.47160	0.05583
1012.54295	0.05511
1010.61430	0.05435
1008.68564	0.05367
1006.75699	0.05290
1004.82834	0.05204
1002.89968	0.05123
1000.97103	0.05051
999.04238	0.04986
997.11372	0.04927
995.18507	0.04868
993.25642	0.04804
991.32776	0.04738
989.39911	0.04683
987.47046	0.04647
985.54180	0.04621
983.61315	0.04600
981.68450	0.04594
979.75584	0.04599
977.82719	0.04602
975.89854	0.04604
973.96989	0.04609
972.04123	0.04605
970.11258	0.04578
968.18393	0.04540
966.25527	0.04504
964.32662	0.04463
962.39797	0.04419
960.46931	0.04382
958.54066	0.04350
956.61201	0.04319
954.68335	0.04291
952.75470	0.04261
950.82605	0.04229
948.89739	0.04205
946.96874	0.04200
945.04009	0.04207
943.11143	0.04221
941.18278	0.04238
939.25413	0.04246
937.32547	0.04234
935.39682	0.04221
933.46817	0.04220
931.53951	0.04219
929.61086	0.04209
927.68221	0.04201
925.75355	0.04203
923.82490	0.04207
921.89625	0.04207
919.96759	0.04197
918.03894	0.04175
916.11029	0.04149
914.18163	0.04125
912.25298	0.04091
910.32433	0.04043
908.39567	0.04008
906.46702	0.03994
904.53837	0.03979
902.60972	0.03958
900.68106	0.03937
898.75241	0.03927
896.82376	0.03929
894.89510	0.03926
892.96645	0.03911
891.03780	0.03898
889.10914	0.03887
887.18049	0.03868
885.25184	0.03845
883.32318	0.03836
881.39453	0.03844
879.46588	0.03856
877.53722	0.03865
875.60857	0.03869
873.67992	0.03858
871.75126	0.03835
869.82261	0.03818
867.89396	0.03810
865.96530	0.03795
864.03665	0.03779
862.10800	0.03774
860.17934	0.03778
858.25069	0.03787
856.32204	0.03797
854.39338	0.03810
852.46473	0.03824
850.53608	0.03826
848.60742	0.03810
846.67877	0.03793
844.75012	0.03787
842.82146	0.03783
840.89281	0.03765
838.96416	0.03743
837.03551	0.03739
835.10685	0.03750
833.17820	0.03752
831.24955	0.03749
829.32089	0.03757
827.39224	0.03766
825.46359	0.03778
823.53493	0.03809
821.60628	0.03854
819.67763	0.03889
817.74897	0.03908
815.82032	0.03923
813.89167	0.03933
811.96301	0.03938
810.03436	0.03953
808.10571	0.03981
806.17705	0.04000
804.24840	0.04003
802.31975	0.04014
800.39109	0.04044
798.46244	0.04073
796.53379	0.04089
794.60513	0.04101
792.67648	0.04124
790.74783	0.04151
788.81917	0.04167
786.89052	0.04186
784.96187	0.04224
783.03321	0.04265
781.10456	0.04293
779.17591	0.04312
777.24725	0.04329
775.31860	0.04358
773.38995	0.04394
771.46130	0.04416
769.53264	0.04438
767.60399	0.04479
765.67534	0.04523
763.74668	0.04544
761.81803	0.04550
759.88938	0.04564
757.96072	0.04594
756.03207	0.04633
754.10342	0.04675
752.17476	0.04700
750.24611	0.04708
748.31746	0.04726
746.38880	0.04764
744.46015	0.04811
742.53150	0.04839
740.60284	0.04842
738.67419	0.04852
736.74554	0.04889
734.81688	0.04937
732.88823	0.04984
730.95958	0.05037
729.03092	0.05096
727.10227	0.05142
725.17362	0.05175
723.24496	0.05205
721.31631	0.05243
719.38766	0.05274
717.45900	0.05309
715.53035	0.05342
713.60170	0.05364
711.67304	0.05386
709.74439	0.05420
707.81574	0.05464
705.88708	0.05513
703.95843	0.05559
702.02978	0.05593
700.10113	0.05613
698.17247	0.05632
696.24382	0.05656
694.31517	0.05674
692.38651	0.05685
690.45786	0.05700
688.52921	0.05719
686.60055	0.05738
684.67190	0.05759
682.74325	0.05787
680.81459	0.05826
678.88594	0.05865
676.95729	0.05892
675.02863	0.05912
673.09998	0.05933
671.17133	0.05960
669.24267	0.05990
667.31402	0.06006
665.38537	0.06025
663.45671	0.06048
661.52806	0.06074
659.59941	0.06094
657.67075	0.06108
655.74210	0.06116
653.81345	0.06114
651.88479	0.06118
649.95614	0.06141
648.02749	0.06172
646.09883	0.06192
644.17018	0.06195
642.24153	0.06193
640.31287	0.06208
638.38422	0.06230
636.45557	0.06238
634.52692	0.06236
632.59826	0.06236
630.66961	0.06255
628.74096	0.06326
626.81230	0.06230
624.88365	0.06154
622.95500	0.06213
621.02634	0.06282
619.09769	0.06237
617.16904	0.06261
615.24038	0.06414
613.31173	0.06493
611.38308	0.06418
609.45442	0.06341
607.52577	0.06340
605.59712	0.06303
603.66846	0.06260
601.73981	0.06309
599.81116	0.06379
597.88250	0.06392
595.95385	0.06354
594.02520	0.06306
592.09654	0.06307
590.16789	0.06349
588.23924	0.06367
586.31058	0.06349
584.38193	0.06340
582.45328	0.06353
580.52462	0.06371
578.59597	0.06380
576.66732	0.06392
574.73866	0.06411
572.81001	0.06410
570.88136	0.06388
568.95270	0.06387
567.02405	0.06430
565.09540	0.06486
563.16675	0.06522
561.23809	0.06538
559.30944	0.06546
557.38079	0.06550
555.45213	0.06549
553.52348	0.06543
551.59483	0.06526
549.66617	0.06501
547.73752	0.06485
545.80887	0.06479
543.88021	0.06460
541.95156	0.06429
540.02291	0.06416
538.09425	0.06429
536.16560	0.06449
534.23695	0.06471
532.30829	0.06498
530.37964	0.06505
528.45099	0.06482
526.52233	0.06459
524.59368	0.06440
522.66503	0.06411
520.73637	0.06365
518.80772	0.06305
516.87907	0.06264
514.95041	0.06272
513.02176	0.06295
511.09311	0.06286
509.16445	0.06256
507.23580	0.06234
505.30715	0.06219
503.37849	0.06195
501.44984	0.06166
499.52119	0.06139
497.59254	0.06104
495.66388	0.06062
493.73523	0.06031
491.80658	0.06009
489.87792	0.05982
487.94927	0.05955
486.02062	0.05924
484.09196	0.05881
482.16331	0.05836
480.23466	0.05791
478.30600	0.05745
476.37735	0.05720
474.44870	0.05719
472.52004	0.05709
470.59139	0.05673
468.66274	0.05618
466.73408	0.05560
464.80543	0.05516
462.87678	0.05490
460.94812	0.05457
459.01947	0.05408
457.09082	0.05370
455.16216	0.05349
453.23351	0.05322
451.30486	0.05277
449.37620	0.05227
447.44755	0.05187
445.51890	0.05160
443.59024	0.05136
441.66159	0.05104
439.73294	0.05074
437.80428	0.05059
435.87563	0.05040
433.94698	0.04999
432.01833	0.04958
430.08967	0.04926
428.16102	0.04894
426.23237	0.04862
424.30371	0.04826
422.37506	0.04793
420.44641	0.04770
418.51775	0.04745
416.58910	0.04708
414.66045	0.04678
412.73179	0.04661
410.80314	0.04645
408.87449	0.04620
406.94583	0.04590
405.01718	0.04563
403.08853	0.04537
401.15987	0.04513
399.23122	0.04493
