3996.16951	0.02598
3994.24086	0.02668
3992.31220	0.02700
3990.38355	0.02644
3988.45490	0.02577
3986.52624	0.02590
3984.59759	0.02633
3982.66894	0.02602
3980.74028	0.02535
3978.81163	0.02546
3976.88298	0.02601
3974.95432	0.02601
3973.02567	0.02561
3971.09702	0.02537
3969.16836	0.02532
3967.23971	0.02546
3965.31106	0.02581
3963.38240	0.02604
3961.45375	0.02572
3959.52510	0.02494
3957.59645	0.02438
3955.66779	0.02444
3953.73914	0.02461
3951.81049	0.02465
3949.88183	0.02486
3947.95318	0.02527
3946.02453	0.02563
3944.09587	0.02592
3942.16722	0.02630
3940.23857	0.02639
3938.30991	0.02596
3936.38126	0.02557
3934.45261	0.02526
3932.52395	0.02489
3930.59530	0.02491
3928.66665	0.02530
3926.73799	0.02540
3924.80934	0.02496
3922.88069	0.02447
3920.95203	0.02430
3919.02338	0.02480
3917.09473	0.02543
3915.16607	0.02545
3913.23742	0.02509
3911.30877	0.02502
3909.38011	0.02509
3907.45146	0.02496
3905.52281	0.02484
3903.59415	0.02503
3901.66550	0.02522
3899.73685	0.02519
3897.80819	0.02530
3895.87954	0.02512
3893.95089	0.02444
3892.02224	0.02402
3890.09358	0.02455
3888.16493	0.02467
3886.23628	0.02374
3884.30762	0.02361
3882.37897	0.02379
3880.45032	0.02364
3878.52166	0.02399
3876.59301	0.02437
3874.66436	0.02467
3872.73570	0.02503
3870.80705	0.02442
3868.87840	0.02407
3866.94974	0.02439
3865.02109	0.02454
3863.09244	0.02477
3861.16378	0.02455
3859.23513	0.02413
3857.30648	0.02386
3855.37782	0.02314
3853.44917	0.02282
3851.52052	0.02340
3849.59186	0.02367
3847.66321	0.02385
3845.73456	0.02376
3843.80590	0.02326
3841.87725	0.02306
3839.94860	0.02281
3838.01994	0.02248
3836.09129	0.02294
3834.16264	0.02305
3832.23398	0.02254
3830.30533	0.02241
3828.37668	0.02250
3826.44803	0.02249
3824.51937	0.02245
3822.59072	0.02205
3820.66207	0.02258
3818.73341	0.02358
3816.80476	0.02284
3814.87611	0.02229
3812.94745	0.02252
3811.01880	0.02300
3809.09015	0.02350
3807.16149	0.02339
3805.23284	0.02362
3803.30419	0.02313
3801.37553	0.02238
3799.44688	0.02310
3797.51823	0.02337
3795.58957	0.02309
3793.66092	0.02287
3791.73227	0.02245
3789.80361	0.02212
3787.87496	0.02187
3785.94631	0.02149
3784.01765	0.02127
3782.08900	0.02134
3780.16035	0.02135
3778.23169	0.02160
3776.30304	0.02196
3774.37439	0.02207
3772.44573	0.02212
3770.51708	0.02209
3768.58843	0.02211
3766.65977	0.02182
3764.73112	0.02160
3762.80247	0.02163
3760.87381	0.02143
3758.94516	0.02139
3757.01651	0.02146
3755.08786	0.02151
3753.15920	0.02135
3751.23055	0.02159
3749.30190	0.02234
3747.37324	0.02304
3745.44459	0.02200
3743.51594	0.02170
3741.58728	0.02253
3739.65863	0.02246
3737.72998	0.02180
3735.80132	0.02121
3733.87267	0.02123
3731.94402	0.02126
3730.01536	0.02123
3728.08671	0.02083
3726.15806	0.02069
3724.22940	0.02084
3722.30075	0.02055
3720.37210	0.02040
3718.44344	0.02086
3716.51479	0.02167
3714.58614	0.02190
3712.65748	0.02120
3710.72883	0.02076
3708.80018	0.02062
3706.87152	0.02039
3704.94287	0.02015
3703.01422	0.02006
3701.08556	0.02035
3699.15691	0.02054
3697.22826	0.02027
3695.29960	0.02033
3693.37095	0.02062
3691.44230	0.02054
3689.51365	0.02003
3687.58499	0.02041
3685.65634	0.02148
3683.72769	0.02154
3681.79903	0.02126
3679.87038	0.02116
3677.94173	0.02073
3676.01307	0.01990
3674.08442	0.02036
3672.15577	0.02089
3670.22711	0.02114
3668.29846	0.02200
3666.36981	0.02209
3664.44115	0.02156
3662.51250	0.02116
3660.58385	0.02116
3658.65519	0.02142
3656.72654	0.02176
3654.79789	0.02274
3652.86923	0.02333
3650.94058	0.02284
3649.01193	0.02274
3647.08327	0.02361
3645.15462	0.02448
3643.22597	0.02474
3641.29731	0.02446
3639.36866	0.02415
3637.44001	0.02426
3635.51135	0.02460
3633.58270	0.02515
3631.65405	0.02590
3629.72539	0.02588
3627.79674	0.02591
3625.86809	0.02598
3623.93943	0.02585
3622.01078	0.02604
3620.08213	0.02632
3618.15348	0.02669
3616.22482	0.02695
3614.29617	0.02704
3612.36752	0.02735
3610.43886	0.02787
3608.51021	0.02859
3606.58156	0.02921
3604.65290	0.02918
3602.72425	0.02933
3600.79560	0.02987
3598.86694	0.03020
3596.93829	0.03007
3595.00964	0.02990
3593.08098	0.03034
3591.15233	0.03131
3589.22368	0.03183
3587.29502	0.03191
3585.36637	0.03221
3583.43772	0.03259
3581.50906	0.03282
3579.58041	0.03297
3577.65176	0.03318
3575.72310	0.03353
3573.79445	0.03396
3571.86580	0.03453
3569.93714	0.03521
3568.00849	0.03585
3566.07984	0.03679
3564.15118	0.03772
3562.22253	0.03790
3560.29388	0.03763
3558.36522	0.03765
3556.43657	0.03802
3554.50792	0.03863
3552.57927	0.03951
3550.65061	0.04028
3548.72196	0.04047
3546.79331	0.04059
3544.86465	0.04133
3542.93600	0.04239
3541.00735	0.04311
3539.07869	0.04317
3537.15004	0.04299
3535.22139	0.04326
3533.29273	0.04393
3531.36408	0.04438
3529.43543	0.04449
3527.50677	0.04463
3525.57812	0.04486
3523.64947	0.04502
3521.72081	0.04530
3519.79216	0.04565
3517.86351	0.04590
3515.93485	0.04631
3514.00620	0.04687
3512.07755	0.04739
3510.14889	0.04794
3508.22024	0.04854
3506.29159	0.04896
3504.36293	0.04903
3502.43428	0.04921
3500.50563	0.04999
3498.57697	0.05090
3496.64832	0.05119
3494.71967	0.05109
3492.79101	0.05134
3490.86236	0.05184
3488.93371	0.05189
3487.00506	0.05162
3485.07640	0.05188
3483.14775	0.05284
3481.21910	0.05367
3479.29044	0.05405
3477.36179	0.05428
3475.43314	0.05454
3473.50448	0.05485
3471.57583	0.05511
3469.64718	0.05524
3467.71852	0.05554
3465.78987	0.05609
3463.86122	0.05628
3461.93256	0.05605
3460.00391	0.05614
3458.07526	0.05673
3456.14660	0.05725
3454.21795	0.05748
3452.28930	0.05765
3450.36064	0.05782
3448.43199	0.05801
3446.50334	0.05834
3444.57468	0.05878
3442.64603	0.05916
3440.71738	0.05940
3438.78872	0.05961
3436.86007	0.05994
3434.93142	0.06036
3433.00276	0.06080
3431.07411	0.06120
3429.14546	0.06157
3427.21680	0.06193
3425.28815	0.06224
3423.35950	0.06253
3421.43084	0.06283
3419.50219	0.06294
3417.57354	0.06295
3415.64489	0.06326
3413.71623	0.06386
3411.78758	0.06437
3409.85893	0.06486
3407.93027	0.06552
3406.00162	0.06618
3404.07297	0.06651
3402.14431	0.06627
3400.21566	0.06566
3398.28701	0.06542
3396.35835	0.06596
3394.42970	0.06686
3392.50105	0.06753
3390.57239	0.06784
3388.64374	0.06797
3386.71509	0.06829
3384.78643	0.06886
3382.85778	0.06917
3380.92913	0.06916
3379.00047	0.06927
3377.07182	0.06937
3375.14317	0.06935
3373.21451	0.06966
3371.28586	0.07037
3369.35721	0.07109
3367.42855	0.07163
3365.49990	0.07220
3363.57125	0.07288
3361.64259	0.07351
3359.71394	0.07397
3357.78529	0.07452
3355.85663	0.07531
3353.92798	0.07624
3351.99933	0.07708
3350.07068	0.07777
3348.14202	0.07846
3346.21337	0.07913
3344.28472	0.07948
3342.35606	0.07954
3340.42741	0.07985
3338.49876	0.08060
3336.57010	0.08134
3334.64145	0.08185
3332.71280	0.08231
3330.78414	0.08271
3328.85549	0.08300
3326.92684	0.08336
3324.99818	0.08382
3323.06953	0.08418
3321.14088	0.08449
3319.21222	0.08483
3317.28357	0.08505
3315.35492	0.08531
3313.42626	0.08576
3311.49761	0.08621
3309.56896	0.08649
3307.64030	0.08668
3305.71165	0.08684
3303.78300	0.08702
3301.85434	0.08708
3299.92569	0.08689
3297.99704	0.08674
3296.06838	0.08675
3294.13973	0.08678
3292.21108	0.08699
3290.28242	0.08731
3288.35377	0.08752
3286.42512	0.08773
3284.49646	0.08774
3282.56781	0.08731
3280.63916	0.08676
3278.71051	0.08645
3276.78185	0.08633
3274.85320	0.08606
3272.92455	0.08557
3270.99589	0.08504
3269.06724	0.08461
3267.13859	0.08436
3265.20993	0.08429
3263.28128	0.08437
3261.35263	0.08458
3259.42397	0.08460
3257.49532	0.08420
3255.56667	0.08347
3253.63801	0.08255
3251.70936	0.08167
3249.78071	0.08101
3247.85205	0.08060
3245.92340	0.08045
3243.99475	0.08033
3242.06609	0.08000
3240.13744	0.07969
3238.20879	0.07969
3236.28013	0.07999
3234.35148	0.08015
3232.42283	0.07972
3230.49417	0.07892
3228.56552	0.07821
3226.63687	0.07776
3224.70821	0.07758
3222.77956	0.07760
3220.85091	0.07770
3218.92225	0.07770
3216.99360	0.07737
3215.06495	0.07669
3213.13630	0.07610
3211.20764	0.07595
3209.27899	0.07601
3207.35034	0.07585
3205.42168	0.07535
3203.49303	0.07470
3201.56438	0.07418
3199.63572	0.07397
3197.70707	0.07379
3195.77842	0.07325
3193.84976	0.07251
3191.92111	0.07200
3189.99246	0.07178
3188.06380	0.07163
3186.13515	0.07134
3184.20650	0.07084
3182.27784	0.07030
3180.34919	0.06997
3178.42054	0.06989
3176.49188	0.06970
3174.56323	0.06908
3172.63458	0.06830
3170.70592	0.06761
3168.77727	0.06703
3166.84862	0.06664
3164.91996	0.06648
3162.99131	0.06644
3161.06266	0.06633
3159.13400	0.06595
3157.20535	0.06515
3155.27670	0.06411
3153.34804	0.06329
3151.41939	0.06275
3149.49074	0.06225
3147.56209	0.06180
3145.63343	0.06138
3143.70478	0.06098
3141.77613	0.06088
3139.84747	0.06095
3137.91882	0.06085
3135.99017	0.06059
3134.06151	0.06028
3132.13286	0.05985
3130.20421	0.05933
3128.27555	0.05874
3126.34690	0.05819
3124.41825	0.05792
3122.48959	0.05784
3120.56094	0.05768
3118.63229	0.05753
3116.70363	0.05755
3114.77498	0.05759
3112.84633	0.05758
3110.91767	0.05758
3108.98902	0.05765
3107.06037	0.05767
3105.13171	0.05751
3103.20306	0.05732
3101.27441	0.05731
3099.34575	0.05740
3097.41710	0.05740
3095.48845	0.05744
3093.55979	0.05770
3091.63114	0.05793
3089.70249	0.05804
3087.77383	0.05825
3085.84518	0.05850
3083.91653	0.05861
3081.98787	0.05859
3080.05922	0.05851
3078.13057	0.05847
3076.20192	0.05862
3074.27326	0.05894
3072.34461	0.05909
3070.41596	0.05897
3068.48730	0.05861
3066.55865	0.05817
3064.63000	0.05804
3062.70134	0.05828
3060.77269	0.05836
3058.84404	0.05796
3056.91538	0.05739
3054.98673	0.05704
3053.05808	0.05681
3051.12942	0.05640
3049.20077	0.05590
3047.27212	0.05554
3045.34346	0.05533
3043.41481	0.05507
3041.48616	0.05463
3039.55750	0.05405
3037.62885	0.05344
3035.70020	0.05294
3033.77154	0.05250
3031.84289	0.05199
3029.91424	0.05144
3027.98558	0.05099
3026.05693	0.05074
3024.12828	0.05062
3022.19962	0.05042
3020.27097	0.05002
3018.34232	0.04959
3016.41366	0.04921
3014.48501	0.04884
3012.55636	0.04860
3010.62771	0.04837
3008.69905	0.04796
3006.77040	0.04771
3004.84175	0.04784
3002.91309	0.04813
3000.98444	0.04842
2999.05579	0.04869
2997.12713	0.04889
2995.19848	0.04908
2993.26983	0.04943
2991.34117	0.04986
2989.41252	0.05016
2987.48387	0.05029
2985.55521	0.05039
2983.62656	0.05059
2981.69791	0.05069
2979.76925	0.05066
2977.84060	0.05069
2975.91195	0.05087
2973.98329	0.05108
2972.05464	0.05127
2970.12599	0.05158
2968.19733	0.05196
2966.26868	0.05216
2964.34003	0.05229
2962.41137	0.05258
2960.48272	0.05295
2958.55407	0.05327
2956.62541	0.05342
2954.69676	0.05342
2952.76811	0.05347
2950.83945	0.05351
2948.91080	0.05338
2946.98215	0.05316
2945.05349	0.05301
2943.12484	0.05322
2941.19619	0.05374
2939.26754	0.05413
2937.33888	0.05429
2935.41023	0.05439
2933.48158	0.05446
2931.55292	0.05454
2929.62427	0.05468
2927.69562	0.05487
2925.76696	0.05515
2923.83831	0.05525
2921.90966	0.05478
2919.98100	0.05388
2918.05235	0.05309
2916.12370	0.05265
2914.19504	0.05240
2912.26639	0.05208
2910.33774	0.05161
2908.40908	0.05123
2906.48043	0.05100
2904.55178	0.05062
2902.62312	0.04994
2900.69447	0.04924
2898.76582	0.04869
2896.83716	0.04830
2894.90851	0.04815
2892.97986	0.04819
2891.05120	0.04815
2889.12255	0.04800
2887.19390	0.04787
2885.26524	0.04787
2883.33659	0.04792
2881.40794	0.04785
2879.47928	0.04773
2877.55063	0.04771
2875.62198	0.04777
2873.69333	0.04783
2871.76467	0.04784
2869.83602	0.04765
2867.90737	0.04713
2865.97871	0.04653
2864.05006	0.04606
2862.12141	0.04557
2860.19275	0.04507
2858.26410	0.04486
2856.33545	0.04491
2854.40679	0.04479
2852.47814	0.04434
2850.54949	0.04372
2848.62083	0.04332
2846.69218	0.04322
2844.76353	0.04300
2842.83487	0.04244
2840.90622	0.04184
2838.97757	0.04161
2837.04891	0.04170
2835.12026	0.04172
2833.19161	0.04135
2831.26295	0.04072
2829.33430	0.04027
2827.40565	0.04020
2825.47699	0.04026
2823.54834	0.04015
2821.61969	0.03991
2819.69103	0.03969
2817.76238	0.03942
2815.83373	0.03905
2813.90507	0.03868
2811.97642	0.03852
2810.04777	0.03858
2808.11912	0.03857
2806.19046	0.03837
2804.26181	0.03816
2802.33316	0.03807
2800.40450	0.03804
2798.47585	0.03791
2796.54720	0.03767
2794.61854	0.03749
2792.68989	0.03737
2790.76124	0.03719
2788.83258	0.03708
2786.90393	0.03712
2784.97528	0.03705
2783.04662	0.03677
2781.11797	0.03655
2779.18932	0.03655
2777.26066	0.03652
2775.33201	0.03628
2773.40336	0.03591
2771.47470	0.03555
2769.54605	0.03536
2767.61740	0.03532
2765.68874	0.03529
2763.76009	0.03532
2761.83144	0.03549
2759.90278	0.03551
2757.97413	0.03521
2756.04548	0.03482
2754.11682	0.03458
2752.18817	0.03452
2750.25952	0.03450
2748.33086	0.03451
2746.40221	0.03447
2744.47356	0.03428
2742.54490	0.03406
2740.61625	0.03396
2738.68760	0.03390
2736.75895	0.03386
2734.83029	0.03391
2732.90164	0.03388
2730.97299	0.03369
2729.04433	0.03342
2727.11568	0.03313
2725.18703	0.03291
2723.25837	0.03279
2721.32972	0.03277
2719.40107	0.03273
2717.47241	0.03253
2715.54376	0.03224
2713.61511	0.03195
2711.68645	0.03173
2709.75780	0.03177
2707.82915	0.03203
2705.90049	0.03221
2703.97184	0.03212
2702.04319	0.03191
2700.11453	0.03178
2698.18588	0.03167
2696.25723	0.03142
2694.32857	0.03133
2692.39992	0.03141
2690.47127	0.03128
2688.54261	0.03098
2686.61396	0.03092
2684.68531	0.03112
2682.75665	0.03126
2680.82800	0.03110
2678.89935	0.03079
2676.97069	0.03054
2675.04204	0.03049
2673.11339	0.03063
2671.18474	0.03080
2669.25608	0.03084
2667.32743	0.03085
2665.39878	0.03086
2663.47012	0.03081
2661.54147	0.03071
2659.61282	0.03053
2657.68416	0.03023
2655.75551	0.02994
2653.82686	0.02977
2651.89820	0.02964
2649.96955	0.02950
2648.04090	0.02940
2646.11224	0.02934
2644.18359	0.02923
2642.25494	0.02893
2640.32628	0.02849
2638.39763	0.02822
2636.46898	0.02825
2634.54032	0.02836
2632.61167	0.02835
2630.68302	0.02827
2628.75436	0.02818
2626.82571	0.02803
2624.89706	0.02783
2622.96840	0.02752
2621.03975	0.02707
2619.11110	0.02676
2617.18244	0.02693
2615.25379	0.02737
2613.32514	0.02762
2611.39648	0.02749
2609.46783	0.02712
2607.53918	0.02669
2605.61052	0.02627
2603.68187	0.02593
2601.75322	0.02575
2599.82457	0.02570
2597.89591	0.02569
2595.96726	0.02567
2594.03861	0.02547
2592.10995	0.02505
2590.18130	0.02478
2588.25265	0.02493
2586.32399	0.02520
2584.39534	0.02511
2582.46669	0.02474
2580.53803	0.02452
2578.60938	0.02459
2576.68073	0.02479
2574.75207	0.02495
2572.82342	0.02504
2570.89477	0.02513
2568.96611	0.02517
2567.03746	0.02492
2565.10881	0.02436
2563.18015	0.02387
2561.25150	0.02371
2559.32285	0.02381
2557.39419	0.02369
2555.46554	0.02316
2553.53689	0.02284
2551.60823	0.02316
2549.67958	0.02366
2547.75093	0.02371
2545.82227	0.02340
2543.89362	0.02327
2541.96497	0.02340
2540.03631	0.02347
2538.10766	0.02349
2536.17901	0.02351
2534.25036	0.02338
2532.32170	0.02317
2530.39305	0.02298
2528.46440	0.02270
2526.53574	0.02255
2524.60709	0.02263
2522.67844	0.02260
2520.74978	0.02254
2518.82113	0.02256
2516.89248	0.02247
2514.96382	0.02241
2513.03517	0.02251
2511.10652	0.02246
2509.17786	0.02222
2507.24921	0.02198
2505.32056	0.02179
2503.39190	0.02160
2501.46325	0.02147
2499.53460	0.02163
2497.60594	0.02208
2495.67729	0.02236
2493.74864	0.02224
2491.81998	0.02186
2489.89133	0.02149
2487.96268	0.02150
2486.03402	0.02187
2484.10537	0.02190
2482.17672	0.02141
2480.24806	0.02108
2478.31941	0.02121
2476.39076	0.02146
2474.46210	0.02152
2472.53345	0.02121
2470.60480	0.02070
2468.67615	0.02057
2466.74749	0.02090
2464.81884	0.02114
2462.89019	0.02103
2460.96153	0.02062
2459.03288	0.02021
2457.10423	0.02025
2455.17557	0.02046
2453.24692	0.02035
2451.31827	0.02026
2449.38961	0.02047
2447.46096	0.02068
2445.53231	0.02056
2443.60365	0.02027
2441.67500	0.02017
2439.74635	0.02017
2437.81769	0.02020
2435.88904	0.02051
2433.96039	0.02072
2432.03173	0.02025
2430.10308	0.01954
2428.17443	0.01935
2426.24577	0.01953
2424.31712	0.01964
2422.38847	0.01966
2420.45981	0.01975
2418.53116	0.01994
2416.60251	0.02011
2414.67385	0.02019
2412.74520	0.02028
2410.81655	0.02030
2408.88789	0.02013
2406.95924	0.02000
2405.03059	0.02021
2403.10193	0.02055
2401.17328	0.02051
2399.24463	0.02023
2397.31598	0.02022
2395.38732	0.02026
2393.45867	0.02009
2391.53002	0.01997
2389.60136	0.01998
2387.67271	0.02000
2385.74406	0.02005
2383.81540	0.02016
2381.88675	0.02025
2379.95810	0.02026
2378.02944	0.02026
2376.10079	0.02030
2374.17214	0.02055
2372.24348	0.02087
2370.31483	0.02179
2368.38618	0.02058
2366.45752	0.01992
2364.52887	0.02019
2362.60022	0.01892
2360.67156	0.02088
2358.74291	0.02255
2356.81426	0.02097
2354.88560	0.02017
2352.95695	0.02052
2351.02830	0.02067
2349.09964	0.02077
2347.17099	0.02077
2345.24234	0.02091
2343.31368	0.02060
2341.38503	0.01969
2339.45638	0.02172
2337.52772	0.01919
2335.59907	0.01984
2333.67042	0.02020
2331.74177	0.02013
2329.81311	0.02018
2327.88446	0.02025
2325.95581	0.02026
2324.02715	0.02021
2322.09850	0.02018
2320.16985	0.02012
2318.24119	0.02005
2316.31254	0.02006
2314.38389	0.01995
2312.45523	0.01953
2310.52658	0.01912
2308.59793	0.01901
2306.66927	0.01909
2304.74062	0.01913
2302.81197	0.01895
2300.88331	0.01888
2298.95466	0.01883
2297.02601	0.01871
2295.09735	0.01871
2293.16870	0.01884
2291.24005	0.01883
2289.31139	0.01847
2287.38274	0.01781
2285.45409	0.01712
2283.52543	0.01670
2281.59678	0.01645
2279.66813	0.01621
2277.73947	0.01608
2275.81082	0.01607
2273.88217	0.01593
2271.95351	0.01568
2270.02486	0.01583
2268.09621	0.01639
2266.16755	0.01656
2264.23890	0.01596
2262.31025	0.01506
2260.38160	0.01460
2258.45294	0.01486
2256.52429	0.01542
2254.59564	0.01575
2252.66698	0.01547
2250.73833	0.01481
2248.80968	0.01448
2246.88102	0.01424
2244.95237	0.01384
2243.02372	0.01355
2241.09506	0.01371
2239.16641	0.01385
2237.23776	0.01345
2235.30910	0.01290
2233.38045	0.01287
2231.45180	0.01341
2229.52314	0.01397
2227.59449	0.01438
2225.66584	0.01471
2223.73718	0.01459
2221.80853	0.01402
2219.87988	0.01375
2217.95122	0.01402
2216.02257	0.01394
2214.09392	0.01308
2212.16526	0.01263
2210.23661	0.01331
2208.30796	0.01401
2206.37930	0.01381
2204.45065	0.01317
2202.52200	0.01272
2200.59334	0.01236
2198.66469	0.01202
2196.73604	0.01175
2194.80739	0.01125
2192.87873	0.01078
2190.95008	0.01105
2189.02143	0.01215
2187.09277	0.01336
2185.16412	0.01380
2183.23547	0.01301
2181.30681	0.01168
2179.37816	0.01109
2177.44951	0.01171
2175.52085	0.01272
2173.59220	0.01297
2171.66355	0.01244
2169.73489	0.01178
2167.80624	0.01132
2165.87759	0.01120
2163.94893	0.01046
2162.02028	0.00830
2160.09163	0.00666
2158.16297	0.00718
2156.23432	0.00864
2154.30567	0.00962
2152.37701	0.00972
2150.44836	0.00919
2148.51971	0.00920
2146.59105	0.01030
2144.66240	0.01114
2142.73375	0.01070
2140.80509	0.01017
2138.87644	0.01047
2136.94779	0.01094
2135.01913	0.01135
2133.09048	0.01192
2131.16183	0.01229
2129.23318	0.01242
2127.30452	0.01272
2125.37587	0.01288
2123.44722	0.01271
2121.51856	0.01291
2119.58991	0.01347
2117.66126	0.01352
2115.73260	0.01326
2113.80395	0.01335
2111.87530	0.01370
2109.94664	0.01397
2108.01799	0.01397
2106.08934	0.01360
2104.16068	0.01306
2102.23203	0.01285
2100.30338	0.01314
2098.37472	0.01325
2096.44607	0.01300
2094.51742	0.01300
2092.58876	0.01321
2090.66011	0.01317
2088.73146	0.01291
2086.80280	0.01273
2084.87415	0.01252
2082.94550	0.01200
2081.01684	0.01155
2079.08819	0.01159
2077.15954	0.01176
2075.23088	0.01192
2073.30223	0.01233
2071.37358	0.01242
2069.44492	0.01180
2067.51627	0.01106
2065.58762	0.01058
2063.65896	0.01051
2061.73031	0.01073
2059.80166	0.01059
2057.87301	0.01012
2055.94435	0.01013
2054.01570	0.01073
2052.08705	0.01099
2050.15839	0.01026
2048.22974	0.00937
2046.30109	0.00940
2044.37243	0.00992
2042.44378	0.00981
2040.51513	0.00884
2038.58647	0.00787
2036.65782	0.00765
2034.72917	0.00779
2032.80051	0.00779
2030.87186	0.00769
2028.94321	0.00766
2027.01455	0.00802
2025.08590	0.00874
2023.15725	0.00921
2021.22859	0.00914
2019.29994	0.00866
2017.37129	0.00790
2015.44263	0.00738
2013.51398	0.00758
2011.58533	0.00843
2009.65667	0.00948
2007.72802	0.00983
2005.79937	0.00923
2003.87071	0.00876
2001.94206	0.00898
2000.01341	0.00928
1998.08475	0.00915
1996.15610	0.00892
1994.22745	0.00888
1992.29880	0.00909
1990.37014	0.00992
1988.44149	0.01114
1986.51284	0.01173
1984.58418	0.01130
1982.65553	0.01041
1980.72688	0.00926
1978.79822	0.00790
1976.86957	0.00723
1974.94092	0.00699
1973.01226	0.00623
1971.08361	0.00589
1969.15496	0.00681
1967.22630	0.00818
1965.29765	0.00922
1963.36900	0.00968
1961.44034	0.00948
1959.51169	0.00894
1957.58304	0.00860
1955.65438	0.00879
1953.72573	0.00946
1951.79708	0.00995
1949.86842	0.00967
1947.93977	0.00933
1946.01112	0.00978
1944.08246	0.01059
1942.15381	0.01105
1940.22516	0.01101
1938.29650	0.01056
1936.36785	0.01019
1934.43920	0.01033
1932.51054	0.01075
1930.58189	0.01090
1928.65324	0.01070
1926.72458	0.01056
1924.79593	0.01081
1922.86728	0.01120
1920.93863	0.01125
1919.00997	0.01098
1917.08132	0.01091
1915.15267	0.01098
1913.22401	0.01092
1911.29536	0.01087
1909.36671	0.01100
1907.43805	0.01123
1905.50940	0.01125
1903.58075	0.01103
1901.65209	0.01093
1899.72344	0.01107
1897.79479	0.01115
1895.86613	0.01105
1893.93748	0.01086
1892.00883	0.01058
1890.08017	0.01049
1888.15152	0.01081
1886.22287	0.01114
1884.29421	0.01130
1882.36556	0.01140
1880.43691	0.01136
1878.50825	0.01129
1876.57960	0.01134
1874.65095	0.01140
1872.72229	0.01148
1870.79364	0.01155
1868.86499	0.01147
1866.93633	0.01127
1865.00768	0.01109
1863.07903	0.01123
1861.15037	0.01145
1859.22172	0.01138
1857.29307	0.01113
1855.36442	0.01098
1853.43576	0.01095
1851.50711	0.01102
1849.57846	0.01119
1847.64980	0.01137
1845.72115	0.01124
1843.79250	0.01097
1841.86384	0.01094
1839.93519	0.01081
1838.00654	0.01077
1836.07788	0.01098
1834.14923	0.01113
1832.22058	0.01096
1830.29192	0.01076
1828.36327	0.01091
1826.43462	0.01092
1824.50596	0.01070
1822.57731	0.01066
1820.64866	0.01070
1818.72000	0.01067
1816.79135	0.01068
1814.86270	0.01083
1812.93404	0.01089
1811.00539	0.01084
1809.07674	0.01087
1807.14808	0.01096
1805.21943	0.01094
1803.29078	0.01068
1801.36212	0.01042
1799.43347	0.01040
1797.50482	0.01050
1795.57616	0.01052
1793.64751	0.01036
1791.71886	0.01023
1789.79021	0.01030
1787.86155	0.01035
1785.93290	0.01037
1784.00425	0.01041
1782.07559	0.01034
1780.14694	0.01019
1778.21829	0.01019
1776.28963	0.01032
1774.36098	0.01037
1772.43233	0.01034
1770.50367	0.01041
1768.57502	0.01019
1766.64637	0.01009
1764.71771	0.01020
1762.78906	0.01015
1760.86041	0.01022
1758.93175	0.01030
1757.00310	0.01023
1755.07445	0.01039
1753.14579	0.01047
1751.21714	0.01040
1749.28849	0.01062
1747.35983	0.01087
1745.43118	0.01106
1743.50253	0.01127
1741.57387	0.01148
1739.64522	0.01168
1737.71657	0.01209
1735.78791	0.01204
1733.85926	0.01187
1731.93061	0.01235
1730.00195	0.01266
1728.07330	0.01273
1726.14465	0.01283
1724.21599	0.01299
1722.28734	0.01340
1720.35869	0.01384
1718.43004	0.01395
1716.50138	0.01436
1714.57273	0.01516
1712.64408	0.01596
1710.71542	0.01681
1708.78677	0.01773
1706.85812	0.01874
1704.92946	0.02014
1703.00081	0.02186
1701.07216	0.02333
1699.14350	0.02536
1697.21485	0.02727
1695.28620	0.02895
1693.35754	0.03118
1691.42889	0.03307
1689.50024	0.03504
1687.57158	0.03730
1685.64293	0.03927
1683.71428	0.04169
1681.78562	0.04463
1679.85697	0.04715
1677.92832	0.04967
1675.99966	0.05231
1674.07101	0.05536
1672.14236	0.05851
1670.21370	0.06140
1668.28505	0.06449
1666.35640	0.06769
1664.42774	0.07060
1662.49909	0.07346
1660.57044	0.07633
1658.64178	0.07891
1656.71313	0.08119
1654.78448	0.08273
1652.85583	0.08414
1650.92717	0.08636
1648.99852	0.08785
1647.06987	0.08866
1645.14121	0.08991
1643.21256	0.09131
1641.28391	0.09235
1639.35525	0.09328
1637.42660	0.09400
1635.49795	0.09471
1633.56929	0.09575
1631.64064	0.09628
1629.71199	0.09610
1627.78333	0.09553
1625.85468	0.09446
1623.92603	0.09273
1621.99737	0.09081
1620.06872	0.08871
1618.14007	0.08598
1616.21141	0.08314
1614.28276	0.08054
1612.35411	0.07752
1610.42545	0.07437
1608.49680	0.07145
1606.56815	0.06880
1604.63949	0.06635
1602.71084	0.06400
1600.78219	0.06170
1598.85353	0.05955
1596.92488	0.05768
1594.99623	0.05610
1593.06757	0.05476
1591.13892	0.05361
1589.21027	0.05270
1587.28161	0.05207
1585.35296	0.05169
1583.42431	0.05156
1581.49566	0.05176
1579.56700	0.05227
1577.63835	0.05269
1575.70970	0.05342
1573.78104	0.05487
1571.85239	0.05616
1569.92374	0.05751
1567.99508	0.05943
1566.06643	0.06143
1564.13778	0.06346
1562.20912	0.06550
1560.28047	0.06710
1558.35182	0.06907
1556.42316	0.07134
1554.49451	0.07290
1552.56586	0.07423
1550.63720	0.07539
1548.70855	0.07642
1546.77990	0.07728
1544.85124	0.07794
1542.92259	0.07847
1540.99394	0.07866
1539.06528	0.07889
1537.13663	0.07929
1535.20798	0.07902
1533.27932	0.07847
1531.35067	0.07820
1529.42202	0.07774
1527.49336	0.07715
1525.56471	0.07672
1523.63606	0.07623
1521.70740	0.07535
1519.77875	0.07458
1517.85010	0.07362
1515.92145	0.07246
1513.99279	0.07128
1512.06414	0.06991
1510.13549	0.06845
1508.20683	0.06649
1506.27818	0.06436
1504.34953	0.06268
1502.42087	0.06083
1500.49222	0.05872
1498.56357	0.05665
1496.63491	0.05459
1494.70626	0.05275
1492.77761	0.05092
1490.84895	0.04899
1488.92030	0.04738
1486.99165	0.04609
1485.06299	0.04506
1483.13434	0.04432
1481.20569	0.04389
1479.27703	0.04382
1477.34838	0.04400
1475.41973	0.04438
1473.49107	0.04486
1471.56242	0.04571
1469.63377	0.04687
1467.70511	0.04791
1465.77646	0.04891
1463.84781	0.05017
1461.91915	0.05154
1459.99050	0.05284
1458.06185	0.05405
1456.13319	0.05543
1454.20454	0.05672
1452.27589	0.05724
1450.34724	0.05737
1448.41858	0.05732
1446.48993	0.05716
1444.56128	0.05678
1442.63262	0.05620
1440.70397	0.05566
1438.77532	0.05488
1436.84666	0.05380
1434.91801	0.05284
1432.98936	0.05180
1431.06070	0.05072
1429.13205	0.04989
1427.20340	0.04928
1425.27474	0.04880
1423.34609	0.04855
1421.41744	0.04834
1419.48878	0.04808
1417.56013	0.04813
1415.63148	0.04818
1413.70282	0.04813
1411.77417	0.04823
1409.84552	0.04857
1407.91686	0.04898
1405.98821	0.04929
1404.05956	0.04954
1402.13090	0.04973
1400.20225	0.04978
1398.27360	0.04983
1396.34494	0.04974
1394.41629	0.04948
1392.48764	0.04936
1390.55898	0.04926
1388.63033	0.04906
1386.70168	0.04893
1384.77302	0.04887
1382.84437	0.04874
1380.91572	0.04859
1378.98707	0.04837
1377.05841	0.04803
1375.12976	0.04754
1373.20111	0.04695
1371.27245	0.04626
1369.34380	0.04550
1367.41515	0.04477
1365.48649	0.04404
1363.55784	0.04331
1361.62919	0.04274
1359.70053	0.04232
1357.77188	0.04200
1355.84323	0.04181
1353.91457	0.04178
1351.98592	0.04193
1350.05727	0.04233
1348.12861	0.04298
1346.19996	0.04377
1344.27131	0.04458
1342.34265	0.04532
1340.41400	0.04593
1338.48535	0.04641
1336.55669	0.04672
1334.62804	0.04677
1332.69939	0.04650
1330.77073	0.04594
1328.84208	0.04521
1326.91343	0.04451
1324.98477	0.04399
1323.05612	0.04371
1321.12747	0.04360
1319.19881	0.04353
1317.27016	0.04341
1315.34151	0.04318
1313.41286	0.04285
1311.48420	0.04245
1309.55555	0.04201
1307.62690	0.04161
1305.69824	0.04128
1303.76959	0.04098
1301.84094	0.04068
1299.91228	0.04043
1297.98363	0.04028
1296.05498	0.04027
1294.12632	0.04035
1292.19767	0.04050
1290.26902	0.04080
1288.34036	0.04126
1286.41171	0.04180
1284.48306	0.04224
1282.55440	0.04253
1280.62575	0.04271
1278.69710	0.04273
1276.76844	0.04263
1274.83979	0.04250
1272.91114	0.04240
1270.98248	0.04242
1269.05383	0.04254
1267.12518	0.04272
1265.19652	0.04306
1263.26787	0.04355
1261.33922	0.04406
1259.41056	0.04458
1257.48191	0.04521
1255.55326	0.04596
1253.62460	0.04672
1251.69595	0.04746
1249.76730	0.04822
1247.83864	0.04907
1245.90999	0.04995
1243.98134	0.05083
1242.05269	0.05167
1240.12403	0.05241
1238.19538	0.05300
1236.26673	0.05341
1234.33807	0.05356
1232.40942	0.05340
1230.48077	0.05296
1228.55211	0.05232
1226.62346	0.05152
1224.69481	0.05060
1222.76615	0.04953
1220.83750	0.04840
1218.90885	0.04740
1216.98019	0.04661
1215.05154	0.04596
1213.12289	0.04551
1211.19423	0.04536
1209.26558	0.04556
1207.33693	0.04594
1205.40827	0.04628
1203.47962	0.04645
1201.55097	0.04637
1199.62231	0.04603
1197.69366	0.04541
1195.76501	0.04458
1193.83635	0.04367
1191.90770	0.04276
1189.97905	0.04193
1188.05039	0.04125
1186.12174	0.04068
1184.19309	0.04013
1182.26443	0.03967
1180.33578	0.03931
1178.40713	0.03903
1176.47848	0.03882
1174.54982	0.03873
1172.62117	0.03873
1170.69252	0.03882
1168.76386	0.03893
1166.83521	0.03899
1164.90656	0.03907
1162.97790	0.03917
1161.04925	0.03909
1159.12060	0.03888
1157.19194	0.03864
1155.26329	0.03818
1153.33464	0.03744
1151.40598	0.03667
1149.47733	0.03604
1147.54868	0.03546
1145.62002	0.03482
1143.69137	0.03425
1141.76272	0.03377
1139.83406	0.03325
1137.90541	0.03270
1135.97676	0.03228
1134.04810	0.03207
1132.11945	0.03206
1130.19080	0.03211
1128.26214	0.03217
1126.33349	0.03217
1124.40484	0.03203
1122.47618	0.03182
1120.54753	0.03168
1118.61888	0.03170
1116.69022	0.03182
1114.76157	0.03196
1112.83292	0.03216
1110.90427	0.03238
1108.97561	0.03256
1107.04696	0.03270
1105.11831	0.03282
1103.18965	0.03298
1101.26100	0.03325
1099.33235	0.03350
1097.40369	0.03367
1095.47504	0.03397
1093.54639	0.03453
1091.61773	0.03526
1089.68908	0.03599
1087.76043	0.03672
1085.83177	0.03745
1083.90312	0.03812
1081.97447	0.03870
1080.04581	0.03910
1078.11716	0.03911
1076.18851	0.03884
1074.25985	0.03859
1072.33120	0.03843
1070.40255	0.03831
1068.47389	0.03831
1066.54524	0.03849
1064.61659	0.03869
1062.68793	0.03885
1060.75928	0.03894
1058.83063	0.03893
1056.90197	0.03872
1054.97332	0.03838
1053.04467	0.03808
1051.11601	0.03781
1049.18736	0.03748
1047.25871	0.03711
1045.33005	0.03686
1043.40140	0.03674
1041.47275	0.03673
1039.54410	0.03684
1037.61544	0.03707
1035.68679	0.03742
1033.75814	0.03788
1031.82948	0.03820
1029.90083	0.03807
1027.97218	0.03750
1026.04352	0.03681
1024.11487	0.03617
1022.18622	0.03557
1020.25756	0.03501
1018.32891	0.03453
1016.40026	0.03419
1014.47160	0.03383
1012.54295	0.03332
1010.61430	0.03280
1008.68564	0.03243
1006.75699	0.03213
1004.82834	0.03177
1002.89968	0.03136
1000.97103	0.03101
999.04238	0.03068
997.11372	0.03024
995.18507	0.02974
993.25642	0.02930
991.32776	0.02896
989.39911	0.02871
987.47046	0.02855
985.54180	0.02840
983.61315	0.02823
981.68450	0.02808
979.75584	0.02803
977.82719	0.02812
975.89854	0.02823
973.96989	0.02822
972.04123	0.02802
970.11258	0.02772
968.18393	0.02740
966.25527	0.02710
964.32662	0.02681
962.39797	0.02652
960.46931	0.02619
958.54066	0.02582
956.61201	0.02554
954.68335	0.02542
952.75470	0.02533
950.82605	0.02522
948.89739	0.02516
946.96874	0.02518
945.04009	0.02522
943.11143	0.02529
941.18278	0.02533
939.25413	0.02527
937.32547	0.02517
935.39682	0.02510
933.46817	0.02497
931.53951	0.02483
929.61086	0.02475
927.68221	0.02472
925.75355	0.02464
923.82490	0.02457
921.89625	0.02449
919.96759	0.02433
918.03894	0.02419
916.11029	0.02414
914.18163	0.02406
912.25298	0.02386
910.32433	0.02363
908.39567	0.02349
906.46702	0.02346
904.53837	0.02348
902.60972	0.02347
900.68106	0.02332
898.75241	0.02314
896.82376	0.02301
894.89510	0.02281
892.96645	0.02258
891.03780	0.02253
889.10914	0.02256
887.18049	0.02259
885.25184	0.02272
883.32318	0.02292
881.39453	0.02305
879.46588	0.02297
877.53722	0.02276
875.60857	0.02260
873.67992	0.02257
871.75126	0.02260
869.82261	0.02259
867.89396	0.02244
865.96530	0.02225
864.03665	0.02221
862.10800	0.02219
860.17934	0.02208
858.25069	0.02198
856.32204	0.02204
854.39338	0.02226
852.46473	0.02248
850.53608	0.02256
848.60742	0.02255
846.67877	0.02255
844.75012	0.02250
842.82146	0.02234
840.89281	0.02212
838.96416	0.02201
837.03551	0.02204
835.10685	0.02205
833.17820	0.02197
831.24955	0.02193
829.32089	0.02203
827.39224	0.02227
825.46359	0.02255
823.53493	0.02272
821.60628	0.02275
819.67763	0.02281
817.74897	0.02290
815.82032	0.02288
813.89167	0.02283
811.96301	0.02304
810.03436	0.02347
808.10571	0.02377
806.17705	0.02381
804.24840	0.02372
802.31975	0.02359
800.39109	0.02359
798.46244	0.02386
796.53379	0.02427
794.60513	0.02454
792.67648	0.02456
790.74783	0.02451
788.81917	0.02463
786.89052	0.02501
784.96187	0.02540
783.03321	0.02550
781.10456	0.02535
779.17591	0.02534
777.24725	0.02555
775.31860	0.02584
773.38995	0.02611
771.46130	0.02625
769.53264	0.02626
767.60399	0.02637
765.67534	0.02662
763.74668	0.02680
761.81803	0.02691
759.88938	0.02714
757.96072	0.02747
756.03207	0.02766
754.10342	0.02768
752.17476	0.02776
750.24611	0.02800
748.31746	0.02831
746.38880	0.02866
744.46015	0.02899
742.53150	0.02914
740.60284	0.02917
738.67419	0.02930
736.74554	0.02958
734.81688	0.02984
732.88823	0.02994
730.95958	0.03002
729.03092	0.03025
727.10227	0.03043
725.17362	0.03050
723.24496	0.03056
721.31631	0.03094
719.38766	0.03142
717.45900	0.03176
715.53035	0.03188
713.60170	0.03202
711.67304	0.03230
709.74439	0.03261
707.81574	0.03291
705.88708	0.03320
703.95843	0.03344
702.02978	0.03364
700.10113	0.03381
698.17247	0.03392
696.24382	0.03397
694.31517	0.03398
692.38651	0.03404
690.45786	0.03419
688.52921	0.03432
686.60055	0.03450
684.67190	0.03468
682.74325	0.03488
680.81459	0.03515
678.88594	0.03529
676.95729	0.03537
675.02863	0.03545
673.09998	0.03566
671.17133	0.03603
669.24267	0.03644
667.31402	0.03660
665.38537	0.03667
663.45671	0.03686
661.52806	0.03714
659.59941	0.03728
657.67075	0.03720
655.74210	0.03714
653.81345	0.03727
651.88479	0.03754
649.95614	0.03770
648.02749	0.03763
646.09883	0.03749
644.17018	0.03749
642.24153	0.03764
640.31287	0.03783
638.38422	0.03803
636.45557	0.03810
634.52692	0.03798
632.59826	0.03782
630.66961	0.03779
628.74096	0.03790
626.81230	0.03793
624.88365	0.03737
622.95500	0.03664
621.02634	0.03731
619.09769	0.03841
617.16904	0.03735
615.24038	0.03489
613.31173	0.03323
611.38308	0.03409
609.45442	0.03687
607.52577	0.03722
605.59712	0.03543
603.66846	0.03551
601.73981	0.03707
599.81116	0.03800
597.88250	0.03827
595.95385	0.03837
594.02520	0.03854
592.09654	0.03880
590.16789	0.03909
588.23924	0.03939
586.31058	0.03964
584.38193	0.03968
582.45328	0.03945
580.52462	0.03913
578.59597	0.03902
576.66732	0.03921
574.73866	0.03949
572.81001	0.03964
570.88136	0.03970
568.95270	0.03983
567.02405	0.03998
565.09540	0.04000
563.16675	0.04001
561.23809	0.04024
559.30944	0.04043
557.38079	0.04048
555.45213	0.04059
553.52348	0.04065
551.59483	0.04046
549.66617	0.04021
547.73752	0.04008
545.80887	0.04000
543.88021	0.03989
541.95156	0.03987
540.02291	0.03997
538.09425	0.04001
536.16560	0.03995
534.23695	0.03992
532.30829	0.03996
530.37964	0.04001
528.45099	0.04009
526.52233	0.04019
524.59368	0.04014
522.66503	0.03995
520.73637	0.03987
518.80772	0.03986
516.87907	0.03961
514.95041	0.03911
513.02176	0.03864
511.09311	0.03847
509.16445	0.03851
507.23580	0.03847
505.30715	0.03828
503.37849	0.03803
501.44984	0.03776
499.52119	0.03751
497.59254	0.03741
495.66388	0.03749
493.73523	0.03747
491.80658	0.03716
489.87792	0.03673
487.94927	0.03640
486.02062	0.03616
484.09196	0.03598
482.16331	0.03591
480.23466	0.03582
478.30600	0.03554
476.37735	0.03523
474.44870	0.03503
472.52004	0.03493
470.59139	0.03496
468.66274	0.03497
466.73408	0.03485
464.80543	0.03472
462.87678	0.03457
460.94812	0.03421
459.01947	0.03371
457.09082	0.03343
455.16216	0.03344
453.23351	0.03338
451.30486	0.03314
449.37620	0.03293
447.44755	0.03279
445.51890	0.03263
443.59024	0.03238
441.66159	0.03207
439.73294	0.03173
437.80428	0.03148
435.87563	0.03135
433.94698	0.03124
432.01833	0.03104
430.08967	0.03076
428.16102	0.03051
426.23237	0.03040
424.30371	0.03035
422.37506	0.03018
420.44641	0.02986
418.51775	0.02955
416.58910	0.02938
414.66045	0.02925
412.73179	0.02910
410.80314	0.02896
408.87449	0.02890
406.94583	0.02885
405.01718	0.02878
403.08853	0.02870
401.15987	0.02856
399.23122	0.02832
