3996.16951	0.05341
3994.24086	0.05344
3992.31220	0.05312
3990.38355	0.05283
3988.45490	0.05280
3986.52624	0.05279
3984.59759	0.05263
3982.66894	0.05247
3980.74028	0.05245
3978.81163	0.05240
3976.88298	0.05220
3974.95432	0.05205
3973.02567	0.05205
3971.09702	0.05194
3969.16836	0.05173
3967.23971	0.05182
3965.31106	0.05216
3963.38240	0.05222
3961.45375	0.05192
3959.52510	0.05182
3957.59645	0.05225
3955.66779	0.05271
3953.73914	0.05252
3951.81049	0.05193
3949.88183	0.05151
3947.95318	0.05130
3946.02453	0.05108
3944.09587	0.05077
3942.16722	0.05060
3940.23857	0.05078
3938.30991	0.05081
3936.38126	0.05042
3934.45261	0.05024
3932.52395	0.05052
3930.59530	0.05084
3928.66665	0.05095
3926.73799	0.05072
3924.80934	0.05011
3922.88069	0.04963
3920.95203	0.04971
3919.02338	0.05028
3917.09473	0.05109
3915.16607	0.05141
3913.23742	0.05087
3911.30877	0.05026
3909.38011	0.05025
3907.45146	0.05049
3905.52281	0.05047
3903.59415	0.05043
3901.66550	0.05064
3899.73685	0.05050
3897.80819	0.04977
3895.87954	0.04909
3893.95089	0.04887
3892.02224	0.04894
3890.09358	0.04892
3888.16493	0.04902
3886.23628	0.04956
3884.30762	0.04997
3882.37897	0.04979
3880.45032	0.04937
3878.52166	0.04915
3876.59301	0.04922
3874.66436	0.04929
3872.73570	0.04912
3870.80705	0.04911
3868.87840	0.04933
3866.94974	0.04937
3865.02109	0.04919
3863.09244	0.04899
3861.16378	0.04864
3859.23513	0.04817
3857.30648	0.04800
3855.37782	0.04845
3853.44917	0.04908
3851.52052	0.04921
3849.59186	0.04872
3847.66321	0.04789
3845.73456	0.04702
3843.80590	0.04645
3841.87725	0.04650
3839.94860	0.04714
3838.01994	0.04759
3836.09129	0.04729
3834.16264	0.04694
3832.23398	0.04690
3830.30533	0.04673
3828.37668	0.04644
3826.44803	0.04622
3824.51937	0.04599
3822.59072	0.04593
3820.66207	0.04621
3818.73341	0.04668
3816.80476	0.04702
3814.87611	0.04687
3812.94745	0.04612
3811.01880	0.04529
3809.09015	0.04503
3807.16149	0.04532
3805.23284	0.04557
3803.30419	0.04550
3801.37553	0.04552
3799.44688	0.04584
3797.51823	0.04593
3795.58957	0.04545
3793.66092	0.04495
3791.73227	0.04508
3789.80361	0.04563
3787.87496	0.04591
3785.94631	0.04542
3784.01765	0.04429
3782.08900	0.04352
3780.16035	0.04360
3778.23169	0.04366
3776.30304	0.04337
3774.37439	0.04364
3772.44573	0.04449
3770.51708	0.04480
3768.58843	0.04451
3766.65977	0.04435
3764.73112	0.04444
3762.80247	0.04437
3760.87381	0.04401
3758.94516	0.04372
3757.01651	0.04381
3755.08786	0.04406
3753.15920	0.04418
3751.23055	0.04409
3749.30190	0.04381
3747.37324	0.04355
3745.44459	0.04346
3743.51594	0.04360
3741.58728	0.04398
3739.65863	0.04418
3737.72998	0.04363
3735.80132	0.04278
3733.87267	0.04235
3731.94402	0.04191
3730.01536	0.04132
3728.08671	0.04120
3726.15806	0.04164
3724.22940	0.04202
3722.30075	0.04225
3720.37210	0.04252
3718.44344	0.04241
3716.51479	0.04197
3714.58614	0.04162
3712.65748	0.04137
3710.72883	0.04136
3708.80018	0.04153
3706.87152	0.04143
3704.94287	0.04111
3703.01422	0.04085
3701.08556	0.04070
3699.15691	0.04077
3697.22826	0.04077
3695.29960	0.04057
3693.37095	0.04050
3691.44230	0.04081
3689.51365	0.04121
3687.58499	0.04128
3685.65634	0.04105
3683.72769	0.04101
3681.79903	0.04139
3679.87038	0.04164
3677.94173	0.04140
3676.01307	0.04074
3674.08442	0.03990
3672.15577	0.03955
3670.22711	0.04013
3668.29846	0.04127
3666.36981	0.04213
3664.44115	0.04224
3662.51250	0.04188
3660.58385	0.04162
3658.65519	0.04173
3656.72654	0.04210
3654.79789	0.04245
3652.86923	0.04249
3650.94058	0.04244
3649.01193	0.04289
3647.08327	0.04367
3645.15462	0.04434
3643.22597	0.04483
3641.29731	0.04519
3639.36866	0.04542
3637.44001	0.04560
3635.51135	0.04554
3633.58270	0.04531
3631.65405	0.04505
3629.72539	0.04539
3627.79674	0.04641
3625.86809	0.04700
3623.93943	0.04670
3622.01078	0.04671
3620.08213	0.04738
3618.15348	0.04846
3616.22482	0.04946
3614.29617	0.04981
3612.36752	0.04974
3610.43886	0.04957
3608.51021	0.04949
3606.58156	0.04966
3604.65290	0.05023
3602.72425	0.05115
3600.79560	0.05227
3598.86694	0.05318
3596.93829	0.05362
3595.00964	0.05385
3593.08098	0.05423
3591.15233	0.05455
3589.22368	0.05448
3587.29502	0.05444
3585.36637	0.05499
3583.43772	0.05604
3581.50906	0.05700
3579.58041	0.05765
3577.65176	0.05812
3575.72310	0.05844
3573.79445	0.05868
3571.86580	0.05918
3569.93714	0.06000
3568.00849	0.06073
3566.07984	0.06110
3564.15118	0.06139
3562.22253	0.06174
3560.29388	0.06198
3558.36522	0.06245
3556.43657	0.06352
3554.50792	0.06472
3552.57927	0.06553
3550.65061	0.06602
3548.72196	0.06667
3546.79331	0.06754
3544.86465	0.06821
3542.93600	0.06858
3541.00735	0.06878
3539.07869	0.06878
3537.15004	0.06882
3535.22139	0.06911
3533.29273	0.06952
3531.36408	0.06993
3529.43543	0.07042
3527.50677	0.07121
3525.57812	0.07232
3523.64947	0.07322
3521.72081	0.07354
3519.79216	0.07371
3517.86351	0.07436
3515.93485	0.07536
3514.00620	0.07614
3512.07755	0.07651
3510.14889	0.07671
3508.22024	0.07702
3506.29159	0.07755
3504.36293	0.07826
3502.43428	0.07874
3500.50563	0.07902
3498.57697	0.07953
3496.64832	0.08001
3494.71967	0.08025
3492.79101	0.08076
3490.86236	0.08160
3488.93371	0.08233
3487.00506	0.08263
3485.07640	0.08264
3483.14775	0.08278
3481.21910	0.08296
3479.29044	0.08306
3477.36179	0.08344
3475.43314	0.08419
3473.50448	0.08486
3471.57583	0.08505
3469.64718	0.08508
3467.71852	0.08556
3465.78987	0.08646
3463.86122	0.08721
3461.93256	0.08759
3460.00391	0.08777
3458.07526	0.08795
3456.14660	0.08811
3454.21795	0.08829
3452.28930	0.08879
3450.36064	0.08955
3448.43199	0.09004
3446.50334	0.09017
3444.57468	0.09034
3442.64603	0.09063
3440.71738	0.09080
3438.78872	0.09103
3436.86007	0.09166
3434.93142	0.09240
3433.00276	0.09305
3431.07411	0.09380
3429.14546	0.09425
3427.21680	0.09409
3425.28815	0.09400
3423.35950	0.09453
3421.43084	0.09512
3419.50219	0.09530
3417.57354	0.09565
3415.64489	0.09669
3413.71623	0.09762
3411.78758	0.09782
3409.85893	0.09792
3407.93027	0.09832
3406.00162	0.09852
3404.07297	0.09843
3402.14431	0.09849
3400.21566	0.09894
3398.28701	0.09951
3396.35835	0.10010
3394.42970	0.10075
3392.50105	0.10126
3390.57239	0.10138
3388.64374	0.10131
3386.71509	0.10127
3384.78643	0.10118
3382.85778	0.10119
3380.92913	0.10173
3379.00047	0.10261
3377.07182	0.10332
3375.14317	0.10385
3373.21451	0.10444
3371.28586	0.10519
3369.35721	0.10603
3367.42855	0.10669
3365.49990	0.10720
3363.57125	0.10778
3361.64259	0.10851
3359.71394	0.10929
3357.78529	0.11012
3355.85663	0.11103
3353.92798	0.11190
3351.99933	0.11268
3350.07068	0.11354
3348.14202	0.11452
3346.21337	0.11552
3344.28472	0.11641
3342.35606	0.11722
3340.42741	0.11799
3338.49876	0.11869
3336.57010	0.11945
3334.64145	0.12036
3332.71280	0.12116
3330.78414	0.12177
3328.85549	0.12241
3326.92684	0.12298
3324.99818	0.12333
3323.06953	0.12370
3321.14088	0.12413
3319.21222	0.12445
3317.28357	0.12480
3315.35492	0.12539
3313.42626	0.12609
3311.49761	0.12662
3309.56896	0.12696
3307.64030	0.12709
3305.71165	0.12699
3303.78300	0.12692
3301.85434	0.12714
3299.92569	0.12748
3297.99704	0.12769
3296.06838	0.12768
3294.13973	0.12753
3292.21108	0.12742
3290.28242	0.12750
3288.35377	0.12768
3286.42512	0.12775
3284.49646	0.12766
3282.56781	0.12761
3280.63916	0.12764
3278.71051	0.12750
3276.78185	0.12716
3274.85320	0.12685
3272.92455	0.12661
3270.99589	0.12617
3269.06724	0.12565
3267.13859	0.12548
3265.20993	0.12551
3263.28128	0.12521
3261.35263	0.12449
3259.42397	0.12388
3257.49532	0.12352
3255.56667	0.12299
3253.63801	0.12226
3251.70936	0.12170
3249.78071	0.12121
3247.85205	0.12064
3245.92340	0.12032
3243.99475	0.12021
3242.06609	0.11989
3240.13744	0.11951
3238.20879	0.11937
3236.28013	0.11919
3234.35148	0.11852
3232.42283	0.11756
3230.49417	0.11692
3228.56552	0.11668
3226.63687	0.11649
3224.70821	0.11614
3222.77956	0.11588
3220.85091	0.11596
3218.92225	0.11617
3216.99360	0.11622
3215.06495	0.11596
3213.13630	0.11539
3211.20764	0.11463
3209.27899	0.11386
3207.35034	0.11342
3205.42168	0.11342
3203.49303	0.11345
3201.56438	0.11312
3199.63572	0.11236
3197.70707	0.11144
3195.77842	0.11056
3193.84976	0.10977
3191.92111	0.10931
3189.99246	0.10930
3188.06380	0.10948
3186.13515	0.10927
3184.20650	0.10832
3182.27784	0.10723
3180.34919	0.10663
3178.42054	0.10623
3176.49188	0.10558
3174.56323	0.10489
3172.63458	0.10436
3170.70592	0.10365
3168.77727	0.10279
3166.84862	0.10219
3164.91996	0.10169
3162.99131	0.10091
3161.06266	0.10004
3159.13400	0.09946
3157.20535	0.09892
3155.27670	0.09820
3153.34804	0.09769
3151.41939	0.09756
3149.49074	0.09729
3147.56209	0.09650
3145.63343	0.09553
3143.70478	0.09474
3141.77613	0.09418
3139.84747	0.09380
3137.91882	0.09347
3135.99017	0.09296
3134.06151	0.09227
3132.13286	0.09176
3130.20421	0.09164
3128.27555	0.09160
3126.34690	0.09141
3124.41825	0.09108
3122.48959	0.09047
3120.56094	0.08974
3118.63229	0.08949
3116.70363	0.08962
3114.77498	0.08951
3112.84633	0.08925
3110.91767	0.08931
3108.98902	0.08954
3107.06037	0.08974
3105.13171	0.09007
3103.20306	0.09035
3101.27441	0.09011
3099.34575	0.08960
3097.41710	0.08947
3095.48845	0.08973
3093.55979	0.09007
3091.63114	0.09050
3089.70249	0.09103
3087.77383	0.09128
3085.84518	0.09132
3083.91653	0.09154
3081.98787	0.09188
3080.05922	0.09202
3078.13057	0.09190
3076.20192	0.09162
3074.27326	0.09131
3072.34461	0.09113
3070.41596	0.09120
3068.48730	0.09136
3066.55865	0.09138
3064.63000	0.09119
3062.70134	0.09093
3060.77269	0.09078
3058.84404	0.09067
3056.91538	0.09028
3054.98673	0.08960
3053.05808	0.08885
3051.12942	0.08810
3049.20077	0.08743
3047.27212	0.08702
3045.34346	0.08678
3043.41481	0.08644
3041.48616	0.08598
3039.55750	0.08549
3037.62885	0.08491
3035.70020	0.08422
3033.77154	0.08356
3031.84289	0.08291
3029.91424	0.08219
3027.98558	0.08159
3026.05693	0.08124
3024.12828	0.08093
3022.19962	0.08041
3020.27097	0.07961
3018.34232	0.07871
3016.41366	0.07809
3014.48501	0.07802
3012.55636	0.07819
3010.62771	0.07816
3008.69905	0.07800
3006.77040	0.07798
3004.84175	0.07791
3002.91309	0.07760
3000.98444	0.07739
2999.05579	0.07756
2997.12713	0.07796
2995.19848	0.07834
2993.26983	0.07854
2991.34117	0.07858
2989.41252	0.07870
2987.48387	0.07901
2985.55521	0.07950
2983.62656	0.08021
2981.69791	0.08092
2979.76925	0.08126
2977.84060	0.08137
2975.91195	0.08170
2973.98329	0.08244
2972.05464	0.08329
2970.12599	0.08390
2968.19733	0.08429
2966.26868	0.08464
2964.34003	0.08520
2962.41137	0.08610
2960.48272	0.08701
2958.55407	0.08763
2956.62541	0.08789
2954.69676	0.08788
2952.76811	0.08775
2950.83945	0.08767
2948.91080	0.08785
2946.98215	0.08835
2945.05349	0.08878
2943.12484	0.08898
2941.19619	0.08936
2939.26754	0.09023
2937.33888	0.09119
2935.41023	0.09183
2933.48158	0.09225
2931.55292	0.09269
2929.62427	0.09333
2927.69562	0.09419
2925.76696	0.09490
2923.83831	0.09505
2921.90966	0.09462
2919.98100	0.09369
2918.05235	0.09261
2916.12370	0.09147
2914.19504	0.08981
2912.26639	0.08788
2910.33774	0.08627
2908.40908	0.08508
2906.48043	0.08425
2904.55178	0.08360
2902.62312	0.08287
2900.69447	0.08203
2898.76582	0.08123
2896.83716	0.08068
2894.90851	0.08031
2892.97986	0.07979
2891.05120	0.07917
2889.12255	0.07894
2887.19390	0.07907
2885.26524	0.07906
2883.33659	0.07877
2881.40794	0.07858
2879.47928	0.07876
2877.55063	0.07905
2875.62198	0.07901
2873.69333	0.07868
2871.76467	0.07833
2869.83602	0.07809
2867.90737	0.07783
2865.97871	0.07743
2864.05006	0.07699
2862.12141	0.07658
2860.19275	0.07628
2858.26410	0.07628
2856.33545	0.07658
2854.40679	0.07700
2852.47814	0.07721
2850.54949	0.07671
2848.62083	0.07546
2846.69218	0.07407
2844.76353	0.07300
2842.83487	0.07196
2840.90622	0.07072
2838.97757	0.06966
2837.04891	0.06904
2835.12026	0.06869
2833.19161	0.06844
2831.26295	0.06813
2829.33430	0.06752
2827.40565	0.06671
2825.47699	0.06615
2823.54834	0.06593
2821.61969	0.06575
2819.69103	0.06552
2817.76238	0.06536
2815.83373	0.06528
2813.90507	0.06521
2811.97642	0.06502
2810.04777	0.06470
2808.11912	0.06438
2806.19046	0.06410
2804.26181	0.06377
2802.33316	0.06342
2800.40450	0.06330
2798.47585	0.06334
2796.54720	0.06314
2794.61854	0.06266
2792.68989	0.06223
2790.76124	0.06199
2788.83258	0.06188
2786.90393	0.06175
2784.97528	0.06147
2783.04662	0.06118
2781.11797	0.06100
2779.18932	0.06092
2777.26066	0.06090
2775.33201	0.06076
2773.40336	0.06053
2771.47470	0.06034
2769.54605	0.06012
2767.61740	0.05980
2765.68874	0.05954
2763.76009	0.05932
2761.83144	0.05907
2759.90278	0.05893
2757.97413	0.05885
2756.04548	0.05862
2754.11682	0.05838
2752.18817	0.05834
2750.25952	0.05827
2748.33086	0.05798
2746.40221	0.05773
2744.47356	0.05767
2742.54490	0.05756
2740.61625	0.05729
2738.68760	0.05696
2736.75895	0.05678
2734.83029	0.05671
2732.90164	0.05661
2730.97299	0.05647
2729.04433	0.05632
2727.11568	0.05620
2725.18703	0.05610
2723.25837	0.05605
2721.32972	0.05604
2719.40107	0.05590
2717.47241	0.05555
2715.54376	0.05525
2713.61511	0.05511
2711.68645	0.05498
2709.75780	0.05481
2707.82915	0.05466
2705.90049	0.05444
2703.97184	0.05418
2702.04319	0.05400
2700.11453	0.05388
2698.18588	0.05378
2696.25723	0.05371
2694.32857	0.05347
2692.39992	0.05307
2690.47127	0.05282
2688.54261	0.05284
2686.61396	0.05289
2684.68531	0.05286
2682.75665	0.05276
2680.82800	0.05263
2678.89935	0.05255
2676.97069	0.05252
2675.04204	0.05241
2673.11339	0.05228
2671.18474	0.05222
2669.25608	0.05213
2667.32743	0.05199
2665.39878	0.05191
2663.47012	0.05194
2661.54147	0.05181
2659.61282	0.05136
2657.68416	0.05083
2655.75551	0.05051
2653.82686	0.05038
2651.89820	0.05017
2649.96955	0.04979
2648.04090	0.04937
2646.11224	0.04906
2644.18359	0.04876
2642.25494	0.04835
2640.32628	0.04804
2638.39763	0.04794
2636.46898	0.04769
2634.54032	0.04728
2632.61167	0.04695
2630.68302	0.04682
2628.75436	0.04672
2626.82571	0.04654
2624.89706	0.04642
2622.96840	0.04626
2621.03975	0.04586
2619.11110	0.04547
2617.18244	0.04541
2615.25379	0.04539
2613.32514	0.04507
2611.39648	0.04466
2609.46783	0.04441
2607.53918	0.04423
2605.61052	0.04400
2603.68187	0.04380
2601.75322	0.04386
2599.82457	0.04400
2597.89591	0.04383
2595.96726	0.04358
2594.03861	0.04352
2592.10995	0.04339
2590.18130	0.04289
2588.25265	0.04218
2586.32399	0.04155
2584.39534	0.04129
2582.46669	0.04146
2580.53803	0.04166
2578.60938	0.04161
2576.68073	0.04143
2574.75207	0.04130
2572.82342	0.04140
2570.89477	0.04158
2568.96611	0.04142
2567.03746	0.04103
2565.10881	0.04070
2563.18015	0.04041
2561.25150	0.04008
2559.32285	0.03988
2557.39419	0.04002
2555.46554	0.04040
2553.53689	0.04064
2551.60823	0.04050
2549.67958	0.04021
2547.75093	0.03994
2545.82227	0.03984
2543.89362	0.03999
2541.96497	0.03993
2540.03631	0.03954
2538.10766	0.03920
2536.17901	0.03887
2534.25036	0.03853
2532.32170	0.03843
2530.39305	0.03865
2528.46440	0.03893
2526.53574	0.03878
2524.60709	0.03827
2522.67844	0.03806
2520.74978	0.03819
2518.82113	0.03804
2516.89248	0.03768
2514.96382	0.03761
2513.03517	0.03771
2511.10652	0.03753
2509.17786	0.03717
2507.24921	0.03710
2505.32056	0.03730
2503.39190	0.03750
2501.46325	0.03762
2499.53460	0.03749
2497.60594	0.03710
2495.67729	0.03696
2493.74864	0.03729
2491.81998	0.03753
2489.89133	0.03724
2487.96268	0.03675
2486.03402	0.03656
2484.10537	0.03665
2482.17672	0.03687
2480.24806	0.03704
2478.31941	0.03685
2476.39076	0.03647
2474.46210	0.03620
2472.53345	0.03604
2470.60480	0.03604
2468.67615	0.03607
2466.74749	0.03592
2464.81884	0.03576
2462.89019	0.03575
2460.96153	0.03586
2459.03288	0.03587
2457.10423	0.03559
2455.17557	0.03519
2453.24692	0.03483
2451.31827	0.03475
2449.38961	0.03512
2447.46096	0.03538
2445.53231	0.03527
2443.60365	0.03521
2441.67500	0.03529
2439.74635	0.03537
2437.81769	0.03548
2435.88904	0.03552
2433.96039	0.03544
2432.03173	0.03525
2430.10308	0.03498
2428.17443	0.03479
2426.24577	0.03477
2424.31712	0.03496
2422.38847	0.03525
2420.45981	0.03529
2418.53116	0.03516
2416.60251	0.03515
2414.67385	0.03506
2412.74520	0.03489
2410.81655	0.03501
2408.88789	0.03527
2406.95924	0.03527
2405.03059	0.03494
2403.10193	0.03460
2401.17328	0.03469
2399.24463	0.03496
2397.31598	0.03483
2395.38732	0.03458
2393.45867	0.03482
2391.53002	0.03532
2389.60136	0.03555
2387.67271	0.03552
2385.74406	0.03546
2383.81540	0.03538
2381.88675	0.03534
2379.95810	0.03537
2378.02944	0.03571
2376.10079	0.03599
2374.17214	0.03617
2372.24348	0.03605
2370.31483	0.03489
2368.38618	0.03657
2366.45752	0.03739
2364.52887	0.03698
2362.60022	0.03982
2360.67156	0.03659
2358.74291	0.03463
2356.81426	0.03661
2354.88560	0.03763
2352.95695	0.03745
2351.02830	0.03586
2349.09964	0.03546
2347.17099	0.03587
2345.24234	0.03596
2343.31368	0.03669
2341.38503	0.03870
2339.45638	0.03544
2337.52772	0.03916
2335.59907	0.03673
2333.67042	0.03548
2331.74177	0.03541
2329.81311	0.03516
2327.88446	0.03481
2325.95581	0.03442
2324.02715	0.03415
2322.09850	0.03410
2320.16985	0.03415
2318.24119	0.03398
2316.31254	0.03341
2314.38389	0.03266
2312.45523	0.03227
2310.52658	0.03240
2308.59793	0.03279
2306.66927	0.03288
2304.74062	0.03276
2302.81197	0.03241
2300.88331	0.03189
2298.95466	0.03130
2297.02601	0.03081
2295.09735	0.03037
2293.16870	0.03002
2291.24005	0.02978
2289.31139	0.02964
2287.38274	0.02937
2285.45409	0.02882
2283.52543	0.02831
2281.59678	0.02827
2279.66813	0.02835
2277.73947	0.02796
2275.81082	0.02726
2273.88217	0.02675
2271.95351	0.02667
2270.02486	0.02697
2268.09621	0.02719
2266.16755	0.02695
2264.23890	0.02677
2262.31025	0.02712
2260.38160	0.02729
2258.45294	0.02678
2256.52429	0.02620
2254.59564	0.02588
2252.66698	0.02547
2250.73833	0.02508
2248.80968	0.02512
2246.88102	0.02517
2244.95237	0.02500
2243.02372	0.02482
2241.09506	0.02462
2239.16641	0.02405
2237.23776	0.02334
2235.30910	0.02304
2233.38045	0.02331
2231.45180	0.02389
2229.52314	0.02430
2227.59449	0.02411
2225.66584	0.02357
2223.73718	0.02350
2221.80853	0.02346
2219.87988	0.02269
2217.95122	0.02200
2216.02257	0.02161
2214.09392	0.02078
2212.16526	0.02003
2210.23661	0.01996
2208.30796	0.02026
2206.37930	0.02034
2204.45065	0.01966
2202.52200	0.01892
2200.59334	0.01893
2198.66469	0.01899
2196.73604	0.01883
2194.80739	0.01899
2192.87873	0.01919
2190.95008	0.01888
2189.02143	0.01853
2187.09277	0.01861
2185.16412	0.01846
2183.23547	0.01775
2181.30681	0.01719
2179.37816	0.01726
2177.44951	0.01751
2175.52085	0.01697
2173.59220	0.01529
2171.66355	0.01364
2169.73489	0.01316
2167.80624	0.01356
2165.87759	0.01346
2163.94893	0.01238
2162.02028	0.01168
2160.09163	0.01202
2158.16297	0.01281
2156.23432	0.01399
2154.30567	0.01490
2152.37701	0.01527
2150.44836	0.01610
2148.51971	0.01715
2146.59105	0.01753
2144.66240	0.01784
2142.73375	0.01878
2140.80509	0.02006
2138.87644	0.02089
2136.94779	0.02097
2135.01913	0.02056
2133.09048	0.02009
2131.16183	0.02030
2129.23318	0.02141
2127.30452	0.02251
2125.37587	0.02317
2123.44722	0.02352
2121.51856	0.02337
2119.58991	0.02288
2117.66126	0.02262
2115.73260	0.02267
2113.80395	0.02290
2111.87530	0.02302
2109.94664	0.02259
2108.01799	0.02200
2106.08934	0.02187
2104.16068	0.02174
2102.23203	0.02099
2100.30338	0.01996
2098.37472	0.01953
2096.44607	0.02035
2094.51742	0.02164
2092.58876	0.02234
2090.66011	0.02254
2088.73146	0.02246
2086.80280	0.02192
2084.87415	0.02140
2082.94550	0.02120
2081.01684	0.02075
2079.08819	0.01964
2077.15954	0.01846
2075.23088	0.01816
2073.30223	0.01878
2071.37358	0.01924
2069.44492	0.01889
2067.51627	0.01855
2065.58762	0.01851
2063.65896	0.01811
2061.73031	0.01777
2059.80166	0.01789
2057.87301	0.01786
2055.94435	0.01766
2054.01570	0.01768
2052.08705	0.01754
2050.15839	0.01677
2048.22974	0.01586
2046.30109	0.01553
2044.37243	0.01527
2042.44378	0.01443
2040.51513	0.01359
2038.58647	0.01356
2036.65782	0.01442
2034.72917	0.01525
2032.80051	0.01512
2030.87186	0.01424
2028.94321	0.01331
2027.01455	0.01281
2025.08590	0.01246
2023.15725	0.01170
2021.22859	0.01133
2019.29994	0.01200
2017.37129	0.01284
2015.44263	0.01333
2013.51398	0.01374
2011.58533	0.01416
2009.65667	0.01432
2007.72802	0.01372
2005.79937	0.01281
2003.87071	0.01308
2001.94206	0.01441
2000.01341	0.01534
1998.08475	0.01576
1996.15610	0.01593
1994.22745	0.01545
1992.29880	0.01472
1990.37014	0.01452
1988.44149	0.01466
1986.51284	0.01462
1984.58418	0.01442
1982.65553	0.01420
1980.72688	0.01349
1978.79822	0.01216
1976.86957	0.01149
1974.94092	0.01195
1973.01226	0.01231
1971.08361	0.01227
1969.15496	0.01243
1967.22630	0.01280
1965.29765	0.01360
1963.36900	0.01500
1961.44034	0.01638
1959.51169	0.01714
1957.58304	0.01718
1955.65438	0.01667
1953.72573	0.01602
1951.79708	0.01581
1949.86842	0.01606
1947.93977	0.01637
1946.01112	0.01672
1944.08246	0.01721
1942.15381	0.01760
1940.22516	0.01782
1938.29650	0.01813
1936.36785	0.01846
1934.43920	0.01842
1932.51054	0.01810
1930.58189	0.01787
1928.65324	0.01776
1926.72458	0.01767
1924.79593	0.01781
1922.86728	0.01847
1920.93863	0.01918
1919.00997	0.01930
1917.08132	0.01904
1915.15267	0.01890
1913.22401	0.01900
1911.29536	0.01905
1909.36671	0.01882
1907.43805	0.01856
1905.50940	0.01859
1903.58075	0.01882
1901.65209	0.01903
1899.72344	0.01902
1897.79479	0.01879
1895.86613	0.01858
1893.93748	0.01848
1892.00883	0.01848
1890.08017	0.01869
1888.15152	0.01890
1886.22287	0.01888
1884.29421	0.01876
1882.36556	0.01869
1880.43691	0.01875
1878.50825	0.01891
1876.57960	0.01902
1874.65095	0.01906
1872.72229	0.01905
1870.79364	0.01876
1868.86499	0.01838
1866.93633	0.01833
1865.00768	0.01842
1863.07903	0.01841
1861.15037	0.01846
1859.22172	0.01859
1857.29307	0.01875
1855.36442	0.01893
1853.43576	0.01890
1851.50711	0.01854
1849.57846	0.01817
1847.64980	0.01812
1845.72115	0.01828
1843.79250	0.01842
1841.86384	0.01842
1839.93519	0.01830
1838.00654	0.01819
1836.07788	0.01819
1834.14923	0.01825
1832.22058	0.01830
1830.29192	0.01828
1828.36327	0.01819
1826.43462	0.01808
1824.50596	0.01792
1822.57731	0.01776
1820.64866	0.01772
1818.72000	0.01789
1816.79135	0.01817
1814.86270	0.01844
1812.93404	0.01844
1811.00539	0.01811
1809.07674	0.01774
1807.14808	0.01761
1805.21943	0.01769
1803.29078	0.01786
1801.36212	0.01793
1799.43347	0.01782
1797.50482	0.01768
1795.57616	0.01764
1793.64751	0.01769
1791.71886	0.01776
1789.79021	0.01773
1787.86155	0.01757
1785.93290	0.01742
1784.00425	0.01741
1782.07559	0.01739
1780.14694	0.01721
1778.21829	0.01705
1776.28963	0.01702
1774.36098	0.01702
1772.43233	0.01701
1770.50367	0.01702
1768.57502	0.01704
1766.64637	0.01706
1764.71771	0.01712
1762.78906	0.01726
1760.86041	0.01740
1758.93175	0.01752
1757.00310	0.01774
1755.07445	0.01803
1753.14579	0.01827
1751.21714	0.01853
1749.28849	0.01894
1747.35983	0.01940
1745.43118	0.01979
1743.50253	0.02014
1741.57387	0.02046
1739.64522	0.02077
1737.71657	0.02109
1735.78791	0.02145
1733.85926	0.02181
1731.93061	0.02210
1730.00195	0.02231
1728.07330	0.02258
1726.14465	0.02295
1724.21599	0.02336
1722.28734	0.02375
1720.35869	0.02409
1718.43004	0.02446
1716.50138	0.02495
1714.57273	0.02562
1712.64408	0.02645
1710.71542	0.02746
1708.78677	0.02869
1706.85812	0.03017
1704.92946	0.03199
1703.00081	0.03416
1701.07216	0.03668
1699.14350	0.03944
1697.21485	0.04240
1695.28620	0.04549
1693.35754	0.04852
1691.42889	0.05151
1689.50024	0.05457
1687.57158	0.05772
1685.64293	0.06108
1683.71428	0.06468
1681.78562	0.06845
1679.85697	0.07243
1677.92832	0.07667
1675.99966	0.08111
1674.07101	0.08572
1672.14236	0.09054
1670.21370	0.09554
1668.28505	0.10051
1666.35640	0.10532
1664.42774	0.11001
1662.49909	0.11458
1660.57044	0.11889
1658.64178	0.12283
1656.71313	0.12636
1654.78448	0.12954
1652.85583	0.13239
1650.92717	0.13480
1648.99852	0.13692
1647.06987	0.13900
1645.14121	0.14097
1643.21256	0.14271
1641.28391	0.14430
1639.35525	0.14587
1637.42660	0.14746
1635.49795	0.14894
1633.56929	0.15009
1631.64064	0.15077
1629.71199	0.15090
1627.78333	0.15033
1625.85468	0.14883
1623.92603	0.14641
1621.99737	0.14326
1620.06872	0.13956
1618.14007	0.13544
1616.21141	0.13106
1614.28276	0.12656
1612.35411	0.12199
1610.42545	0.11744
1608.49680	0.11296
1606.56815	0.10861
1604.63949	0.10447
1602.71084	0.10060
1600.78219	0.09704
1598.85353	0.09380
1596.92488	0.09082
1594.99623	0.08814
1593.06757	0.08586
1591.13892	0.08402
1589.21027	0.08259
1587.28161	0.08153
1585.35296	0.08087
1583.42431	0.08056
1581.49566	0.08051
1579.56700	0.08083
1577.63835	0.08163
1575.70970	0.08293
1573.78104	0.08463
1571.85239	0.08669
1569.92374	0.08911
1567.99508	0.09179
1566.06643	0.09462
1564.13778	0.09759
1562.20912	0.10068
1560.28047	0.10386
1558.35182	0.10709
1556.42316	0.11019
1554.49451	0.11292
1552.56586	0.11517
1550.63720	0.11703
1548.70855	0.11869
1546.77990	0.12013
1544.85124	0.12128
1542.92259	0.12215
1540.99394	0.12280
1539.06528	0.12326
1537.13663	0.12349
1535.20798	0.12347
1533.27932	0.12325
1531.35067	0.12290
1529.42202	0.12240
1527.49336	0.12173
1525.56471	0.12087
1523.63606	0.11987
1521.70740	0.11876
1519.77875	0.11759
1517.85010	0.11632
1515.92145	0.11485
1513.99279	0.11303
1512.06414	0.11084
1510.13549	0.10836
1508.20683	0.10566
1506.27818	0.10277
1504.34953	0.09968
1502.42087	0.09645
1500.49222	0.09320
1498.56357	0.09003
1496.63491	0.08689
1494.70626	0.08372
1492.77761	0.08063
1490.84895	0.07776
1488.92030	0.07516
1486.99165	0.07292
1485.06299	0.07116
1483.13434	0.06997
1481.20569	0.06931
1479.27703	0.06904
1477.34838	0.06913
1475.41973	0.06962
1473.49107	0.07051
1471.56242	0.07180
1469.63377	0.07344
1467.70511	0.07531
1465.77646	0.07718
1463.84781	0.07892
1461.91915	0.08063
1459.99050	0.08247
1458.06185	0.08445
1456.13319	0.08628
1454.20454	0.08775
1452.27589	0.08878
1450.34724	0.08930
1448.41858	0.08931
1446.48993	0.08893
1444.56128	0.08829
1442.63262	0.08750
1440.70397	0.08661
1438.77532	0.08554
1436.84666	0.08415
1434.91801	0.08249
1432.98936	0.08075
1431.06070	0.07920
1429.13205	0.07796
1427.20340	0.07699
1425.27474	0.07627
1423.34609	0.07578
1421.41744	0.07545
1419.48878	0.07527
1417.56013	0.07521
1415.63148	0.07526
1413.70282	0.07540
1411.77417	0.07564
1409.84552	0.07599
1407.91686	0.07651
1405.98821	0.07707
1404.05956	0.07746
1402.13090	0.07756
1400.20225	0.07746
1398.27360	0.07731
1396.34494	0.07716
1394.41629	0.07699
1392.48764	0.07675
1390.55898	0.07649
1388.63033	0.07626
1386.70168	0.07603
1384.77302	0.07576
1382.84437	0.07546
1380.91572	0.07521
1378.98707	0.07497
1377.05841	0.07456
1375.12976	0.07387
1373.20111	0.07295
1371.27245	0.07189
1369.34380	0.07071
1367.41515	0.06948
1365.48649	0.06829
1363.55784	0.06719
1361.62919	0.06629
1359.70053	0.06558
1357.77188	0.06505
1355.84323	0.06482
1353.91457	0.06498
1351.98592	0.06539
1350.05727	0.06599
1348.12861	0.06681
1346.19996	0.06782
1344.27131	0.06889
1342.34265	0.06995
1340.41400	0.07086
1338.48535	0.07149
1336.55669	0.07178
1334.62804	0.07175
1332.69939	0.07131
1330.77073	0.07051
1328.84208	0.06957
1326.91343	0.06867
1324.98477	0.06787
1323.05612	0.06724
1321.12747	0.06681
1319.19881	0.06653
1317.27016	0.06630
1315.34151	0.06599
1313.41286	0.06555
1311.48420	0.06507
1309.55555	0.06459
1307.62690	0.06413
1305.69824	0.06370
1303.76959	0.06335
1301.84094	0.06305
1299.91228	0.06277
1297.98363	0.06256
1296.05498	0.06252
1294.12632	0.06271
1292.19767	0.06314
1290.26902	0.06371
1288.34036	0.06436
1286.41171	0.06505
1284.48306	0.06571
1282.55440	0.06626
1280.62575	0.06665
1278.69710	0.06688
1276.76844	0.06699
1274.83979	0.06707
1272.91114	0.06715
1270.98248	0.06727
1269.05383	0.06751
1267.12518	0.06786
1265.19652	0.06833
1263.26787	0.06892
1261.33922	0.06962
1259.41056	0.07043
1257.48191	0.07134
1255.55326	0.07232
1253.62460	0.07339
1251.69595	0.07453
1249.76730	0.07571
1247.83864	0.07697
1245.90999	0.07832
1243.98134	0.07962
1242.05269	0.08084
1240.12403	0.08200
1238.19538	0.08295
1236.26673	0.08360
1234.33807	0.08397
1232.40942	0.08396
1230.48077	0.08349
1228.55211	0.08266
1226.62346	0.08153
1224.69481	0.08010
1222.76615	0.07844
1220.83750	0.07680
1218.90885	0.07538
1216.98019	0.07424
1215.05154	0.07334
1213.12289	0.07276
1211.19423	0.07256
1209.26558	0.07270
1207.33693	0.07308
1205.40827	0.07353
1203.47962	0.07379
1201.55097	0.07368
1199.62231	0.07321
1197.69366	0.07228
1195.76501	0.07110
1193.83635	0.06985
1191.90770	0.06863
1189.97905	0.06742
1188.05039	0.06628
1186.12174	0.06528
1184.19309	0.06444
1182.26443	0.06378
1180.33578	0.06331
1178.40713	0.06293
1176.47848	0.06259
1174.54982	0.06227
1172.62117	0.06199
1170.69252	0.06183
1168.76386	0.06178
1166.83521	0.06174
1164.90656	0.06176
1162.97790	0.06181
1161.04925	0.06169
1159.12060	0.06129
1157.19194	0.06073
1155.26329	0.06003
1153.33464	0.05905
1151.40598	0.05786
1149.47733	0.05670
1147.54868	0.05570
1145.62002	0.05490
1143.69137	0.05422
1141.76272	0.05362
1139.83406	0.05299
1137.90541	0.05229
1135.97676	0.05168
1134.04810	0.05129
1132.11945	0.05107
1130.19080	0.05093
1128.26214	0.05078
1126.33349	0.05054
1124.40484	0.05030
1122.47618	0.05011
1120.54753	0.04994
1118.61888	0.04974
1116.69022	0.04955
1114.76157	0.04939
1112.83292	0.04917
1110.90427	0.04909
1108.97561	0.04935
1107.04696	0.04975
1105.11831	0.05004
1103.18965	0.05032
1101.26100	0.05072
1099.33235	0.05119
1097.40369	0.05171
1095.47504	0.05228
1093.54639	0.05286
1091.61773	0.05361
1089.68908	0.05462
1087.76043	0.05581
1085.83177	0.05711
1083.90312	0.05839
1081.97447	0.05940
1080.04581	0.06004
1078.11716	0.06035
1076.18851	0.06032
1074.25985	0.06000
1072.33120	0.05960
1070.40255	0.05931
1068.47389	0.05910
1066.54524	0.05896
1064.61659	0.05898
1062.68793	0.05902
1060.75928	0.05888
1058.83063	0.05860
1056.90197	0.05828
1054.97332	0.05786
1053.04467	0.05739
1051.11601	0.05688
1049.18736	0.05631
1047.25871	0.05590
1045.33005	0.05571
1043.40140	0.05556
1041.47275	0.05536
1039.54410	0.05529
1037.61544	0.05552
1035.68679	0.05601
1033.75814	0.05652
1031.82948	0.05679
1029.90083	0.05660
1027.97218	0.05593
1026.04352	0.05500
1024.11487	0.05400
1022.18622	0.05298
1020.25756	0.05205
1018.32891	0.05137
1016.40026	0.05092
1014.47160	0.05046
1012.54295	0.04983
1010.61430	0.04911
1008.68564	0.04842
1006.75699	0.04776
1004.82834	0.04704
1002.89968	0.04633
1000.97103	0.04573
999.04238	0.04522
997.11372	0.04469
995.18507	0.04413
993.25642	0.04363
991.32776	0.04322
989.39911	0.04284
987.47046	0.04254
985.54180	0.04232
983.61315	0.04210
981.68450	0.04186
979.75584	0.04175
977.82719	0.04181
975.89854	0.04185
973.96989	0.04181
972.04123	0.04170
970.11258	0.04148
968.18393	0.04120
966.25527	0.04094
964.32662	0.04066
962.39797	0.04033
960.46931	0.04005
958.54066	0.03987
956.61201	0.03965
954.68335	0.03926
952.75470	0.03886
950.82605	0.03860
948.89739	0.03857
946.96874	0.03870
945.04009	0.03884
943.11143	0.03891
941.18278	0.03899
939.25413	0.03904
937.32547	0.03894
935.39682	0.03879
933.46817	0.03876
931.53951	0.03884
929.61086	0.03886
927.68221	0.03879
925.75355	0.03873
923.82490	0.03874
921.89625	0.03870
919.96759	0.03853
918.03894	0.03830
916.11029	0.03810
914.18163	0.03792
912.25298	0.03774
910.32433	0.03755
908.39567	0.03740
906.46702	0.03721
904.53837	0.03694
902.60972	0.03666
900.68106	0.03642
898.75241	0.03631
896.82376	0.03632
894.89510	0.03623
892.96645	0.03596
891.03780	0.03576
889.10914	0.03574
887.18049	0.03571
885.25184	0.03559
883.32318	0.03559
881.39453	0.03575
879.46588	0.03580
877.53722	0.03576
875.60857	0.03584
873.67992	0.03587
871.75126	0.03563
869.82261	0.03529
867.89396	0.03504
865.96530	0.03493
864.03665	0.03495
862.10800	0.03500
860.17934	0.03503
858.25069	0.03501
856.32204	0.03500
854.39338	0.03503
852.46473	0.03508
850.53608	0.03507
848.60742	0.03496
846.67877	0.03485
844.75012	0.03492
842.82146	0.03502
840.89281	0.03502
838.96416	0.03491
837.03551	0.03478
835.10685	0.03472
833.17820	0.03467
831.24955	0.03462
829.32089	0.03458
827.39224	0.03456
825.46359	0.03466
823.53493	0.03498
821.60628	0.03542
819.67763	0.03574
817.74897	0.03598
815.82032	0.03630
813.89167	0.03653
811.96301	0.03653
810.03436	0.03651
808.10571	0.03661
806.17705	0.03676
804.24840	0.03692
802.31975	0.03708
800.39109	0.03725
798.46244	0.03742
796.53379	0.03760
794.60513	0.03778
792.67648	0.03800
790.74783	0.03833
788.81917	0.03868
786.89052	0.03892
784.96187	0.03904
783.03321	0.03919
781.10456	0.03948
779.17591	0.03968
777.24725	0.03970
775.31860	0.03969
773.38995	0.03983
771.46130	0.04019
769.53264	0.04060
767.60399	0.04092
765.67534	0.04122
763.74668	0.04158
761.81803	0.04193
759.88938	0.04220
757.96072	0.04235
756.03207	0.04253
754.10342	0.04280
752.17476	0.04298
750.24611	0.04315
748.31746	0.04354
746.38880	0.04409
744.46015	0.04452
742.53150	0.04471
740.60284	0.04484
738.67419	0.04507
736.74554	0.04535
734.81688	0.04563
732.88823	0.04597
730.95958	0.04634
729.03092	0.04665
727.10227	0.04696
725.17362	0.04737
723.24496	0.04774
721.31631	0.04805
719.38766	0.04831
717.45900	0.04874
715.53035	0.04918
713.60170	0.04947
711.67304	0.04971
709.74439	0.04997
707.81574	0.05024
705.88708	0.05059
703.95843	0.05103
702.02978	0.05142
700.10113	0.05165
698.17247	0.05188
696.24382	0.05212
694.31517	0.05233
692.38651	0.05246
690.45786	0.05251
688.52921	0.05278
686.60055	0.05300
684.67190	0.05319
682.74325	0.05341
680.81459	0.05365
678.88594	0.05417
676.95729	0.05447
675.02863	0.05463
673.09998	0.05480
671.17133	0.05506
669.24267	0.05531
667.31402	0.05562
665.38537	0.05577
663.45671	0.05598
661.52806	0.05618
659.59941	0.05635
657.67075	0.05658
655.74210	0.05677
653.81345	0.05684
651.88479	0.05688
649.95614	0.05700
648.02749	0.05719
646.09883	0.05740
644.17018	0.05753
642.24153	0.05759
640.31287	0.05765
638.38422	0.05774
636.45557	0.05787
634.52692	0.05796
632.59826	0.05800
630.66961	0.05816
628.74096	0.05874
626.81230	0.05721
624.88365	0.05541
622.95500	0.05507
621.02634	0.05584
619.09769	0.05635
617.16904	0.05726
615.24038	0.05820
613.31173	0.05784
611.38308	0.05677
609.45442	0.05631
607.52577	0.05618
605.59712	0.05654
603.66846	0.05841
601.73981	0.06067
599.81116	0.06140
597.88250	0.06081
595.95385	0.06001
594.02520	0.05960
592.09654	0.05963
590.16789	0.05980
588.23924	0.05974
586.31058	0.05958
584.38193	0.05972
582.45328	0.06002
580.52462	0.06006
578.59597	0.05993
576.66732	0.05985
574.73866	0.05990
572.81001	0.06007
570.88136	0.06014
568.95270	0.06004
567.02405	0.06007
565.09540	0.06031
563.16675	0.06057
561.23809	0.06083
559.30944	0.06112
557.38079	0.06128
555.45213	0.06125
553.52348	0.06120
551.59483	0.06110
549.66617	0.06092
547.73752	0.06084
545.80887	0.06090
543.88021	0.06095
541.95156	0.06098
540.02291	0.06100
538.09425	0.06088
536.16560	0.06063
534.23695	0.06058
532.30829	0.06084
530.37964	0.06108
528.45099	0.06110
526.52233	0.06103
524.59368	0.06100
522.66503	0.06094
520.73637	0.06076
518.80772	0.06051
516.87907	0.06021
514.95041	0.05980
513.02176	0.05941
511.09311	0.05916
509.16445	0.05899
507.23580	0.05884
505.30715	0.05872
503.37849	0.05848
501.44984	0.05814
499.52119	0.05789
497.59254	0.05773
495.66388	0.05752
493.73523	0.05714
491.80658	0.05665
489.87792	0.05617
487.94927	0.05579
486.02062	0.05555
484.09196	0.05531
482.16331	0.05494
480.23466	0.05459
478.30600	0.05440
476.37735	0.05438
474.44870	0.05440
472.52004	0.05413
470.59139	0.05353
468.66274	0.05300
466.73408	0.05277
464.80543	0.05259
462.87678	0.05225
460.94812	0.05178
459.01947	0.05131
457.09082	0.05091
455.16216	0.05051
453.23351	0.05009
451.30486	0.04970
449.37620	0.04940
447.44755	0.04911
445.51890	0.04877
443.59024	0.04843
441.66159	0.04813
439.73294	0.04785
437.80428	0.04765
435.87563	0.04743
433.94698	0.04712
432.01833	0.04684
430.08967	0.04661
428.16102	0.04629
426.23237	0.04587
424.30371	0.04551
422.37506	0.04531
420.44641	0.04518
418.51775	0.04492
416.58910	0.04454
414.66045	0.04422
412.73179	0.04404
410.80314	0.04391
408.87449	0.04368
406.94583	0.04341
405.01718	0.04317
403.08853	0.04286
401.15987	0.04251
399.23122	0.04227
