3996.16951	0.06868
3994.24086	0.06878
3992.31220	0.06867
3990.38355	0.06849
3988.45490	0.06857
3986.52624	0.06886
3984.59759	0.06884
3982.66894	0.06855
3980.74028	0.06875
3978.81163	0.06947
3976.88298	0.06979
3974.95432	0.06943
3973.02567	0.06892
3971.09702	0.06850
3969.16836	0.06820
3967.23971	0.06816
3965.31106	0.06823
3963.38240	0.06801
3961.45375	0.06750
3959.52510	0.06718
3957.59645	0.06736
3955.66779	0.06773
3953.73914	0.06778
3951.81049	0.06767
3949.88183	0.06762
3947.95318	0.06745
3946.02453	0.06716
3944.09587	0.06684
3942.16722	0.06676
3940.23857	0.06692
3938.30991	0.06666
3936.38126	0.06609
3934.45261	0.06607
3932.52395	0.06667
3930.59530	0.06711
3928.66665	0.06694
3926.73799	0.06640
3924.80934	0.06588
3922.88069	0.06574
3920.95203	0.06591
3919.02338	0.06600
3917.09473	0.06602
3915.16607	0.06606
3913.23742	0.06579
3911.30877	0.06539
3909.38011	0.06550
3907.45146	0.06589
3905.52281	0.06582
3903.59415	0.06543
3901.66550	0.06526
3899.73685	0.06507
3897.80819	0.06469
3895.87954	0.06450
3893.95089	0.06459
3892.02224	0.06476
3890.09358	0.06492
3888.16493	0.06493
3886.23628	0.06472
3884.30762	0.06433
3882.37897	0.06389
3880.45032	0.06371
3878.52166	0.06380
3876.59301	0.06381
3874.66436	0.06350
3872.73570	0.06321
3870.80705	0.06343
3868.87840	0.06385
3866.94974	0.06377
3865.02109	0.06341
3863.09244	0.06322
3861.16378	0.06306
3859.23513	0.06297
3857.30648	0.06327
3855.37782	0.06377
3853.44917	0.06413
3851.52052	0.06431
3849.59186	0.06408
3847.66321	0.06332
3845.73456	0.06233
3843.80590	0.06156
3841.87725	0.06128
3839.94860	0.06155
3838.01994	0.06205
3836.09129	0.06215
3834.16264	0.06186
3832.23398	0.06167
3830.30533	0.06173
3828.37668	0.06190
3826.44803	0.06176
3824.51937	0.06114
3822.59072	0.06075
3820.66207	0.06099
3818.73341	0.06133
3816.80476	0.06142
3814.87611	0.06123
3812.94745	0.06082
3811.01880	0.06062
3809.09015	0.06078
3807.16149	0.06080
3805.23284	0.06024
3803.30419	0.05934
3801.37553	0.05887
3799.44688	0.05901
3797.51823	0.05906
3795.58957	0.05866
3793.66092	0.05835
3791.73227	0.05876
3789.80361	0.05972
3787.87496	0.06048
3785.94631	0.06030
3784.01765	0.05939
3782.08900	0.05890
3780.16035	0.05910
3778.23169	0.05909
3776.30304	0.05861
3774.37439	0.05855
3772.44573	0.05902
3770.51708	0.05907
3768.58843	0.05875
3766.65977	0.05875
3764.73112	0.05883
3762.80247	0.05849
3760.87381	0.05803
3758.94516	0.05807
3757.01651	0.05833
3755.08786	0.05807
3753.15920	0.05768
3751.23055	0.05779
3749.30190	0.05798
3747.37324	0.05788
3745.44459	0.05749
3743.51594	0.05695
3741.58728	0.05658
3739.65863	0.05639
3737.72998	0.05617
3735.80132	0.05610
3733.87267	0.05623
3731.94402	0.05613
3730.01536	0.05569
3728.08671	0.05548
3726.15806	0.05570
3724.22940	0.05583
3722.30075	0.05559
3720.37210	0.05509
3718.44344	0.05459
3716.51479	0.05443
3714.58614	0.05441
3712.65748	0.05410
3710.72883	0.05402
3708.80018	0.05433
3706.87152	0.05420
3704.94287	0.05377
3703.01422	0.05389
3701.08556	0.05431
3699.15691	0.05430
3697.22826	0.05394
3695.29960	0.05393
3693.37095	0.05463
3691.44230	0.05541
3689.51365	0.05526
3687.58499	0.05442
3685.65634	0.05374
3683.72769	0.05343
3681.79903	0.05338
3679.87038	0.05343
3677.94173	0.05342
3676.01307	0.05336
3674.08442	0.05325
3672.15577	0.05345
3670.22711	0.05434
3668.29846	0.05517
3666.36981	0.05498
3664.44115	0.05419
3662.51250	0.05387
3660.58385	0.05430
3658.65519	0.05493
3656.72654	0.05530
3654.79789	0.05535
3652.86923	0.05533
3650.94058	0.05574
3649.01193	0.05663
3647.08327	0.05745
3645.15462	0.05825
3643.22597	0.05931
3641.29731	0.06018
3639.36866	0.06060
3637.44001	0.06093
3635.51135	0.06125
3633.58270	0.06132
3631.65405	0.06120
3629.72539	0.06133
3627.79674	0.06175
3625.86809	0.06208
3623.93943	0.06234
3622.01078	0.06294
3620.08213	0.06409
3618.15348	0.06560
3616.22482	0.06688
3614.29617	0.06760
3612.36752	0.06799
3610.43886	0.06826
3608.51021	0.06830
3606.58156	0.06819
3604.65290	0.06848
3602.72425	0.06949
3600.79560	0.07077
3598.86694	0.07168
3596.93829	0.07207
3595.00964	0.07257
3593.08098	0.07349
3591.15233	0.07432
3589.22368	0.07482
3587.29502	0.07535
3585.36637	0.07628
3583.43772	0.07743
3581.50906	0.07823
3579.58041	0.07880
3577.65176	0.07975
3575.72310	0.08081
3573.79445	0.08152
3571.86580	0.08226
3569.93714	0.08341
3568.00849	0.08465
3566.07984	0.08564
3564.15118	0.08651
3562.22253	0.08733
3560.29388	0.08798
3558.36522	0.08865
3556.43657	0.08954
3554.50792	0.09037
3552.57927	0.09099
3550.65061	0.09155
3548.72196	0.09231
3546.79331	0.09325
3544.86465	0.09415
3542.93600	0.09522
3541.00735	0.09643
3539.07869	0.09721
3537.15004	0.09756
3535.22139	0.09802
3533.29273	0.09902
3531.36408	0.10043
3529.43543	0.10171
3527.50677	0.10281
3525.57812	0.10398
3523.64947	0.10501
3521.72081	0.10566
3519.79216	0.10610
3517.86351	0.10668
3515.93485	0.10762
3514.00620	0.10870
3512.07755	0.10962
3510.14889	0.11036
3508.22024	0.11102
3506.29159	0.11177
3504.36293	0.11256
3502.43428	0.11305
3500.50563	0.11335
3498.57697	0.11394
3496.64832	0.11490
3494.71967	0.11597
3492.79101	0.11708
3490.86236	0.11808
3488.93371	0.11868
3487.00506	0.11895
3485.07640	0.11929
3483.14775	0.11992
3481.21910	0.12058
3479.29044	0.12091
3477.36179	0.12109
3475.43314	0.12159
3473.50448	0.12245
3471.57583	0.12323
3469.64718	0.12384
3467.71852	0.12468
3465.78987	0.12578
3463.86122	0.12671
3461.93256	0.12728
3460.00391	0.12785
3458.07526	0.12858
3456.14660	0.12911
3454.21795	0.12929
3452.28930	0.12944
3450.36064	0.12987
3448.43199	0.13059
3446.50334	0.13136
3444.57468	0.13189
3442.64603	0.13232
3440.71738	0.13294
3438.78872	0.13358
3436.86007	0.13416
3434.93142	0.13495
3433.00276	0.13613
3431.07411	0.13743
3429.14546	0.13825
3427.21680	0.13830
3425.28815	0.13826
3423.35950	0.13887
3421.43084	0.13998
3419.50219	0.14099
3417.57354	0.14168
3415.64489	0.14233
3413.71623	0.14306
3411.78758	0.14367
3409.85893	0.14407
3407.93027	0.14428
3406.00162	0.14453
3404.07297	0.14509
3402.14431	0.14583
3400.21566	0.14646
3398.28701	0.14688
3396.35835	0.14733
3394.42970	0.14815
3392.50105	0.14902
3390.57239	0.14946
3388.64374	0.14976
3386.71509	0.15014
3384.78643	0.15031
3382.85778	0.15049
3380.92913	0.15121
3379.00047	0.15242
3377.07182	0.15357
3375.14317	0.15445
3373.21451	0.15525
3371.28586	0.15617
3369.35721	0.15721
3367.42855	0.15827
3365.49990	0.15918
3363.57125	0.15991
3361.64259	0.16071
3359.71394	0.16182
3357.78529	0.16318
3355.85663	0.16472
3353.92798	0.16638
3351.99933	0.16809
3350.07068	0.16967
3348.14202	0.17097
3346.21337	0.17199
3344.28472	0.17300
3342.35606	0.17444
3340.42741	0.17609
3338.49876	0.17735
3336.57010	0.17833
3334.64145	0.17940
3332.71280	0.18046
3330.78414	0.18141
3328.85549	0.18250
3326.92684	0.18393
3324.99818	0.18526
3323.06953	0.18614
3321.14088	0.18690
3319.21222	0.18756
3317.28357	0.18772
3315.35492	0.18786
3313.42626	0.18864
3311.49761	0.18964
3309.56896	0.19032
3307.64030	0.19082
3305.71165	0.19133
3303.78300	0.19171
3301.85434	0.19188
3299.92569	0.19194
3297.99704	0.19200
3296.06838	0.19190
3294.13973	0.19166
3292.21108	0.19160
3290.28242	0.19177
3288.35377	0.19205
3286.42512	0.19240
3284.49646	0.19265
3282.56781	0.19268
3280.63916	0.19251
3278.71051	0.19232
3276.78185	0.19217
3274.85320	0.19164
3272.92455	0.19039
3270.99589	0.18898
3269.06724	0.18824
3267.13859	0.18810
3265.20993	0.18786
3263.28128	0.18713
3261.35263	0.18620
3259.42397	0.18544
3257.49532	0.18470
3255.56667	0.18373
3253.63801	0.18266
3251.70936	0.18170
3249.78071	0.18084
3247.85205	0.18006
3245.92340	0.17941
3243.99475	0.17898
3242.06609	0.17872
3240.13744	0.17838
3238.20879	0.17790
3236.28013	0.17745
3234.35148	0.17687
3232.42283	0.17593
3230.49417	0.17476
3228.56552	0.17386
3226.63687	0.17344
3224.70821	0.17316
3222.77956	0.17280
3220.85091	0.17252
3218.92225	0.17242
3216.99360	0.17209
3215.06495	0.17115
3213.13630	0.17008
3211.20764	0.16939
3209.27899	0.16884
3207.35034	0.16828
3205.42168	0.16784
3203.49303	0.16747
3201.56438	0.16700
3199.63572	0.16626
3197.70707	0.16516
3195.77842	0.16396
3193.84976	0.16290
3191.92111	0.16201
3189.99246	0.16129
3188.06380	0.16058
3186.13515	0.15972
3184.20650	0.15882
3182.27784	0.15806
3180.34919	0.15737
3178.42054	0.15654
3176.49188	0.15553
3174.56323	0.15442
3172.63458	0.15326
3170.70592	0.15201
3168.77727	0.15083
3166.84862	0.14975
3164.91996	0.14853
3162.99131	0.14725
3161.06266	0.14624
3159.13400	0.14547
3157.20535	0.14463
3155.27670	0.14362
3153.34804	0.14258
3151.41939	0.14173
3149.49074	0.14106
3147.56209	0.14024
3145.63343	0.13914
3143.70478	0.13793
3141.77613	0.13696
3139.84747	0.13639
3137.91882	0.13586
3135.99017	0.13506
3134.06151	0.13418
3132.13286	0.13350
3130.20421	0.13300
3128.27555	0.13240
3126.34690	0.13166
3124.41825	0.13090
3122.48959	0.13019
3120.56094	0.12980
3118.63229	0.12980
3116.70363	0.12979
3114.77498	0.12943
3112.84633	0.12898
3110.91767	0.12892
3108.98902	0.12913
3107.06037	0.12924
3105.13171	0.12930
3103.20306	0.12943
3101.27441	0.12958
3099.34575	0.12977
3097.41710	0.12987
3095.48845	0.12979
3093.55979	0.13003
3091.63114	0.13090
3089.70249	0.13168
3087.77383	0.13179
3085.84518	0.13176
3083.91653	0.13211
3081.98787	0.13251
3080.05922	0.13273
3078.13057	0.13294
3076.20192	0.13302
3074.27326	0.13270
3072.34461	0.13223
3070.41596	0.13198
3068.48730	0.13188
3066.55865	0.13167
3064.63000	0.13123
3062.70134	0.13072
3060.77269	0.13045
3058.84404	0.13028
3056.91538	0.12968
3054.98673	0.12872
3053.05808	0.12780
3051.12942	0.12682
3049.20077	0.12575
3047.27212	0.12475
3045.34346	0.12379
3043.41481	0.12292
3041.48616	0.12221
3039.55750	0.12154
3037.62885	0.12078
3035.70020	0.11986
3033.77154	0.11897
3031.84289	0.11821
3029.91424	0.11731
3027.98558	0.11629
3026.05693	0.11533
3024.12828	0.11440
3022.19962	0.11347
3020.27097	0.11260
3018.34232	0.11194
3016.41366	0.11152
3014.48501	0.11119
3012.55636	0.11083
3010.62771	0.11041
3008.69905	0.11005
3006.77040	0.10988
3004.84175	0.10975
3002.91309	0.10951
3000.98444	0.10928
2999.05579	0.10919
2997.12713	0.10926
2995.19848	0.10948
2993.26983	0.10993
2991.34117	0.11045
2989.41252	0.11090
2987.48387	0.11133
2985.55521	0.11187
2983.62656	0.11261
2981.69791	0.11344
2979.76925	0.11414
2977.84060	0.11461
2975.91195	0.11488
2973.98329	0.11528
2972.05464	0.11590
2970.12599	0.11633
2968.19733	0.11653
2966.26868	0.11690
2964.34003	0.11749
2962.41137	0.11808
2960.48272	0.11850
2958.55407	0.11890
2956.62541	0.11942
2954.69676	0.11965
2952.76811	0.11931
2950.83945	0.11888
2948.91080	0.11880
2946.98215	0.11903
2945.05349	0.11932
2943.12484	0.11962
2941.19619	0.12010
2939.26754	0.12071
2937.33888	0.12107
2935.41023	0.12094
2933.48158	0.12052
2931.55292	0.12013
2929.62427	0.11992
2927.69562	0.11991
2925.76696	0.11986
2923.83831	0.11945
2921.90966	0.11873
2919.98100	0.11777
2918.05235	0.11673
2916.12370	0.11563
2914.19504	0.11418
2912.26639	0.11264
2910.33774	0.11147
2908.40908	0.11056
2906.48043	0.10976
2904.55178	0.10900
2902.62312	0.10816
2900.69447	0.10736
2898.76582	0.10669
2896.83716	0.10612
2894.90851	0.10574
2892.97986	0.10546
2891.05120	0.10526
2889.12255	0.10530
2887.19390	0.10540
2885.26524	0.10523
2883.33659	0.10491
2881.40794	0.10477
2879.47928	0.10481
2877.55063	0.10474
2875.62198	0.10450
2873.69333	0.10420
2871.76467	0.10388
2869.83602	0.10350
2867.90737	0.10289
2865.97871	0.10189
2864.05006	0.10070
2862.12141	0.09964
2860.19275	0.09883
2858.26410	0.09815
2856.33545	0.09747
2854.40679	0.09695
2852.47814	0.09658
2850.54949	0.09610
2848.62083	0.09541
2846.69218	0.09468
2844.76353	0.09407
2842.83487	0.09338
2840.90622	0.09242
2838.97757	0.09149
2837.04891	0.09083
2835.12026	0.09046
2833.19161	0.09031
2831.26295	0.09022
2829.33430	0.08993
2827.40565	0.08944
2825.47699	0.08893
2823.54834	0.08833
2821.61969	0.08764
2819.69103	0.08715
2817.76238	0.08692
2815.83373	0.08680
2813.90507	0.08662
2811.97642	0.08632
2810.04777	0.08602
2808.11912	0.08570
2806.19046	0.08530
2804.26181	0.08491
2802.33316	0.08468
2800.40450	0.08451
2798.47585	0.08412
2796.54720	0.08357
2794.61854	0.08322
2792.68989	0.08319
2790.76124	0.08306
2788.83258	0.08264
2786.90393	0.08224
2784.97528	0.08208
2783.04662	0.08195
2781.11797	0.08155
2779.18932	0.08098
2777.26066	0.08058
2775.33201	0.08047
2773.40336	0.08043
2771.47470	0.08025
2769.54605	0.07993
2767.61740	0.07959
2765.68874	0.07923
2763.76009	0.07884
2761.83144	0.07853
2759.90278	0.07843
2757.97413	0.07826
2756.04548	0.07781
2754.11682	0.07745
2752.18817	0.07744
2750.25952	0.07738
2748.33086	0.07706
2746.40221	0.07675
2744.47356	0.07646
2742.54490	0.07604
2740.61625	0.07557
2738.68760	0.07523
2736.75895	0.07499
2734.83029	0.07478
2732.90164	0.07465
2730.97299	0.07451
2729.04433	0.07424
2727.11568	0.07391
2725.18703	0.07362
2723.25837	0.07338
2721.32972	0.07321
2719.40107	0.07307
2717.47241	0.07274
2715.54376	0.07235
2713.61511	0.07215
2711.68645	0.07208
2709.75780	0.07211
2707.82915	0.07212
2705.90049	0.07183
2703.97184	0.07136
2702.04319	0.07108
2700.11453	0.07094
2698.18588	0.07080
2696.25723	0.07066
2694.32857	0.07035
2692.39992	0.06983
2690.47127	0.06942
2688.54261	0.06934
2686.61396	0.06941
2684.68531	0.06936
2682.75665	0.06907
2680.82800	0.06869
2678.89935	0.06852
2676.97069	0.06859
2675.04204	0.06866
2673.11339	0.06869
2671.18474	0.06860
2669.25608	0.06825
2667.32743	0.06782
2665.39878	0.06757
2663.47012	0.06759
2661.54147	0.06766
2659.61282	0.06743
2657.68416	0.06696
2655.75551	0.06656
2653.82686	0.06632
2651.89820	0.06622
2649.96955	0.06610
2648.04090	0.06580
2646.11224	0.06539
2644.18359	0.06502
2642.25494	0.06465
2640.32628	0.06430
2638.39763	0.06390
2636.46898	0.06339
2634.54032	0.06301
2632.61167	0.06281
2630.68302	0.06261
2628.75436	0.06228
2626.82571	0.06192
2624.89706	0.06173
2622.96840	0.06160
2621.03975	0.06115
2619.11110	0.06053
2617.18244	0.06007
2615.25379	0.05977
2613.32514	0.05953
2611.39648	0.05930
2609.46783	0.05901
2607.53918	0.05875
2605.61052	0.05851
2603.68187	0.05819
2601.75322	0.05796
2599.82457	0.05793
2597.89591	0.05788
2595.96726	0.05782
2594.03861	0.05781
2592.10995	0.05757
2590.18130	0.05711
2588.25265	0.05668
2586.32399	0.05630
2584.39534	0.05601
2582.46669	0.05587
2580.53803	0.05577
2578.60938	0.05553
2576.68073	0.05522
2574.75207	0.05505
2572.82342	0.05500
2570.89477	0.05502
2568.96611	0.05498
2567.03746	0.05443
2565.10881	0.05357
2563.18015	0.05327
2561.25150	0.05348
2559.32285	0.05359
2557.39419	0.05361
2555.46554	0.05376
2553.53689	0.05383
2551.60823	0.05343
2549.67958	0.05278
2547.75093	0.05238
2545.82227	0.05232
2543.89362	0.05245
2541.96497	0.05252
2540.03631	0.05233
2538.10766	0.05204
2536.17901	0.05188
2534.25036	0.05170
2532.32170	0.05140
2530.39305	0.05111
2528.46440	0.05090
2526.53574	0.05075
2524.60709	0.05071
2522.67844	0.05067
2520.74978	0.05046
2518.82113	0.05014
2516.89248	0.04999
2514.96382	0.04994
2513.03517	0.04980
2511.10652	0.04971
2509.17786	0.04977
2507.24921	0.04973
2505.32056	0.04941
2503.39190	0.04911
2501.46325	0.04899
2499.53460	0.04865
2497.60594	0.04816
2495.67729	0.04818
2493.74864	0.04873
2491.81998	0.04900
2489.89133	0.04880
2487.96268	0.04868
2486.03402	0.04876
2484.10537	0.04868
2482.17672	0.04834
2480.24806	0.04790
2478.31941	0.04749
2476.39076	0.04736
2474.46210	0.04747
2472.53345	0.04755
2470.60480	0.04770
2468.67615	0.04780
2466.74749	0.04767
2464.81884	0.04744
2462.89019	0.04719
2460.96153	0.04688
2459.03288	0.04666
2457.10423	0.04669
2455.17557	0.04680
2453.24692	0.04674
2451.31827	0.04646
2449.38961	0.04606
2447.46096	0.04576
2445.53231	0.04574
2443.60365	0.04586
2441.67500	0.04587
2439.74635	0.04588
2437.81769	0.04597
2435.88904	0.04602
2433.96039	0.04606
2432.03173	0.04601
2430.10308	0.04576
2428.17443	0.04531
2426.24577	0.04492
2424.31712	0.04492
2422.38847	0.04507
2420.45981	0.04500
2418.53116	0.04501
2416.60251	0.04530
2414.67385	0.04525
2412.74520	0.04475
2410.81655	0.04461
2408.88789	0.04496
2406.95924	0.04515
2405.03059	0.04496
2403.10193	0.04464
2401.17328	0.04460
2399.24463	0.04477
2397.31598	0.04480
2395.38732	0.04482
2393.45867	0.04511
2391.53002	0.04521
2389.60136	0.04493
2387.67271	0.04485
2385.74406	0.04500
2383.81540	0.04497
2381.88675	0.04483
2379.95810	0.04489
2378.02944	0.04516
2376.10079	0.04536
2374.17214	0.04524
2372.24348	0.04501
2370.31483	0.04505
2368.38618	0.04537
2366.45752	0.04564
2364.52887	0.04562
2362.60022	0.04544
2360.67156	0.04537
2358.74291	0.04559
2356.81426	0.04592
2354.88560	0.04611
2352.95695	0.04600
2351.02830	0.04570
2349.09964	0.04548
2347.17099	0.04543
2345.24234	0.04544
2343.31368	0.04528
2341.38503	0.04504
2339.45638	0.04502
2337.52772	0.04517
2335.59907	0.04525
2333.67042	0.04516
2331.74177	0.04491
2329.81311	0.04467
2327.88446	0.04477
2325.95581	0.04511
2324.02715	0.04519
2322.09850	0.04491
2320.16985	0.04452
2318.24119	0.04407
2316.31254	0.04349
2314.38389	0.04303
2312.45523	0.04301
2310.52658	0.04320
2308.59793	0.04306
2306.66927	0.04260
2304.74062	0.04225
2302.81197	0.04207
2300.88331	0.04184
2298.95466	0.04148
2297.02601	0.04090
2295.09735	0.04029
2293.16870	0.03986
2291.24005	0.03960
2289.31139	0.03944
2287.38274	0.03920
2285.45409	0.03870
2283.52543	0.03839
2281.59678	0.03867
2279.66813	0.03882
2277.73947	0.03833
2275.81082	0.03772
2273.88217	0.03722
2271.95351	0.03670
2270.02486	0.03630
2268.09621	0.03595
2266.16755	0.03554
2264.23890	0.03559
2262.31025	0.03618
2260.38160	0.03646
2258.45294	0.03595
2256.52429	0.03496
2254.59564	0.03396
2252.66698	0.03335
2250.73833	0.03324
2248.80968	0.03332
2246.88102	0.03296
2244.95237	0.03241
2243.02372	0.03195
2241.09506	0.03173
2239.16641	0.03161
2237.23776	0.03157
2235.30910	0.03173
2233.38045	0.03197
2231.45180	0.03236
2229.52314	0.03285
2227.59449	0.03255
2225.66584	0.03115
2223.73718	0.02998
2221.80853	0.02972
2219.87988	0.02935
2217.95122	0.02876
2216.02257	0.02871
2214.09392	0.02876
2212.16526	0.02838
2210.23661	0.02799
2208.30796	0.02802
2206.37930	0.02794
2204.45065	0.02696
2202.52200	0.02607
2200.59334	0.02646
2198.66469	0.02714
2196.73604	0.02729
2194.80739	0.02714
2192.87873	0.02679
2190.95008	0.02643
2189.02143	0.02597
2187.09277	0.02520
2185.16412	0.02430
2183.23547	0.02366
2181.30681	0.02353
2179.37816	0.02393
2177.44951	0.02428
2175.52085	0.02365
2173.59220	0.02223
2171.66355	0.02101
2169.73489	0.02040
2167.80624	0.02059
2165.87759	0.02059
2163.94893	0.01914
2162.02028	0.01754
2160.09163	0.01752
2158.16297	0.01900
2156.23432	0.02095
2154.30567	0.02188
2152.37701	0.02174
2150.44836	0.02189
2148.51971	0.02221
2146.59105	0.02232
2144.66240	0.02304
2142.73375	0.02438
2140.80509	0.02560
2138.87644	0.02638
2136.94779	0.02637
2135.01913	0.02586
2133.09048	0.02581
2131.16183	0.02647
2129.23318	0.02743
2127.30452	0.02827
2125.37587	0.02883
2123.44722	0.02918
2121.51856	0.02938
2119.58991	0.02953
2117.66126	0.02963
2115.73260	0.02945
2113.80395	0.02885
2111.87530	0.02832
2109.94664	0.02840
2108.01799	0.02874
2106.08934	0.02887
2104.16068	0.02887
2102.23203	0.02851
2100.30338	0.02753
2098.37472	0.02653
2096.44607	0.02640
2094.51742	0.02713
2092.58876	0.02786
2090.66011	0.02825
2088.73146	0.02845
2086.80280	0.02826
2084.87415	0.02772
2082.94550	0.02722
2081.01684	0.02671
2079.08819	0.02595
2077.15954	0.02535
2075.23088	0.02535
2073.30223	0.02562
2071.37358	0.02562
2069.44492	0.02537
2067.51627	0.02505
2065.58762	0.02451
2063.65896	0.02388
2061.73031	0.02380
2059.80166	0.02414
2057.87301	0.02409
2055.94435	0.02356
2054.01570	0.02338
2052.08705	0.02358
2050.15839	0.02302
2048.22974	0.02172
2046.30109	0.02105
2044.37243	0.02119
2042.44378	0.02120
2040.51513	0.02062
2038.58647	0.02001
2036.65782	0.02014
2034.72917	0.02047
2032.80051	0.02000
2030.87186	0.01913
2028.94321	0.01874
2027.01455	0.01869
2025.08590	0.01821
2023.15725	0.01737
2021.22859	0.01685
2019.29994	0.01688
2017.37129	0.01747
2015.44263	0.01881
2013.51398	0.02017
2011.58533	0.02028
2009.65667	0.01930
2007.72802	0.01839
2005.79937	0.01833
2003.87071	0.01911
2001.94206	0.01986
2000.01341	0.01990
1998.08475	0.01986
1996.15610	0.02039
1994.22745	0.02082
1992.29880	0.02070
1990.37014	0.02042
1988.44149	0.02019
1986.51284	0.02023
1984.58418	0.02091
1982.65553	0.02175
1980.72688	0.02138
1978.79822	0.01959
1976.86957	0.01829
1974.94092	0.01817
1973.01226	0.01807
1971.08361	0.01808
1969.15496	0.01871
1967.22630	0.01929
1965.29765	0.01956
1963.36900	0.01971
1961.44034	0.01984
1959.51169	0.02009
1957.58304	0.02046
1955.65438	0.02085
1953.72573	0.02085
1951.79708	0.02049
1949.86842	0.02060
1947.93977	0.02123
1946.01112	0.02177
1944.08246	0.02198
1942.15381	0.02199
1940.22516	0.02201
1938.29650	0.02207
1936.36785	0.02209
1934.43920	0.02218
1932.51054	0.02233
1930.58189	0.02225
1928.65324	0.02193
1926.72458	0.02165
1924.79593	0.02167
1922.86728	0.02209
1920.93863	0.02258
1919.00997	0.02277
1917.08132	0.02289
1915.15267	0.02300
1913.22401	0.02296
1911.29536	0.02297
1909.36671	0.02305
1907.43805	0.02303
1905.50940	0.02292
1903.58075	0.02288
1901.65209	0.02316
1899.72344	0.02355
1897.79479	0.02363
1895.86613	0.02342
1893.93748	0.02315
1892.00883	0.02302
1890.08017	0.02306
1888.15152	0.02315
1886.22287	0.02329
1884.29421	0.02330
1882.36556	0.02292
1880.43691	0.02248
1878.50825	0.02242
1876.57960	0.02254
1874.65095	0.02257
1872.72229	0.02255
1870.79364	0.02245
1868.86499	0.02233
1866.93633	0.02242
1865.00768	0.02256
1863.07903	0.02261
1861.15037	0.02271
1859.22172	0.02283
1857.29307	0.02279
1855.36442	0.02271
1853.43576	0.02266
1851.50711	0.02239
1849.57846	0.02201
1847.64980	0.02185
1845.72115	0.02192
1843.79250	0.02206
1841.86384	0.02217
1839.93519	0.02214
1838.00654	0.02207
1836.07788	0.02209
1834.14923	0.02205
1832.22058	0.02195
1830.29192	0.02190
1828.36327	0.02193
1826.43462	0.02198
1824.50596	0.02198
1822.57731	0.02188
1820.64866	0.02178
1818.72000	0.02184
1816.79135	0.02199
1814.86270	0.02196
1812.93404	0.02167
1811.00539	0.02138
1809.07674	0.02124
1807.14808	0.02118
1805.21943	0.02121
1803.29078	0.02129
1801.36212	0.02130
1799.43347	0.02121
1797.50482	0.02113
1795.57616	0.02121
1793.64751	0.02136
1791.71886	0.02140
1789.79021	0.02140
1787.86155	0.02134
1785.93290	0.02114
1784.00425	0.02086
1782.07559	0.02073
1780.14694	0.02072
1778.21829	0.02067
1776.28963	0.02055
1774.36098	0.02052
1772.43233	0.02060
1770.50367	0.02066
1768.57502	0.02062
1766.64637	0.02052
1764.71771	0.02045
1762.78906	0.02050
1760.86041	0.02060
1758.93175	0.02069
1757.00310	0.02082
1755.07445	0.02097
1753.14579	0.02111
1751.21714	0.02130
1749.28849	0.02163
1747.35983	0.02199
1745.43118	0.02232
1743.50253	0.02270
1741.57387	0.02315
1739.64522	0.02359
1737.71657	0.02402
1735.78791	0.02452
1733.85926	0.02512
1731.93061	0.02566
1730.00195	0.02613
1728.07330	0.02665
1726.14465	0.02722
1724.21599	0.02775
1722.28734	0.02823
1720.35869	0.02875
1718.43004	0.02942
1716.50138	0.03031
1714.57273	0.03139
1712.64408	0.03268
1710.71542	0.03427
1708.78677	0.03629
1706.85812	0.03878
1704.92946	0.04169
1703.00081	0.04502
1701.07216	0.04885
1699.14350	0.05306
1697.21485	0.05743
1695.28620	0.06186
1693.35754	0.06625
1691.42889	0.07057
1689.50024	0.07494
1687.57158	0.07951
1685.64293	0.08444
1683.71428	0.08972
1681.78562	0.09529
1679.85697	0.10125
1677.92832	0.10765
1675.99966	0.11431
1674.07101	0.12117
1672.14236	0.12823
1670.21370	0.13557
1668.28505	0.14307
1666.35640	0.15042
1664.42774	0.15750
1662.49909	0.16439
1660.57044	0.17099
1658.64178	0.17698
1656.71313	0.18222
1654.78448	0.18692
1652.85583	0.19131
1650.92717	0.19514
1648.99852	0.19832
1647.06987	0.20126
1645.14121	0.20408
1643.21256	0.20661
1641.28391	0.20885
1639.35525	0.21095
1637.42660	0.21297
1635.49795	0.21476
1633.56929	0.21602
1631.64064	0.21654
1629.71199	0.21611
1627.78333	0.21438
1625.85468	0.21114
1623.92603	0.20655
1621.99737	0.20086
1620.06872	0.19434
1618.14007	0.18733
1616.21141	0.18008
1614.28276	0.17282
1612.35411	0.16560
1610.42545	0.15843
1608.49680	0.15145
1606.56815	0.14488
1604.63949	0.13881
1602.71084	0.13326
1600.78219	0.12829
1598.85353	0.12388
1596.92488	0.11998
1594.99623	0.11658
1593.06757	0.11379
1591.13892	0.11165
1589.21027	0.11010
1587.28161	0.10905
1585.35296	0.10850
1583.42431	0.10849
1581.49566	0.10899
1579.56700	0.11001
1577.63835	0.11166
1575.70970	0.11398
1573.78104	0.11686
1571.85239	0.12023
1569.92374	0.12414
1567.99508	0.12845
1566.06643	0.13297
1564.13778	0.13754
1562.20912	0.14209
1560.28047	0.14677
1558.35182	0.15149
1556.42316	0.15585
1554.49451	0.15963
1552.56586	0.16279
1550.63720	0.16532
1548.70855	0.16739
1546.77990	0.16911
1544.85124	0.17039
1542.92259	0.17114
1540.99394	0.17151
1539.06528	0.17162
1537.13663	0.17135
1535.20798	0.17065
1533.27932	0.16965
1531.35067	0.16847
1529.42202	0.16712
1527.49336	0.16555
1525.56471	0.16368
1523.63606	0.16159
1521.70740	0.15940
1519.77875	0.15718
1517.85010	0.15483
1515.92145	0.15211
1513.99279	0.14883
1512.06414	0.14508
1510.13549	0.14098
1508.20683	0.13657
1506.27818	0.13194
1504.34953	0.12725
1502.42087	0.12262
1500.49222	0.11810
1498.56357	0.11367
1496.63491	0.10929
1494.70626	0.10497
1492.77761	0.10085
1490.84895	0.09709
1488.92030	0.09376
1486.99165	0.09096
1485.06299	0.08881
1483.13434	0.08741
1481.20569	0.08672
1479.27703	0.08664
1477.34838	0.08715
1475.41973	0.08833
1473.49107	0.09009
1471.56242	0.09214
1469.63377	0.09432
1467.70511	0.09666
1465.77646	0.09921
1463.84781	0.10188
1461.91915	0.10458
1459.99050	0.10734
1458.06185	0.11013
1456.13319	0.11266
1454.20454	0.11456
1452.27589	0.11577
1450.34724	0.11628
1448.41858	0.11608
1446.48993	0.11535
1444.56128	0.11429
1442.63262	0.11297
1440.70397	0.11142
1438.77532	0.10958
1436.84666	0.10735
1434.91801	0.10485
1432.98936	0.10238
1431.06070	0.10021
1429.13205	0.09853
1427.20340	0.09737
1425.27474	0.09658
1423.34609	0.09602
1421.41744	0.09563
1419.48878	0.09545
1417.56013	0.09550
1415.63148	0.09570
1413.70282	0.09599
1411.77417	0.09646
1409.84552	0.09720
1407.91686	0.09816
1405.98821	0.09910
1404.05956	0.09976
1402.13090	0.10002
1400.20225	0.09995
1398.27360	0.09973
1396.34494	0.09944
1394.41629	0.09908
1392.48764	0.09867
1390.55898	0.09822
1388.63033	0.09772
1386.70168	0.09719
1384.77302	0.09665
1382.84437	0.09604
1380.91572	0.09536
1378.98707	0.09464
1377.05841	0.09376
1375.12976	0.09263
1373.20111	0.09131
1371.27245	0.08982
1369.34380	0.08817
1367.41515	0.08648
1365.48649	0.08484
1363.55784	0.08332
1361.62919	0.08205
1359.70053	0.08111
1357.77188	0.08055
1355.84323	0.08043
1353.91457	0.08071
1351.98592	0.08132
1350.05727	0.08231
1348.12861	0.08365
1346.19996	0.08513
1344.27131	0.08660
1342.34265	0.08800
1340.41400	0.08921
1338.48535	0.09005
1336.55669	0.09043
1334.62804	0.09026
1332.69939	0.08950
1330.77073	0.08825
1328.84208	0.08678
1326.91343	0.08540
1324.98477	0.08427
1323.05612	0.08345
1321.12747	0.08294
1319.19881	0.08263
1317.27016	0.08234
1315.34151	0.08193
1313.41286	0.08132
1311.48420	0.08050
1309.55555	0.07965
1307.62690	0.07894
1305.69824	0.07843
1303.76959	0.07806
1301.84094	0.07771
1299.91228	0.07728
1297.98363	0.07693
1296.05498	0.07689
1294.12632	0.07722
1292.19767	0.07784
1290.26902	0.07868
1288.34036	0.07967
1286.41171	0.08071
1284.48306	0.08169
1282.55440	0.08250
1280.62575	0.08302
1278.69710	0.08328
1276.76844	0.08335
1274.83979	0.08330
1272.91114	0.08330
1270.98248	0.08349
1269.05383	0.08384
1267.12518	0.08434
1265.19652	0.08503
1263.26787	0.08585
1261.33922	0.08671
1259.41056	0.08772
1257.48191	0.08896
1255.55326	0.09039
1253.62460	0.09195
1251.69595	0.09358
1249.76730	0.09528
1247.83864	0.09707
1245.90999	0.09891
1243.98134	0.10070
1242.05269	0.10242
1240.12403	0.10395
1238.19538	0.10502
1236.26673	0.10551
1234.33807	0.10552
1232.40942	0.10495
1230.48077	0.10376
1228.55211	0.10207
1226.62346	0.09998
1224.69481	0.09747
1222.76615	0.09477
1220.83750	0.09223
1218.90885	0.09008
1216.98019	0.08839
1215.05154	0.08718
1213.12289	0.08649
1211.19423	0.08634
1209.26558	0.08669
1207.33693	0.08732
1205.40827	0.08788
1203.47962	0.08812
1201.55097	0.08786
1199.62231	0.08696
1197.69366	0.08548
1195.76501	0.08368
1193.83635	0.08180
1191.90770	0.07994
1189.97905	0.07816
1188.05039	0.07657
1186.12174	0.07522
1184.19309	0.07405
1182.26443	0.07309
1180.33578	0.07239
1178.40713	0.07191
1176.47848	0.07155
1174.54982	0.07127
1172.62117	0.07103
1170.69252	0.07084
1168.76386	0.07073
1166.83521	0.07070
1164.90656	0.07077
1162.97790	0.07074
1161.04925	0.07040
1159.12060	0.06973
1157.19194	0.06880
1155.26329	0.06772
1153.33464	0.06646
1151.40598	0.06504
1149.47733	0.06362
1147.54868	0.06232
1145.62002	0.06119
1143.69137	0.06025
1141.76272	0.05947
1139.83406	0.05879
1137.90541	0.05812
1135.97676	0.05754
1134.04810	0.05716
1132.11945	0.05691
1130.19080	0.05671
1128.26214	0.05660
1126.33349	0.05657
1124.40484	0.05642
1122.47618	0.05620
1120.54753	0.05602
1118.61888	0.05590
1116.69022	0.05581
1114.76157	0.05581
1112.83292	0.05594
1110.90427	0.05627
1108.97561	0.05678
1107.04696	0.05729
1105.11831	0.05774
1103.18965	0.05826
1101.26100	0.05888
1099.33235	0.05951
1097.40369	0.06018
1095.47504	0.06087
1093.54639	0.06164
1091.61773	0.06274
1089.68908	0.06429
1087.76043	0.06608
1085.83177	0.06778
1083.90312	0.06927
1081.97447	0.07049
1080.04581	0.07121
1078.11716	0.07124
1076.18851	0.07070
1074.25985	0.06994
1072.33120	0.06929
1070.40255	0.06881
1068.47389	0.06850
1066.54524	0.06839
1064.61659	0.06838
1062.68793	0.06836
1060.75928	0.06821
1058.83063	0.06780
1056.90197	0.06718
1054.97332	0.06652
1053.04467	0.06586
1051.11601	0.06515
1049.18736	0.06438
1047.25871	0.06369
1045.33005	0.06325
1043.40140	0.06306
1041.47275	0.06300
1039.54410	0.06314
1037.61544	0.06363
1035.68679	0.06441
1033.75814	0.06515
1031.82948	0.06539
1029.90083	0.06490
1027.97218	0.06383
1026.04352	0.06251
1024.11487	0.06118
1022.18622	0.05992
1020.25756	0.05874
1018.32891	0.05779
1016.40026	0.05713
1014.47160	0.05653
1012.54295	0.05574
1010.61430	0.05481
1008.68564	0.05385
1006.75699	0.05291
1004.82834	0.05200
1002.89968	0.05118
1000.97103	0.05047
999.04238	0.04978
997.11372	0.04910
995.18507	0.04845
993.25642	0.04780
991.32776	0.04715
989.39911	0.04661
987.47046	0.04617
985.54180	0.04579
983.61315	0.04557
981.68450	0.04557
979.75584	0.04575
977.82719	0.04597
975.89854	0.04611
973.96989	0.04609
972.04123	0.04589
970.11258	0.04555
968.18393	0.04518
966.25527	0.04485
964.32662	0.04437
962.39797	0.04375
960.46931	0.04326
958.54066	0.04300
956.61201	0.04280
954.68335	0.04251
952.75470	0.04220
950.82605	0.04196
948.89739	0.04181
946.96874	0.04177
945.04009	0.04192
943.11143	0.04216
941.18278	0.04238
939.25413	0.04240
937.32547	0.04214
935.39682	0.04193
933.46817	0.04202
931.53951	0.04215
929.61086	0.04209
927.68221	0.04191
925.75355	0.04174
923.82490	0.04167
921.89625	0.04165
919.96759	0.04147
918.03894	0.04111
916.11029	0.04075
914.18163	0.04053
912.25298	0.04036
910.32433	0.04006
908.39567	0.03972
906.46702	0.03953
904.53837	0.03938
902.60972	0.03911
900.68106	0.03877
898.75241	0.03859
896.82376	0.03865
894.89510	0.03863
892.96645	0.03841
891.03780	0.03821
889.10914	0.03817
887.18049	0.03814
885.25184	0.03805
883.32318	0.03806
881.39453	0.03832
879.46588	0.03864
877.53722	0.03884
875.60857	0.03891
873.67992	0.03881
871.75126	0.03857
869.82261	0.03834
867.89396	0.03824
865.96530	0.03814
864.03665	0.03801
862.10800	0.03798
860.17934	0.03803
858.25069	0.03816
856.32204	0.03829
854.39338	0.03838
852.46473	0.03845
850.53608	0.03848
848.60742	0.03837
846.67877	0.03823
844.75012	0.03821
842.82146	0.03824
840.89281	0.03821
838.96416	0.03815
837.03551	0.03811
835.10685	0.03804
833.17820	0.03797
831.24955	0.03806
829.32089	0.03824
827.39224	0.03838
825.46359	0.03854
823.53493	0.03876
821.60628	0.03908
819.67763	0.03953
817.74897	0.04003
815.82032	0.04050
813.89167	0.04084
811.96301	0.04099
810.03436	0.04106
808.10571	0.04124
806.17705	0.04156
804.24840	0.04185
802.31975	0.04210
800.39109	0.04232
798.46244	0.04253
796.53379	0.04276
794.60513	0.04312
792.67648	0.04355
790.74783	0.04394
788.81917	0.04429
786.89052	0.04464
784.96187	0.04496
783.03321	0.04525
781.10456	0.04558
779.17591	0.04591
777.24725	0.04613
775.31860	0.04628
773.38995	0.04658
771.46130	0.04710
769.53264	0.04761
767.60399	0.04799
765.67534	0.04827
763.74668	0.04851
761.81803	0.04872
759.88938	0.04895
757.96072	0.04926
756.03207	0.04958
754.10342	0.04998
752.17476	0.05055
750.24611	0.05114
748.31746	0.05150
746.38880	0.05174
744.46015	0.05202
742.53150	0.05218
740.60284	0.05224
738.67419	0.05252
736.74554	0.05314
734.81688	0.05388
732.88823	0.05452
730.95958	0.05502
729.03092	0.05551
727.10227	0.05608
725.17362	0.05663
723.24496	0.05704
721.31631	0.05743
719.38766	0.05769
717.45900	0.05796
715.53035	0.05832
713.60170	0.05870
711.67304	0.05907
709.74439	0.05948
707.81574	0.05994
705.88708	0.06049
703.95843	0.06106
702.02978	0.06150
700.10113	0.06175
698.17247	0.06193
696.24382	0.06212
694.31517	0.06226
692.38651	0.06242
690.45786	0.06268
688.52921	0.06299
686.60055	0.06323
684.67190	0.06348
682.74325	0.06389
680.81459	0.06437
678.88594	0.06475
676.95729	0.06506
675.02863	0.06533
673.09998	0.06553
671.17133	0.06566
669.24267	0.06587
667.31402	0.06622
665.38537	0.06663
663.45671	0.06702
661.52806	0.06730
659.59941	0.06747
657.67075	0.06761
655.74210	0.06771
653.81345	0.06771
651.88479	0.06780
649.95614	0.06807
648.02749	0.06831
646.09883	0.06840
644.17018	0.06838
642.24153	0.06836
640.31287	0.06847
638.38422	0.06866
636.45557	0.06883
634.52692	0.06897
632.59826	0.06908
630.66961	0.06909
628.74096	0.06893
626.81230	0.06853
624.88365	0.06832
622.95500	0.06877
621.02634	0.06922
619.09769	0.06886
617.16904	0.06924
615.24038	0.07071
613.31173	0.07071
611.38308	0.06860
609.45442	0.06753
607.52577	0.06920
605.59712	0.07167
603.66846	0.07315
601.73981	0.07318
599.81116	0.07212
597.88250	0.07096
595.95385	0.07028
594.02520	0.06989
592.09654	0.06977
590.16789	0.06993
588.23924	0.06996
586.31058	0.06982
584.38193	0.06983
582.45328	0.06989
580.52462	0.06979
578.59597	0.06968
576.66732	0.06980
574.73866	0.07012
572.81001	0.07034
570.88136	0.07030
568.95270	0.07036
567.02405	0.07074
565.09540	0.07094
563.16675	0.07088
561.23809	0.07111
559.30944	0.07160
557.38079	0.07174
555.45213	0.07147
553.52348	0.07114
551.59483	0.07092
549.66617	0.07078
547.73752	0.07066
545.80887	0.07045
543.88021	0.07008
541.95156	0.06968
540.02291	0.06943
538.09425	0.06944
536.16560	0.06967
534.23695	0.06984
532.30829	0.06969
530.37964	0.06931
528.45099	0.06899
526.52233	0.06883
524.59368	0.06867
522.66503	0.06836
520.73637	0.06798
518.80772	0.06771
516.87907	0.06746
514.95041	0.06717
513.02176	0.06696
511.09311	0.06671
509.16445	0.06631
507.23580	0.06590
505.30715	0.06549
503.37849	0.06501
501.44984	0.06457
499.52119	0.06428
497.59254	0.06410
495.66388	0.06381
493.73523	0.06326
491.80658	0.06266
489.87792	0.06211
487.94927	0.06155
486.02062	0.06110
484.09196	0.06086
482.16331	0.06062
480.23466	0.06015
478.30600	0.05962
476.37735	0.05932
474.44870	0.05918
472.52004	0.05890
470.59139	0.05830
468.66274	0.05760
466.73408	0.05718
464.80543	0.05699
462.87678	0.05670
460.94812	0.05627
459.01947	0.05578
457.09082	0.05515
455.16216	0.05451
453.23351	0.05400
451.30486	0.05358
449.37620	0.05312
447.44755	0.05258
445.51890	0.05206
443.59024	0.05176
441.66159	0.05156
439.73294	0.05121
437.80428	0.05077
435.87563	0.05043
433.94698	0.05020
432.01833	0.04995
430.08967	0.04962
428.16102	0.04925
426.23237	0.04879
424.30371	0.04822
422.37506	0.04770
420.44641	0.04731
418.51775	0.04694
416.58910	0.04660
414.66045	0.04635
412.73179	0.04615
410.80314	0.04586
408.87449	0.04557
406.94583	0.04540
405.01718	0.04526
403.08853	0.04496
401.15987	0.04458
399.23122	0.04422
