3996.16951	0.03111
3994.24086	0.03093
3992.31220	0.03041
3990.38355	0.03012
3988.45490	0.03018
3986.52624	0.03016
3984.59759	0.03012
3982.66894	0.03027
3980.74028	0.03047
3978.81163	0.03074
3976.88298	0.03100
3974.95432	0.03086
3973.02567	0.03058
3971.09702	0.03049
3969.16836	0.03036
3967.23971	0.03023
3965.31106	0.03029
3963.38240	0.03018
3961.45375	0.02984
3959.52510	0.02985
3957.59645	0.03027
3955.66779	0.03040
3953.73914	0.03015
3951.81049	0.03019
3949.88183	0.03047
3947.95318	0.03014
3946.02453	0.02928
3944.09587	0.02883
3942.16722	0.02905
3940.23857	0.02944
3938.30991	0.02962
3936.38126	0.02954
3934.45261	0.02942
3932.52395	0.02928
3930.59530	0.02899
3928.66665	0.02883
3926.73799	0.02904
3924.80934	0.02927
3922.88069	0.02912
3920.95203	0.02880
3919.02338	0.02860
3917.09473	0.02859
3915.16607	0.02860
3913.23742	0.02870
3911.30877	0.02911
3909.38011	0.02959
3907.45146	0.02964
3905.52281	0.02927
3903.59415	0.02897
3901.66550	0.02905
3899.73685	0.02914
3897.80819	0.02877
3895.87954	0.02830
3893.95089	0.02808
3892.02224	0.02812
3890.09358	0.02812
3888.16493	0.02816
3886.23628	0.02843
3884.30762	0.02854
3882.37897	0.02868
3880.45032	0.02879
3878.52166	0.02847
3876.59301	0.02815
3874.66436	0.02794
3872.73570	0.02800
3870.80705	0.02872
3868.87840	0.02898
3866.94974	0.02861
3865.02109	0.02858
3863.09244	0.02871
3861.16378	0.02860
3859.23513	0.02807
3857.30648	0.02784
3855.37782	0.02877
3853.44917	0.02955
3851.52052	0.02899
3849.59186	0.02828
3847.66321	0.02782
3845.73456	0.02713
3843.80590	0.02618
3841.87725	0.02556
3839.94860	0.02579
3838.01994	0.02625
3836.09129	0.02615
3834.16264	0.02638
3832.23398	0.02711
3830.30533	0.02750
3828.37668	0.02749
3826.44803	0.02697
3824.51937	0.02599
3822.59072	0.02566
3820.66207	0.02584
3818.73341	0.02609
3816.80476	0.02668
3814.87611	0.02646
3812.94745	0.02562
3811.01880	0.02532
3809.09015	0.02570
3807.16149	0.02623
3805.23284	0.02593
3803.30419	0.02559
3801.37553	0.02593
3799.44688	0.02623
3797.51823	0.02628
3795.58957	0.02582
3793.66092	0.02546
3791.73227	0.02579
3789.80361	0.02621
3787.87496	0.02648
3785.94631	0.02674
3784.01765	0.02666
3782.08900	0.02633
3780.16035	0.02614
3778.23169	0.02578
3776.30304	0.02523
3774.37439	0.02512
3772.44573	0.02543
3770.51708	0.02558
3768.58843	0.02549
3766.65977	0.02575
3764.73112	0.02581
3762.80247	0.02530
3760.87381	0.02510
3758.94516	0.02548
3757.01651	0.02589
3755.08786	0.02594
3753.15920	0.02609
3751.23055	0.02614
3749.30190	0.02558
3747.37324	0.02493
3745.44459	0.02531
3743.51594	0.02544
3741.58728	0.02511
3739.65863	0.02519
3737.72998	0.02530
3735.80132	0.02518
3733.87267	0.02464
3731.94402	0.02390
3730.01536	0.02323
3728.08671	0.02343
3726.15806	0.02428
3724.22940	0.02500
3722.30075	0.02530
3720.37210	0.02516
3718.44344	0.02488
3716.51479	0.02457
3714.58614	0.02409
3712.65748	0.02366
3710.72883	0.02363
3708.80018	0.02395
3706.87152	0.02381
3704.94287	0.02314
3703.01422	0.02281
3701.08556	0.02301
3699.15691	0.02337
3697.22826	0.02373
3695.29960	0.02407
3693.37095	0.02440
3691.44230	0.02447
3689.51365	0.02426
3687.58499	0.02375
3685.65634	0.02333
3683.72769	0.02367
3681.79903	0.02426
3679.87038	0.02450
3677.94173	0.02459
3676.01307	0.02472
3674.08442	0.02407
3672.15577	0.02350
3670.22711	0.02353
3668.29846	0.02355
3666.36981	0.02356
3664.44115	0.02341
3662.51250	0.02344
3660.58385	0.02378
3658.65519	0.02403
3656.72654	0.02396
3654.79789	0.02345
3652.86923	0.02332
3650.94058	0.02415
3649.01193	0.02497
3647.08327	0.02508
3645.15462	0.02524
3643.22597	0.02571
3641.29731	0.02578
3639.36866	0.02542
3637.44001	0.02513
3635.51135	0.02502
3633.58270	0.02493
3631.65405	0.02502
3629.72539	0.02549
3627.79674	0.02553
3625.86809	0.02522
3623.93943	0.02524
3622.01078	0.02559
3620.08213	0.02621
3618.15348	0.02679
3616.22482	0.02721
3614.29617	0.02738
3612.36752	0.02717
3610.43886	0.02707
3608.51021	0.02719
3606.58156	0.02724
3604.65290	0.02732
3602.72425	0.02737
3600.79560	0.02742
3598.86694	0.02759
3596.93829	0.02784
3595.00964	0.02821
3593.08098	0.02875
3591.15233	0.02912
3589.22368	0.02901
3587.29502	0.02852
3585.36637	0.02827
3583.43772	0.02872
3581.50906	0.02953
3579.58041	0.03016
3577.65176	0.03055
3575.72310	0.03065
3573.79445	0.03041
3571.86580	0.03024
3569.93714	0.03043
3568.00849	0.03061
3566.07984	0.03064
3564.15118	0.03102
3562.22253	0.03150
3560.29388	0.03165
3558.36522	0.03204
3556.43657	0.03267
3554.50792	0.03281
3552.57927	0.03246
3550.65061	0.03223
3548.72196	0.03248
3546.79331	0.03293
3544.86465	0.03315
3542.93600	0.03328
3541.00735	0.03334
3539.07869	0.03316
3537.15004	0.03297
3535.22139	0.03295
3533.29273	0.03303
3531.36408	0.03322
3529.43543	0.03365
3527.50677	0.03443
3525.57812	0.03534
3523.64947	0.03581
3521.72081	0.03555
3519.79216	0.03508
3517.86351	0.03509
3515.93485	0.03554
3514.00620	0.03602
3512.07755	0.03636
3510.14889	0.03666
3508.22024	0.03687
3506.29159	0.03695
3504.36293	0.03699
3502.43428	0.03702
3500.50563	0.03710
3498.57697	0.03729
3496.64832	0.03737
3494.71967	0.03718
3492.79101	0.03718
3490.86236	0.03770
3488.93371	0.03835
3487.00506	0.03867
3485.07640	0.03868
3483.14775	0.03859
3481.21910	0.03839
3479.29044	0.03809
3477.36179	0.03811
3475.43314	0.03872
3473.50448	0.03938
3471.57583	0.03949
3469.64718	0.03937
3467.71852	0.03956
3465.78987	0.04011
3463.86122	0.04075
3461.93256	0.04103
3460.00391	0.04089
3458.07526	0.04078
3456.14660	0.04080
3454.21795	0.04077
3452.28930	0.04074
3450.36064	0.04085
3448.43199	0.04121
3446.50334	0.04149
3444.57468	0.04133
3442.64603	0.04104
3440.71738	0.04094
3438.78872	0.04102
3436.86007	0.04132
3434.93142	0.04184
3433.00276	0.04241
3431.07411	0.04288
3429.14546	0.04300
3427.21680	0.04270
3425.28815	0.04258
3423.35950	0.04306
3421.43084	0.04363
3419.50219	0.04379
3417.57354	0.04371
3415.64489	0.04376
3413.71623	0.04386
3411.78758	0.04392
3409.85893	0.04419
3407.93027	0.04467
3406.00162	0.04502
3404.07297	0.04510
3402.14431	0.04514
3400.21566	0.04522
3398.28701	0.04519
3396.35835	0.04533
3394.42970	0.04585
3392.50105	0.04613
3390.57239	0.04579
3388.64374	0.04548
3386.71509	0.04542
3384.78643	0.04523
3382.85778	0.04518
3380.92913	0.04545
3379.00047	0.04575
3377.07182	0.04593
3375.14317	0.04605
3373.21451	0.04621
3371.28586	0.04641
3369.35721	0.04659
3367.42855	0.04683
3365.49990	0.04718
3363.57125	0.04746
3361.64259	0.04759
3359.71394	0.04764
3357.78529	0.04773
3355.85663	0.04802
3353.92798	0.04850
3351.99933	0.04906
3350.07068	0.04957
3348.14202	0.04992
3346.21337	0.05008
3344.28472	0.05010
3342.35606	0.05037
3340.42741	0.05106
3338.49876	0.05170
3336.57010	0.05189
3334.64145	0.05188
3332.71280	0.05198
3330.78414	0.05227
3328.85549	0.05277
3326.92684	0.05328
3324.99818	0.05355
3323.06953	0.05368
3321.14088	0.05383
3319.21222	0.05383
3317.28357	0.05367
3315.35492	0.05376
3313.42626	0.05405
3311.49761	0.05421
3309.56896	0.05438
3307.64030	0.05469
3305.71165	0.05502
3303.78300	0.05519
3301.85434	0.05523
3299.92569	0.05528
3297.99704	0.05523
3296.06838	0.05495
3294.13973	0.05476
3292.21108	0.05477
3290.28242	0.05467
3288.35377	0.05444
3286.42512	0.05434
3284.49646	0.05456
3282.56781	0.05505
3280.63916	0.05544
3278.71051	0.05536
3276.78185	0.05506
3274.85320	0.05475
3272.92455	0.05426
3270.99589	0.05380
3269.06724	0.05369
3267.13859	0.05375
3265.20993	0.05373
3263.28128	0.05360
3261.35263	0.05343
3259.42397	0.05341
3257.49532	0.05349
3255.56667	0.05339
3253.63801	0.05307
3251.70936	0.05262
3249.78071	0.05207
3247.85205	0.05158
3245.92340	0.05146
3243.99475	0.05164
3242.06609	0.05184
3240.13744	0.05192
3238.20879	0.05185
3236.28013	0.05162
3234.35148	0.05129
3232.42283	0.05087
3230.49417	0.05042
3228.56552	0.05016
3226.63687	0.05018
3224.70821	0.05032
3222.77956	0.05040
3220.85091	0.05035
3218.92225	0.05022
3216.99360	0.05004
3215.06495	0.04977
3213.13630	0.04952
3211.20764	0.04933
3209.27899	0.04917
3207.35034	0.04921
3205.42168	0.04939
3203.49303	0.04941
3201.56438	0.04928
3199.63572	0.04900
3197.70707	0.04847
3195.77842	0.04780
3193.84976	0.04717
3191.92111	0.04682
3189.99246	0.04690
3188.06380	0.04726
3186.13515	0.04758
3184.20650	0.04754
3182.27784	0.04718
3180.34919	0.04679
3178.42054	0.04644
3176.49188	0.04605
3174.56323	0.04577
3172.63458	0.04567
3170.70592	0.04550
3168.77727	0.04513
3166.84862	0.04480
3164.91996	0.04463
3162.99131	0.04437
3161.06266	0.04390
3159.13400	0.04357
3157.20535	0.04348
3155.27670	0.04323
3153.34804	0.04279
3151.41939	0.04254
3149.49074	0.04262
3147.56209	0.04264
3145.63343	0.04242
3143.70478	0.04199
3141.77613	0.04146
3139.84747	0.04119
3137.91882	0.04134
3135.99017	0.04154
3134.06151	0.04138
3132.13286	0.04091
3130.20421	0.04052
3128.27555	0.04049
3126.34690	0.04055
3124.41825	0.04040
3122.48959	0.04004
3120.56094	0.03972
3118.63229	0.03967
3116.70363	0.03975
3114.77498	0.03968
3112.84633	0.03972
3110.91767	0.03998
3108.98902	0.04009
3107.06037	0.04008
3105.13171	0.04013
3103.20306	0.04012
3101.27441	0.03993
3099.34575	0.03975
3097.41710	0.03966
3095.48845	0.03956
3093.55979	0.03953
3091.63114	0.03967
3089.70249	0.03982
3087.77383	0.03990
3085.84518	0.04005
3083.91653	0.04040
3081.98787	0.04073
3080.05922	0.04076
3078.13057	0.04067
3076.20192	0.04071
3074.27326	0.04069
3072.34461	0.04047
3070.41596	0.04036
3068.48730	0.04039
3066.55865	0.04026
3064.63000	0.03998
3062.70134	0.03979
3060.77269	0.03965
3058.84404	0.03958
3056.91538	0.03958
3054.98673	0.03955
3053.05808	0.03943
3051.12942	0.03922
3049.20077	0.03885
3047.27212	0.03832
3045.34346	0.03785
3043.41481	0.03771
3041.48616	0.03786
3039.55750	0.03782
3037.62885	0.03744
3035.70020	0.03711
3033.77154	0.03704
3031.84289	0.03698
3029.91424	0.03674
3027.98558	0.03650
3026.05693	0.03637
3024.12828	0.03621
3022.19962	0.03588
3020.27097	0.03540
3018.34232	0.03491
3016.41366	0.03468
3014.48501	0.03480
3012.55636	0.03502
3010.62771	0.03509
3008.69905	0.03508
3006.77040	0.03513
3004.84175	0.03518
3002.91309	0.03515
3000.98444	0.03516
2999.05579	0.03516
2997.12713	0.03504
2995.19848	0.03509
2993.26983	0.03530
2991.34117	0.03545
2989.41252	0.03547
2987.48387	0.03535
2985.55521	0.03522
2983.62656	0.03542
2981.69791	0.03589
2979.76925	0.03638
2977.84060	0.03678
2975.91195	0.03705
2973.98329	0.03723
2972.05464	0.03748
2970.12599	0.03770
2968.19733	0.03779
2966.26868	0.03796
2964.34003	0.03825
2962.41137	0.03845
2960.48272	0.03843
2958.55407	0.03837
2956.62541	0.03852
2954.69676	0.03873
2952.76811	0.03879
2950.83945	0.03879
2948.91080	0.03892
2946.98215	0.03912
2945.05349	0.03922
2943.12484	0.03926
2941.19619	0.03960
2939.26754	0.04026
2937.33888	0.04066
2935.41023	0.04062
2933.48158	0.04053
2931.55292	0.04054
2929.62427	0.04070
2927.69562	0.04108
2925.76696	0.04144
2923.83831	0.04145
2921.90966	0.04123
2919.98100	0.04089
2918.05235	0.04047
2916.12370	0.04002
2914.19504	0.03948
2912.26639	0.03881
2910.33774	0.03811
2908.40908	0.03757
2906.48043	0.03734
2904.55178	0.03734
2902.62312	0.03723
2900.69447	0.03679
2898.76582	0.03627
2896.83716	0.03597
2894.90851	0.03581
2892.97986	0.03558
2891.05120	0.03532
2889.12255	0.03517
2887.19390	0.03513
2885.26524	0.03523
2883.33659	0.03544
2881.40794	0.03552
2879.47928	0.03537
2877.55063	0.03518
2875.62198	0.03518
2873.69333	0.03526
2871.76467	0.03513
2869.83602	0.03490
2867.90737	0.03477
2865.97871	0.03468
2864.05006	0.03451
2862.12141	0.03436
2860.19275	0.03435
2858.26410	0.03440
2856.33545	0.03443
2854.40679	0.03454
2852.47814	0.03464
2850.54949	0.03439
2848.62083	0.03378
2846.69218	0.03319
2844.76353	0.03286
2842.83487	0.03258
2840.90622	0.03215
2838.97757	0.03168
2837.04891	0.03132
2835.12026	0.03122
2833.19161	0.03132
2831.26295	0.03130
2829.33430	0.03102
2827.40565	0.03065
2825.47699	0.03035
2823.54834	0.03011
2821.61969	0.03000
2819.69103	0.03010
2817.76238	0.03023
2815.83373	0.03020
2813.90507	0.03008
2811.97642	0.02997
2810.04777	0.02978
2808.11912	0.02948
2806.19046	0.02928
2804.26181	0.02927
2802.33316	0.02937
2800.40450	0.02952
2798.47585	0.02950
2796.54720	0.02916
2794.61854	0.02871
2792.68989	0.02854
2790.76124	0.02866
2788.83258	0.02876
2786.90393	0.02872
2784.97528	0.02862
2783.04662	0.02846
2781.11797	0.02830
2779.18932	0.02819
2777.26066	0.02815
2775.33201	0.02813
2773.40336	0.02805
2771.47470	0.02791
2769.54605	0.02788
2767.61740	0.02796
2765.68874	0.02796
2763.76009	0.02783
2761.83144	0.02770
2759.90278	0.02757
2757.97413	0.02736
2756.04548	0.02710
2754.11682	0.02700
2752.18817	0.02714
2750.25952	0.02728
2748.33086	0.02727
2746.40221	0.02725
2744.47356	0.02716
2742.54490	0.02695
2740.61625	0.02670
2738.68760	0.02653
2736.75895	0.02649
2734.83029	0.02643
2732.90164	0.02632
2730.97299	0.02623
2729.04433	0.02616
2727.11568	0.02624
2725.18703	0.02651
2723.25837	0.02682
2721.32972	0.02693
2719.40107	0.02671
2717.47241	0.02622
2715.54376	0.02578
2713.61511	0.02570
2711.68645	0.02580
2709.75780	0.02583
2707.82915	0.02588
2705.90049	0.02588
2703.97184	0.02569
2702.04319	0.02551
2700.11453	0.02549
2698.18588	0.02555
2696.25723	0.02559
2694.32857	0.02548
2692.39992	0.02515
2690.47127	0.02487
2688.54261	0.02486
2686.61396	0.02497
2684.68531	0.02500
2682.75665	0.02491
2680.82800	0.02481
2678.89935	0.02480
2676.97069	0.02483
2675.04204	0.02483
2673.11339	0.02484
2671.18474	0.02474
2669.25608	0.02447
2667.32743	0.02422
2665.39878	0.02420
2663.47012	0.02437
2661.54147	0.02453
2659.61282	0.02441
2657.68416	0.02396
2655.75551	0.02342
2653.82686	0.02304
2651.89820	0.02290
2649.96955	0.02287
2648.04090	0.02275
2646.11224	0.02261
2644.18359	0.02249
2642.25494	0.02229
2640.32628	0.02221
2638.39763	0.02228
2636.46898	0.02215
2634.54032	0.02184
2632.61167	0.02163
2630.68302	0.02161
2628.75436	0.02166
2626.82571	0.02163
2624.89706	0.02154
2622.96840	0.02146
2621.03975	0.02130
2619.11110	0.02103
2617.18244	0.02093
2615.25379	0.02099
2613.32514	0.02090
2611.39648	0.02061
2609.46783	0.02041
2607.53918	0.02024
2605.61052	0.01999
2603.68187	0.01995
2601.75322	0.02038
2599.82457	0.02078
2597.89591	0.02057
2595.96726	0.02005
2594.03861	0.01997
2592.10995	0.02031
2590.18130	0.02042
2588.25265	0.02011
2586.32399	0.01977
2584.39534	0.01966
2582.46669	0.01965
2580.53803	0.01951
2578.60938	0.01935
2576.68073	0.01936
2574.75207	0.01937
2572.82342	0.01929
2570.89477	0.01931
2568.96611	0.01936
2567.03746	0.01923
2565.10881	0.01908
2563.18015	0.01919
2561.25150	0.01934
2559.32285	0.01916
2557.39419	0.01895
2555.46554	0.01911
2553.53689	0.01944
2551.60823	0.01948
2549.67958	0.01920
2547.75093	0.01880
2545.82227	0.01843
2543.89362	0.01839
2541.96497	0.01861
2540.03631	0.01870
2538.10766	0.01833
2536.17901	0.01777
2534.25036	0.01764
2532.32170	0.01802
2530.39305	0.01834
2528.46440	0.01825
2526.53574	0.01800
2524.60709	0.01794
2522.67844	0.01799
2520.74978	0.01782
2518.82113	0.01753
2516.89248	0.01755
2514.96382	0.01777
2513.03517	0.01770
2511.10652	0.01750
2509.17786	0.01747
2507.24921	0.01758
2505.32056	0.01780
2503.39190	0.01804
2501.46325	0.01812
2499.53460	0.01781
2497.60594	0.01729
2495.67729	0.01735
2493.74864	0.01809
2491.81998	0.01856
2489.89133	0.01826
2487.96268	0.01774
2486.03402	0.01756
2484.10537	0.01762
2482.17672	0.01753
2480.24806	0.01737
2478.31941	0.01731
2476.39076	0.01741
2474.46210	0.01744
2472.53345	0.01719
2470.60480	0.01689
2468.67615	0.01681
2466.74749	0.01674
2464.81884	0.01680
2462.89019	0.01730
2460.96153	0.01779
2459.03288	0.01765
2457.10423	0.01706
2455.17557	0.01654
2453.24692	0.01621
2451.31827	0.01607
2449.38961	0.01599
2447.46096	0.01587
2445.53231	0.01602
2443.60365	0.01635
2441.67500	0.01644
2439.74635	0.01655
2437.81769	0.01677
2435.88904	0.01669
2433.96039	0.01642
2432.03173	0.01639
2430.10308	0.01662
2428.17443	0.01678
2426.24577	0.01668
2424.31712	0.01664
2422.38847	0.01676
2420.45981	0.01678
2418.53116	0.01689
2416.60251	0.01712
2414.67385	0.01687
2412.74520	0.01632
2410.81655	0.01631
2408.88789	0.01686
2406.95924	0.01731
2405.03059	0.01723
2403.10193	0.01687
2401.17328	0.01682
2399.24463	0.01692
2397.31598	0.01660
2395.38732	0.01616
2393.45867	0.01630
2391.53002	0.01685
2389.60136	0.01729
2387.67271	0.01755
2385.74406	0.01763
2383.81540	0.01746
2381.88675	0.01718
2379.95810	0.01719
2378.02944	0.01763
2376.10079	0.01813
2374.17214	0.01823
2372.24348	0.01798
2370.31483	0.01782
2368.38618	0.01791
2366.45752	0.01793
2364.52887	0.01777
2362.60022	0.01764
2360.67156	0.01767
2358.74291	0.01779
2356.81426	0.01789
2354.88560	0.01783
2352.95695	0.01759
2351.02830	0.01732
2349.09964	0.01724
2347.17099	0.01738
2345.24234	0.01757
2343.31368	0.01760
2341.38503	0.01753
2339.45638	0.01752
2337.52772	0.01752
2335.59907	0.01748
2333.67042	0.01742
2331.74177	0.01732
2329.81311	0.01712
2327.88446	0.01672
2325.95581	0.01615
2324.02715	0.01579
2322.09850	0.01588
2320.16985	0.01597
2318.24119	0.01575
2316.31254	0.01545
2314.38389	0.01533
2312.45523	0.01542
2310.52658	0.01550
2308.59793	0.01543
2306.66927	0.01526
2304.74062	0.01509
2302.81197	0.01490
2300.88331	0.01469
2298.95466	0.01444
2297.02601	0.01419
2295.09735	0.01396
2293.16870	0.01377
2291.24005	0.01361
2289.31139	0.01342
2287.38274	0.01314
2285.45409	0.01284
2283.52543	0.01266
2281.59678	0.01277
2279.66813	0.01288
2277.73947	0.01249
2275.81082	0.01196
2273.88217	0.01194
2271.95351	0.01223
2270.02486	0.01235
2268.09621	0.01229
2266.16755	0.01217
2264.23890	0.01211
2262.31025	0.01238
2260.38160	0.01288
2258.45294	0.01315
2256.52429	0.01308
2254.59564	0.01282
2252.66698	0.01217
2250.73833	0.01126
2248.80968	0.01090
2246.88102	0.01135
2244.95237	0.01183
2243.02372	0.01145
2241.09506	0.01056
2239.16641	0.00999
2237.23776	0.00968
2235.30910	0.00964
2233.38045	0.01033
2231.45180	0.01137
2229.52314	0.01189
2227.59449	0.01158
2225.66584	0.01081
2223.73718	0.01038
2221.80853	0.01032
2219.87988	0.00987
2217.95122	0.00926
2216.02257	0.00898
2214.09392	0.00856
2212.16526	0.00804
2210.23661	0.00806
2208.30796	0.00886
2206.37930	0.00968
2204.45065	0.00902
2202.52200	0.00757
2200.59334	0.00746
2198.66469	0.00835
2196.73604	0.00884
2194.80739	0.00858
2192.87873	0.00776
2190.95008	0.00721
2189.02143	0.00760
2187.09277	0.00816
2185.16412	0.00761
2183.23547	0.00656
2181.30681	0.00656
2179.37816	0.00732
2177.44951	0.00753
2175.52085	0.00643
2173.59220	0.00474
2171.66355	0.00413
2169.73489	0.00460
2167.80624	0.00495
2165.87759	0.00490
2163.94893	0.00466
2162.02028	0.00436
2160.09163	0.00429
2158.16297	0.00467
2156.23432	0.00547
2154.30567	0.00644
2152.37701	0.00718
2150.44836	0.00765
2148.51971	0.00791
2146.59105	0.00824
2144.66240	0.00905
2142.73375	0.01001
2140.80509	0.01067
2138.87644	0.01079
2136.94779	0.01016
2135.01913	0.00932
2133.09048	0.00893
2131.16183	0.00910
2129.23318	0.00966
2127.30452	0.01040
2125.37587	0.01119
2123.44722	0.01152
2121.51856	0.01088
2119.58991	0.01023
2117.66126	0.01051
2115.73260	0.01060
2113.80395	0.00997
2111.87530	0.00969
2109.94664	0.00995
2108.01799	0.01009
2106.08934	0.01007
2104.16068	0.01003
2102.23203	0.00970
2100.30338	0.00908
2098.37472	0.00848
2096.44607	0.00871
2094.51742	0.00941
2092.58876	0.00999
2090.66011	0.01035
2088.73146	0.01036
2086.80280	0.00991
2084.87415	0.00962
2082.94550	0.00947
2081.01684	0.00888
2079.08819	0.00782
2077.15954	0.00704
2075.23088	0.00703
2073.30223	0.00740
2071.37358	0.00755
2069.44492	0.00728
2067.51627	0.00678
2065.58762	0.00615
2063.65896	0.00561
2061.73031	0.00581
2059.80166	0.00681
2057.87301	0.00764
2055.94435	0.00777
2054.01570	0.00749
2052.08705	0.00678
2050.15839	0.00543
2048.22974	0.00403
2046.30109	0.00352
2044.37243	0.00400
2042.44378	0.00466
2040.51513	0.00489
2038.58647	0.00482
2036.65782	0.00463
2034.72917	0.00432
2032.80051	0.00421
2030.87186	0.00445
2028.94321	0.00479
2027.01455	0.00506
2025.08590	0.00501
2023.15725	0.00448
2021.22859	0.00408
2019.29994	0.00413
2017.37129	0.00400
2015.44263	0.00377
2013.51398	0.00435
2011.58533	0.00526
2009.65667	0.00498
2007.72802	0.00350
2005.79937	0.00283
2003.87071	0.00410
2001.94206	0.00580
2000.01341	0.00651
1998.08475	0.00642
1996.15610	0.00590
1994.22745	0.00532
1992.29880	0.00540
1990.37014	0.00610
1988.44149	0.00677
1986.51284	0.00697
1984.58418	0.00643
1982.65553	0.00517
1980.72688	0.00384
1978.79822	0.00305
1976.86957	0.00289
1974.94092	0.00298
1973.01226	0.00302
1971.08361	0.00316
1969.15496	0.00363
1967.22630	0.00439
1965.29765	0.00551
1963.36900	0.00676
1961.44034	0.00750
1959.51169	0.00747
1957.58304	0.00699
1955.65438	0.00659
1953.72573	0.00632
1951.79708	0.00603
1949.86842	0.00610
1947.93977	0.00675
1946.01112	0.00738
1944.08246	0.00750
1942.15381	0.00741
1940.22516	0.00783
1938.29650	0.00855
1936.36785	0.00868
1934.43920	0.00837
1932.51054	0.00824
1930.58189	0.00815
1928.65324	0.00789
1926.72458	0.00773
1924.79593	0.00777
1922.86728	0.00813
1920.93863	0.00861
1919.00997	0.00883
1917.08132	0.00893
1915.15267	0.00911
1913.22401	0.00927
1911.29536	0.00936
1909.36671	0.00924
1907.43805	0.00892
1905.50940	0.00860
1903.58075	0.00837
1901.65209	0.00835
1899.72344	0.00854
1897.79479	0.00884
1895.86613	0.00922
1893.93748	0.00950
1892.00883	0.00964
1890.08017	0.00986
1888.15152	0.00991
1886.22287	0.00951
1884.29421	0.00903
1882.36556	0.00887
1880.43691	0.00902
1878.50825	0.00918
1876.57960	0.00918
1874.65095	0.00902
1872.72229	0.00888
1870.79364	0.00887
1868.86499	0.00893
1866.93633	0.00896
1865.00768	0.00898
1863.07903	0.00904
1861.15037	0.00922
1859.22172	0.00939
1857.29307	0.00948
1855.36442	0.00955
1853.43576	0.00952
1851.50711	0.00920
1849.57846	0.00877
1847.64980	0.00853
1845.72115	0.00871
1843.79250	0.00921
1841.86384	0.00952
1839.93519	0.00950
1838.00654	0.00937
1836.07788	0.00931
1834.14923	0.00921
1832.22058	0.00901
1830.29192	0.00890
1828.36327	0.00886
1826.43462	0.00888
1824.50596	0.00881
1822.57731	0.00865
1820.64866	0.00857
1818.72000	0.00873
1816.79135	0.00917
1814.86270	0.00961
1812.93404	0.00975
1811.00539	0.00966
1809.07674	0.00953
1807.14808	0.00938
1805.21943	0.00923
1803.29078	0.00912
1801.36212	0.00907
1799.43347	0.00901
1797.50482	0.00893
1795.57616	0.00891
1793.64751	0.00900
1791.71886	0.00911
1789.79021	0.00910
1787.86155	0.00900
1785.93290	0.00884
1784.00425	0.00873
1782.07559	0.00873
1780.14694	0.00879
1778.21829	0.00877
1776.28963	0.00869
1774.36098	0.00875
1772.43233	0.00893
1770.50367	0.00902
1768.57502	0.00908
1766.64637	0.00900
1764.71771	0.00888
1762.78906	0.00895
1760.86041	0.00904
1758.93175	0.00911
1757.00310	0.00925
1755.07445	0.00932
1753.14579	0.00938
1751.21714	0.00949
1749.28849	0.00968
1747.35983	0.00999
1745.43118	0.01020
1743.50253	0.01028
1741.57387	0.01037
1739.64522	0.01042
1737.71657	0.01037
1735.78791	0.01064
1733.85926	0.01104
1731.93061	0.01107
1730.00195	0.01110
1728.07330	0.01132
1726.14465	0.01156
1724.21599	0.01173
1722.28734	0.01174
1720.35869	0.01185
1718.43004	0.01227
1716.50138	0.01269
1714.57273	0.01297
1712.64408	0.01332
1710.71542	0.01376
1708.78677	0.01433
1706.85812	0.01509
1704.92946	0.01593
1703.00081	0.01691
1701.07216	0.01835
1699.14350	0.01975
1697.21485	0.02123
1695.28620	0.02281
1693.35754	0.02419
1691.42889	0.02578
1689.50024	0.02745
1687.57158	0.02911
1685.64293	0.03101
1683.71428	0.03276
1681.78562	0.03436
1679.85697	0.03635
1677.92832	0.03857
1675.99966	0.04083
1674.07101	0.04299
1672.14236	0.04526
1670.21370	0.04782
1668.28505	0.05024
1666.35640	0.05244
1664.42774	0.05470
1662.49909	0.05700
1660.57044	0.05914
1658.64178	0.06099
1656.71313	0.06251
1654.78448	0.06409
1652.85583	0.06554
1650.92717	0.06639
1648.99852	0.06734
1647.06987	0.06850
1645.14121	0.06935
1643.21256	0.07002
1641.28391	0.07073
1639.35525	0.07133
1637.42660	0.07193
1635.49795	0.07251
1633.56929	0.07275
1631.64064	0.07284
1629.71199	0.07279
1627.78333	0.07234
1625.85468	0.07139
1623.92603	0.07005
1621.99737	0.06826
1620.06872	0.06616
1618.14007	0.06411
1616.21141	0.06194
1614.28276	0.05953
1612.35411	0.05724
1610.42545	0.05502
1608.49680	0.05282
1606.56815	0.05074
1604.63949	0.04879
1602.71084	0.04698
1600.78219	0.04532
1598.85353	0.04381
1596.92488	0.04246
1594.99623	0.04124
1593.06757	0.04016
1591.13892	0.03935
1589.21027	0.03881
1587.28161	0.03840
1585.35296	0.03811
1583.42431	0.03800
1581.49566	0.03808
1579.56700	0.03834
1577.63835	0.03888
1575.70970	0.03954
1573.78104	0.04019
1571.85239	0.04125
1569.92374	0.04261
1567.99508	0.04392
1566.06643	0.04530
1564.13778	0.04669
1562.20912	0.04810
1560.28047	0.04980
1558.35182	0.05135
1556.42316	0.05263
1554.49451	0.05401
1552.56586	0.05517
1550.63720	0.05606
1548.70855	0.05683
1546.77990	0.05757
1544.85124	0.05822
1542.92259	0.05865
1540.99394	0.05899
1539.06528	0.05915
1537.13663	0.05909
1535.20798	0.05911
1533.27932	0.05909
1531.35067	0.05881
1529.42202	0.05853
1527.49336	0.05824
1525.56471	0.05779
1523.63606	0.05726
1521.70740	0.05682
1519.77875	0.05624
1517.85010	0.05563
1515.92145	0.05493
1513.99279	0.05399
1512.06414	0.05287
1510.13549	0.05158
1508.20683	0.05029
1506.27818	0.04890
1504.34953	0.04722
1502.42087	0.04557
1500.49222	0.04403
1498.56357	0.04251
1496.63491	0.04105
1494.70626	0.03950
1492.77761	0.03801
1490.84895	0.03677
1488.92030	0.03563
1486.99165	0.03462
1485.06299	0.03381
1483.13434	0.03329
1481.20569	0.03301
1479.27703	0.03289
1477.34838	0.03296
1475.41973	0.03331
1473.49107	0.03393
1471.56242	0.03460
1469.63377	0.03529
1467.70511	0.03618
1465.77646	0.03719
1463.84781	0.03810
1461.91915	0.03888
1459.99050	0.03970
1458.06185	0.04068
1456.13319	0.04151
1454.20454	0.04203
1452.27589	0.04248
1450.34724	0.04274
1448.41858	0.04275
1446.48993	0.04254
1444.56128	0.04225
1442.63262	0.04199
1440.70397	0.04165
1438.77532	0.04121
1436.84666	0.04065
1434.91801	0.03980
1432.98936	0.03889
1431.06070	0.03811
1429.13205	0.03746
1427.20340	0.03702
1425.27474	0.03683
1423.34609	0.03669
1421.41744	0.03656
1419.48878	0.03647
1417.56013	0.03630
1415.63148	0.03622
1413.70282	0.03633
1411.77417	0.03646
1409.84552	0.03661
1407.91686	0.03688
1405.98821	0.03725
1404.05956	0.03750
1402.13090	0.03754
1400.20225	0.03750
1398.27360	0.03745
1396.34494	0.03737
1394.41629	0.03724
1392.48764	0.03703
1390.55898	0.03686
1388.63033	0.03677
1386.70168	0.03670
1384.77302	0.03660
1382.84437	0.03646
1380.91572	0.03626
1378.98707	0.03603
1377.05841	0.03578
1375.12976	0.03545
1373.20111	0.03502
1371.27245	0.03453
1369.34380	0.03404
1367.41515	0.03354
1365.48649	0.03308
1363.55784	0.03268
1361.62919	0.03226
1359.70053	0.03181
1357.77188	0.03152
1355.84323	0.03148
1353.91457	0.03161
1351.98592	0.03178
1350.05727	0.03202
1348.12861	0.03241
1346.19996	0.03293
1344.27131	0.03348
1342.34265	0.03396
1340.41400	0.03437
1338.48535	0.03469
1336.55669	0.03488
1334.62804	0.03487
1332.69939	0.03463
1330.77073	0.03421
1328.84208	0.03377
1326.91343	0.03341
1324.98477	0.03313
1323.05612	0.03289
1321.12747	0.03271
1319.19881	0.03261
1317.27016	0.03252
1315.34151	0.03238
1313.41286	0.03216
1311.48420	0.03187
1309.55555	0.03161
1307.62690	0.03139
1305.69824	0.03119
1303.76959	0.03105
1301.84094	0.03095
1299.91228	0.03076
1297.98363	0.03053
1296.05498	0.03047
1294.12632	0.03060
1292.19767	0.03078
1290.26902	0.03105
1288.34036	0.03143
1286.41171	0.03186
1284.48306	0.03228
1282.55440	0.03264
1280.62575	0.03288
1278.69710	0.03300
1276.76844	0.03306
1274.83979	0.03309
1272.91114	0.03316
1270.98248	0.03328
1269.05383	0.03340
1267.12518	0.03358
1265.19652	0.03384
1263.26787	0.03410
1261.33922	0.03436
1259.41056	0.03471
1257.48191	0.03517
1255.55326	0.03568
1253.62460	0.03621
1251.69595	0.03673
1249.76730	0.03728
1247.83864	0.03790
1245.90999	0.03855
1243.98134	0.03920
1242.05269	0.03985
1240.12403	0.04043
1238.19538	0.04085
1236.26673	0.04115
1234.33807	0.04134
1232.40942	0.04133
1230.48077	0.04107
1228.55211	0.04065
1226.62346	0.04008
1224.69481	0.03931
1222.76615	0.03842
1220.83750	0.03759
1218.90885	0.03691
1216.98019	0.03639
1215.05154	0.03598
1213.12289	0.03568
1211.19423	0.03556
1209.26558	0.03565
1207.33693	0.03585
1205.40827	0.03599
1203.47962	0.03604
1201.55097	0.03602
1199.62231	0.03594
1197.69366	0.03547
1195.76501	0.03491
1193.83635	0.03429
1191.90770	0.03362
1189.97905	0.03294
1188.05039	0.03231
1186.12174	0.03185
1184.19309	0.03154
1182.26443	0.03128
1180.33578	0.03111
1178.40713	0.03105
1176.47848	0.03100
1174.54982	0.03093
1172.62117	0.03080
1170.69252	0.03066
1168.76386	0.03055
1166.83521	0.03053
1164.90656	0.03063
1162.97790	0.03076
1161.04925	0.03069
1159.12060	0.03041
1157.19194	0.03007
1155.26329	0.02979
1153.33464	0.02942
1151.40598	0.02886
1149.47733	0.02822
1147.54868	0.02765
1145.62002	0.02722
1143.69137	0.02697
1141.76272	0.02680
1139.83406	0.02656
1137.90541	0.02624
1135.97676	0.02592
1134.04810	0.02575
1132.11945	0.02571
1130.19080	0.02565
1128.26214	0.02552
1126.33349	0.02539
1124.40484	0.02532
1122.47618	0.02527
1120.54753	0.02518
1118.61888	0.02509
1116.69022	0.02508
1114.76157	0.02505
1112.83292	0.02495
1110.90427	0.02500
1108.97561	0.02527
1107.04696	0.02553
1105.11831	0.02564
1103.18965	0.02573
1101.26100	0.02593
1099.33235	0.02620
1097.40369	0.02648
1095.47504	0.02673
1093.54639	0.02697
1091.61773	0.02738
1089.68908	0.02799
1087.76043	0.02863
1085.83177	0.02920
1083.90312	0.02973
1081.97447	0.03018
1080.04581	0.03047
1078.11716	0.03059
1076.18851	0.03056
1074.25985	0.03038
1072.33120	0.03013
1070.40255	0.02991
1068.47389	0.02982
1066.54524	0.02985
1064.61659	0.02988
1062.68793	0.02985
1060.75928	0.02980
1058.83063	0.02970
1056.90197	0.02954
1054.97332	0.02934
1053.04467	0.02916
1051.11601	0.02895
1049.18736	0.02861
1047.25871	0.02824
1045.33005	0.02806
1043.40140	0.02806
1041.47275	0.02806
1039.54410	0.02810
1037.61544	0.02827
1035.68679	0.02852
1033.75814	0.02877
1031.82948	0.02888
1029.90083	0.02872
1027.97218	0.02831
1026.04352	0.02783
1024.11487	0.02742
1022.18622	0.02704
1020.25756	0.02667
1018.32891	0.02636
1016.40026	0.02613
1014.47160	0.02583
1012.54295	0.02540
1010.61430	0.02500
1008.68564	0.02467
1006.75699	0.02434
1004.82834	0.02403
1002.89968	0.02376
1000.97103	0.02351
999.04238	0.02324
997.11372	0.02296
995.18507	0.02273
993.25642	0.02251
991.32776	0.02225
989.39911	0.02200
987.47046	0.02182
985.54180	0.02166
983.61315	0.02154
981.68450	0.02151
979.75584	0.02159
977.82719	0.02169
975.89854	0.02172
973.96989	0.02174
972.04123	0.02172
970.11258	0.02156
968.18393	0.02130
966.25527	0.02108
964.32662	0.02086
962.39797	0.02062
960.46931	0.02046
958.54066	0.02039
956.61201	0.02034
954.68335	0.02026
952.75470	0.02022
950.82605	0.02019
948.89739	0.02010
946.96874	0.01998
945.04009	0.01991
943.11143	0.01995
941.18278	0.02006
939.25413	0.02011
937.32547	0.02000
935.39682	0.01993
933.46817	0.02005
931.53951	0.02019
929.61086	0.02017
927.68221	0.02003
925.75355	0.01998
923.82490	0.02004
921.89625	0.02005
919.96759	0.01993
918.03894	0.01978
916.11029	0.01970
914.18163	0.01968
912.25298	0.01967
910.32433	0.01955
908.39567	0.01930
906.46702	0.01910
904.53837	0.01902
902.60972	0.01893
900.68106	0.01877
898.75241	0.01881
896.82376	0.01908
894.89510	0.01919
892.96645	0.01901
891.03780	0.01878
889.10914	0.01865
887.18049	0.01864
885.25184	0.01871
883.32318	0.01876
881.39453	0.01882
879.46588	0.01893
877.53722	0.01899
875.60857	0.01894
873.67992	0.01888
871.75126	0.01877
869.82261	0.01861
867.89396	0.01852
865.96530	0.01851
864.03665	0.01857
862.10800	0.01865
860.17934	0.01862
858.25069	0.01853
856.32204	0.01850
854.39338	0.01857
852.46473	0.01863
850.53608	0.01862
848.60742	0.01857
846.67877	0.01854
844.75012	0.01856
842.82146	0.01863
840.89281	0.01861
838.96416	0.01849
837.03551	0.01844
835.10685	0.01849
833.17820	0.01844
831.24955	0.01837
829.32089	0.01840
827.39224	0.01847
825.46359	0.01857
823.53493	0.01874
821.60628	0.01900
819.67763	0.01932
817.74897	0.01955
815.82032	0.01964
813.89167	0.01964
811.96301	0.01956
810.03436	0.01950
808.10571	0.01963
806.17705	0.01990
804.24840	0.02012
802.31975	0.02028
800.39109	0.02035
798.46244	0.02033
796.53379	0.02037
794.60513	0.02054
792.67648	0.02074
790.74783	0.02093
788.81917	0.02103
786.89052	0.02105
784.96187	0.02110
783.03321	0.02119
781.10456	0.02125
779.17591	0.02130
777.24725	0.02141
775.31860	0.02165
773.38995	0.02204
771.46130	0.02244
769.53264	0.02269
767.60399	0.02278
765.67534	0.02275
763.74668	0.02273
761.81803	0.02283
759.88938	0.02304
757.96072	0.02325
756.03207	0.02343
754.10342	0.02365
752.17476	0.02394
750.24611	0.02423
748.31746	0.02443
746.38880	0.02460
744.46015	0.02485
742.53150	0.02501
740.60284	0.02501
738.67419	0.02509
736.74554	0.02533
734.81688	0.02563
732.88823	0.02590
730.95958	0.02608
729.03092	0.02626
727.10227	0.02643
725.17362	0.02659
723.24496	0.02679
721.31631	0.02705
719.38766	0.02721
717.45900	0.02736
715.53035	0.02755
713.60170	0.02768
711.67304	0.02775
709.74439	0.02785
707.81574	0.02804
705.88708	0.02834
703.95843	0.02868
702.02978	0.02891
700.10113	0.02900
698.17247	0.02905
696.24382	0.02909
694.31517	0.02913
692.38651	0.02924
690.45786	0.02939
688.52921	0.02954
686.60055	0.02966
684.67190	0.02984
682.74325	0.03006
680.81459	0.03028
678.88594	0.03044
676.95729	0.03055
675.02863	0.03065
673.09998	0.03075
671.17133	0.03092
669.24267	0.03113
667.31402	0.03132
665.38537	0.03150
663.45671	0.03166
661.52806	0.03169
659.59941	0.03167
657.67075	0.03175
655.74210	0.03183
653.81345	0.03182
651.88479	0.03181
649.95614	0.03194
648.02749	0.03219
646.09883	0.03244
644.17018	0.03249
642.24153	0.03236
640.31287	0.03231
638.38422	0.03246
636.45557	0.03264
634.52692	0.03269
632.59826	0.03253
630.66961	0.03292
628.74096	0.03513
626.81230	0.03245
624.88365	0.02901
622.95500	0.02749
621.02634	0.02793
619.09769	0.03019
617.16904	0.03464
615.24038	0.03865
613.31173	0.03842
611.38308	0.03471
609.45442	0.03231
607.52577	0.03212
605.59712	0.03155
603.66846	0.03131
601.73981	0.03265
599.81116	0.03413
597.88250	0.03464
595.95385	0.03444
594.02520	0.03401
592.09654	0.03382
590.16789	0.03390
588.23924	0.03401
586.31058	0.03414
584.38193	0.03422
582.45328	0.03406
580.52462	0.03378
578.59597	0.03363
576.66732	0.03371
574.73866	0.03390
572.81001	0.03396
570.88136	0.03381
568.95270	0.03368
567.02405	0.03380
565.09540	0.03396
563.16675	0.03403
561.23809	0.03419
559.30944	0.03440
557.38079	0.03453
555.45213	0.03471
553.52348	0.03489
551.59483	0.03483
549.66617	0.03466
547.73752	0.03473
545.80887	0.03491
543.88021	0.03482
541.95156	0.03455
540.02291	0.03447
538.09425	0.03455
536.16560	0.03458
534.23695	0.03457
532.30829	0.03459
530.37964	0.03459
528.45099	0.03450
526.52233	0.03444
524.59368	0.03445
522.66503	0.03434
520.73637	0.03405
518.80772	0.03373
516.87907	0.03353
514.95041	0.03348
513.02176	0.03341
511.09311	0.03322
509.16445	0.03308
507.23580	0.03304
505.30715	0.03284
503.37849	0.03261
501.44984	0.03266
499.52119	0.03287
497.59254	0.03282
495.66388	0.03245
493.73523	0.03210
491.80658	0.03192
489.87792	0.03171
487.94927	0.03135
486.02062	0.03112
484.09196	0.03109
482.16331	0.03098
480.23466	0.03071
478.30600	0.03057
476.37735	0.03069
474.44870	0.03073
472.52004	0.03047
470.59139	0.03003
468.66274	0.02964
466.73408	0.02939
464.80543	0.02932
462.87678	0.02934
460.94812	0.02926
459.01947	0.02901
457.09082	0.02872
455.16216	0.02847
453.23351	0.02820
451.30486	0.02795
449.37620	0.02778
447.44755	0.02759
445.51890	0.02736
443.59024	0.02717
441.66159	0.02700
439.73294	0.02680
437.80428	0.02668
435.87563	0.02662
433.94698	0.02653
432.01833	0.02646
430.08967	0.02639
428.16102	0.02626
426.23237	0.02602
424.30371	0.02563
422.37506	0.02521
420.44641	0.02503
418.51775	0.02503
416.58910	0.02500
414.66045	0.02493
412.73179	0.02483
410.80314	0.02466
408.87449	0.02446
406.94583	0.02433
405.01718	0.02429
403.08853	0.02416
401.15987	0.02399
399.23122	0.02395
