3996.16951	0.07511
3994.24086	0.07482
3992.31220	0.07433
3990.38355	0.07451
3988.45490	0.07507
3986.52624	0.07496
3984.59759	0.07430
3982.66894	0.07391
3980.74028	0.07416
3978.81163	0.07451
3976.88298	0.07419
3974.95432	0.07354
3973.02567	0.07334
3971.09702	0.07323
3969.16836	0.07298
3967.23971	0.07315
3965.31106	0.07346
3963.38240	0.07333
3961.45375	0.07319
3959.52510	0.07347
3957.59645	0.07380
3955.66779	0.07392
3953.73914	0.07399
3951.81049	0.07416
3949.88183	0.07417
3947.95318	0.07385
3946.02453	0.07327
3944.09587	0.07257
3942.16722	0.07227
3940.23857	0.07236
3938.30991	0.07229
3936.38126	0.07205
3934.45261	0.07175
3932.52395	0.07142
3930.59530	0.07133
3928.66665	0.07145
3926.73799	0.07138
3924.80934	0.07105
3922.88069	0.07091
3920.95203	0.07104
3919.02338	0.07101
3917.09473	0.07086
3915.16607	0.07095
3913.23742	0.07110
3911.30877	0.07103
3909.38011	0.07070
3907.45146	0.07038
3905.52281	0.07035
3903.59415	0.07059
3901.66550	0.07093
3899.73685	0.07101
3897.80819	0.07072
3895.87954	0.07024
3893.95089	0.06981
3892.02224	0.06961
3890.09358	0.06974
3888.16493	0.06980
3886.23628	0.06960
3884.30762	0.06950
3882.37897	0.06912
3880.45032	0.06873
3878.52166	0.06909
3876.59301	0.06949
3874.66436	0.06925
3872.73570	0.06891
3870.80705	0.06887
3868.87840	0.06916
3866.94974	0.06903
3865.02109	0.06845
3863.09244	0.06818
3861.16378	0.06782
3859.23513	0.06732
3857.30648	0.06714
3855.37782	0.06719
3853.44917	0.06765
3851.52052	0.06843
3849.59186	0.06868
3847.66321	0.06816
3845.73456	0.06704
3843.80590	0.06588
3841.87725	0.06542
3839.94860	0.06553
3838.01994	0.06583
3836.09129	0.06622
3834.16264	0.06632
3832.23398	0.06616
3830.30533	0.06601
3828.37668	0.06594
3826.44803	0.06585
3824.51937	0.06545
3822.59072	0.06482
3820.66207	0.06499
3818.73341	0.06546
3816.80476	0.06504
3814.87611	0.06484
3812.94745	0.06491
3811.01880	0.06473
3809.09015	0.06468
3807.16149	0.06486
3805.23284	0.06512
3803.30419	0.06435
3801.37553	0.06320
3799.44688	0.06343
3797.51823	0.06401
3795.58957	0.06379
3793.66092	0.06309
3791.73227	0.06295
3789.80361	0.06357
3787.87496	0.06413
3785.94631	0.06415
3784.01765	0.06376
3782.08900	0.06334
3780.16035	0.06310
3778.23169	0.06291
3776.30304	0.06263
3774.37439	0.06264
3772.44573	0.06299
3770.51708	0.06281
3768.58843	0.06216
3766.65977	0.06169
3764.73112	0.06163
3762.80247	0.06172
3760.87381	0.06167
3758.94516	0.06177
3757.01651	0.06193
3755.08786	0.06186
3753.15920	0.06168
3751.23055	0.06177
3749.30190	0.06190
3747.37324	0.06184
3745.44459	0.06101
3743.51594	0.06038
3741.58728	0.06026
3739.65863	0.05995
3737.72998	0.05989
3735.80132	0.06030
3733.87267	0.06043
3731.94402	0.05956
3730.01536	0.05873
3728.08671	0.05858
3726.15806	0.05870
3724.22940	0.05833
3722.30075	0.05752
3720.37210	0.05724
3718.44344	0.05766
3716.51479	0.05816
3714.58614	0.05808
3712.65748	0.05751
3710.72883	0.05747
3708.80018	0.05797
3706.87152	0.05823
3704.94287	0.05810
3703.01422	0.05773
3701.08556	0.05754
3699.15691	0.05778
3697.22826	0.05801
3695.29960	0.05804
3693.37095	0.05814
3691.44230	0.05822
3689.51365	0.05798
3687.58499	0.05798
3685.65634	0.05839
3683.72769	0.05866
3681.79903	0.05880
3679.87038	0.05874
3677.94173	0.05848
3676.01307	0.05808
3674.08442	0.05810
3672.15577	0.05805
3670.22711	0.05805
3668.29846	0.05865
3666.36981	0.05891
3664.44115	0.05881
3662.51250	0.05902
3660.58385	0.05955
3658.65519	0.06011
3656.72654	0.06063
3654.79789	0.06113
3652.86923	0.06130
3650.94058	0.06142
3649.01193	0.06218
3647.08327	0.06339
3645.15462	0.06449
3643.22597	0.06536
3641.29731	0.06596
3639.36866	0.06613
3637.44001	0.06622
3635.51135	0.06682
3633.58270	0.06774
3631.65405	0.06824
3629.72539	0.06815
3627.79674	0.06849
3625.86809	0.06919
3623.93943	0.06968
3622.01078	0.07028
3620.08213	0.07128
3618.15348	0.07276
3616.22482	0.07407
3614.29617	0.07469
3612.36752	0.07504
3610.43886	0.07540
3608.51021	0.07583
3606.58156	0.07660
3604.65290	0.07752
3602.72425	0.07832
3600.79560	0.07917
3598.86694	0.08021
3596.93829	0.08111
3595.00964	0.08198
3593.08098	0.08308
3591.15233	0.08410
3589.22368	0.08459
3587.29502	0.08484
3585.36637	0.08570
3583.43772	0.08745
3581.50906	0.08922
3579.58041	0.09037
3577.65176	0.09135
3575.72310	0.09229
3573.79445	0.09311
3571.86580	0.09416
3569.93714	0.09526
3568.00849	0.09597
3566.07984	0.09679
3564.15118	0.09807
3562.22253	0.09936
3560.29388	0.10044
3558.36522	0.10154
3556.43657	0.10262
3554.50792	0.10362
3552.57927	0.10473
3550.65061	0.10601
3548.72196	0.10741
3546.79331	0.10883
3544.86465	0.11007
3542.93600	0.11109
3541.00735	0.11187
3539.07869	0.11228
3537.15004	0.11265
3535.22139	0.11352
3533.29273	0.11483
3531.36408	0.11614
3529.43543	0.11718
3527.50677	0.11838
3525.57812	0.12014
3523.64947	0.12159
3521.72081	0.12208
3519.79216	0.12247
3517.86351	0.12365
3515.93485	0.12525
3514.00620	0.12646
3512.07755	0.12698
3510.14889	0.12738
3508.22024	0.12837
3506.29159	0.12964
3504.36293	0.13051
3502.43428	0.13103
3500.50563	0.13156
3498.57697	0.13234
3496.64832	0.13326
3494.71967	0.13441
3492.79101	0.13609
3490.86236	0.13803
3488.93371	0.13931
3487.00506	0.13949
3485.07640	0.13929
3483.14775	0.13964
3481.21910	0.14043
3479.29044	0.14116
3477.36179	0.14196
3475.43314	0.14305
3473.50448	0.14411
3471.57583	0.14466
3469.64718	0.14489
3467.71852	0.14562
3465.78987	0.14694
3463.86122	0.14803
3461.93256	0.14835
3460.00391	0.14851
3458.07526	0.14932
3456.14660	0.15068
3454.21795	0.15193
3452.28930	0.15285
3450.36064	0.15355
3448.43199	0.15403
3446.50334	0.15433
3444.57468	0.15468
3442.64603	0.15532
3440.71738	0.15623
3438.78872	0.15709
3436.86007	0.15783
3434.93142	0.15857
3433.00276	0.15951
3431.07411	0.16046
3429.14546	0.16104
3427.21680	0.16122
3425.28815	0.16150
3423.35950	0.16230
3421.43084	0.16336
3419.50219	0.16415
3417.57354	0.16474
3415.64489	0.16565
3413.71623	0.16683
3411.78758	0.16780
3409.85893	0.16858
3407.93027	0.16932
3406.00162	0.16975
3404.07297	0.16989
3402.14431	0.17022
3400.21566	0.17093
3398.28701	0.17168
3396.35835	0.17250
3394.42970	0.17364
3392.50105	0.17467
3390.57239	0.17513
3388.64374	0.17540
3386.71509	0.17606
3384.78643	0.17699
3382.85778	0.17785
3380.92913	0.17853
3379.00047	0.17918
3377.07182	0.17998
3375.14317	0.18095
3373.21451	0.18186
3371.28586	0.18259
3369.35721	0.18358
3367.42855	0.18520
3365.49990	0.18690
3363.57125	0.18808
3361.64259	0.18913
3359.71394	0.19054
3357.78529	0.19231
3355.85663	0.19424
3353.92798	0.19600
3351.99933	0.19749
3350.07068	0.19899
3348.14202	0.20071
3346.21337	0.20245
3344.28472	0.20387
3342.35606	0.20523
3340.42741	0.20684
3338.49876	0.20839
3336.57010	0.20976
3334.64145	0.21110
3332.71280	0.21243
3330.78414	0.21377
3328.85549	0.21521
3326.92684	0.21656
3324.99818	0.21748
3323.06953	0.21813
3321.14088	0.21873
3319.21222	0.21922
3317.28357	0.21985
3315.35492	0.22085
3313.42626	0.22185
3311.49761	0.22260
3309.56896	0.22339
3307.64030	0.22423
3305.71165	0.22456
3303.78300	0.22441
3301.85434	0.22449
3299.92569	0.22510
3297.99704	0.22587
3296.06838	0.22641
3294.13973	0.22664
3292.21108	0.22664
3290.28242	0.22635
3288.35377	0.22593
3286.42512	0.22561
3284.49646	0.22539
3282.56781	0.22527
3280.63916	0.22529
3278.71051	0.22519
3276.78185	0.22479
3274.85320	0.22416
3272.92455	0.22327
3270.99589	0.22224
3269.06724	0.22137
3267.13859	0.22066
3265.20993	0.21985
3263.28128	0.21895
3261.35263	0.21799
3259.42397	0.21696
3257.49532	0.21597
3255.56667	0.21503
3253.63801	0.21403
3251.70936	0.21298
3249.78071	0.21188
3247.85205	0.21077
3245.92340	0.20999
3243.99475	0.20948
3242.06609	0.20883
3240.13744	0.20811
3238.20879	0.20743
3236.28013	0.20657
3234.35148	0.20552
3232.42283	0.20458
3230.49417	0.20379
3228.56552	0.20318
3226.63687	0.20279
3224.70821	0.20242
3222.77956	0.20187
3220.85091	0.20113
3218.92225	0.20040
3216.99360	0.19985
3215.06495	0.19920
3213.13630	0.19847
3211.20764	0.19791
3209.27899	0.19735
3207.35034	0.19664
3205.42168	0.19592
3203.49303	0.19528
3201.56438	0.19472
3199.63572	0.19404
3197.70707	0.19290
3195.77842	0.19139
3193.84976	0.19007
3191.92111	0.18925
3189.99246	0.18863
3188.06380	0.18786
3186.13515	0.18694
3184.20650	0.18576
3182.27784	0.18438
3180.34919	0.18314
3178.42054	0.18194
3176.49188	0.18044
3174.56323	0.17898
3172.63458	0.17791
3170.70592	0.17675
3168.77727	0.17528
3166.84862	0.17387
3164.91996	0.17254
3162.99131	0.17110
3161.06266	0.16984
3159.13400	0.16893
3157.20535	0.16784
3155.27670	0.16627
3153.34804	0.16465
3151.41939	0.16336
3149.49074	0.16230
3147.56209	0.16133
3145.63343	0.16043
3143.70478	0.15938
3141.77613	0.15815
3139.84747	0.15719
3137.91882	0.15653
3135.99017	0.15578
3134.06151	0.15471
3132.13286	0.15357
3130.20421	0.15290
3128.27555	0.15254
3126.34690	0.15198
3124.41825	0.15121
3122.48959	0.15041
3120.56094	0.14980
3118.63229	0.14973
3116.70363	0.14995
3114.77498	0.14981
3112.84633	0.14945
3110.91767	0.14953
3108.98902	0.14982
3107.06037	0.14974
3105.13171	0.14950
3103.20306	0.14945
3101.27441	0.14946
3099.34575	0.14954
3097.41710	0.14983
3095.48845	0.15023
3093.55979	0.15066
3091.63114	0.15119
3089.70249	0.15174
3087.77383	0.15211
3085.84518	0.15229
3083.91653	0.15251
3081.98787	0.15286
3080.05922	0.15315
3078.13057	0.15336
3076.20192	0.15350
3074.27326	0.15335
3072.34461	0.15294
3070.41596	0.15259
3068.48730	0.15243
3066.55865	0.15219
3064.63000	0.15163
3062.70134	0.15093
3060.77269	0.15030
3058.84404	0.14964
3056.91538	0.14889
3054.98673	0.14802
3053.05808	0.14708
3051.12942	0.14612
3049.20077	0.14494
3047.27212	0.14346
3045.34346	0.14195
3043.41481	0.14079
3041.48616	0.13992
3039.55750	0.13894
3037.62885	0.13778
3035.70020	0.13668
3033.77154	0.13576
3031.84289	0.13488
3029.91424	0.13401
3027.98558	0.13313
3026.05693	0.13214
3024.12828	0.13097
3022.19962	0.12981
3020.27097	0.12883
3018.34232	0.12800
3016.41366	0.12733
3014.48501	0.12689
3012.55636	0.12658
3010.62771	0.12601
3008.69905	0.12522
3006.77040	0.12475
3004.84175	0.12464
3002.91309	0.12453
3000.98444	0.12433
2999.05579	0.12421
2997.12713	0.12436
2995.19848	0.12476
2993.26983	0.12521
2991.34117	0.12569
2989.41252	0.12631
2987.48387	0.12708
2985.55521	0.12798
2983.62656	0.12879
2981.69791	0.12945
2979.76925	0.13012
2977.84060	0.13069
2975.91195	0.13122
2973.98329	0.13205
2972.05464	0.13298
2970.12599	0.13365
2968.19733	0.13416
2966.26868	0.13465
2964.34003	0.13531
2962.41137	0.13629
2960.48272	0.13722
2958.55407	0.13769
2956.62541	0.13795
2954.69676	0.13820
2952.76811	0.13813
2950.83945	0.13768
2948.91080	0.13733
2946.98215	0.13748
2945.05349	0.13783
2943.12484	0.13810
2941.19619	0.13855
2939.26754	0.13933
2937.33888	0.13990
2935.41023	0.13976
2933.48158	0.13938
2931.55292	0.13929
2929.62427	0.13933
2927.69562	0.13933
2925.76696	0.13919
2923.83831	0.13857
2921.90966	0.13736
2919.98100	0.13598
2918.05235	0.13483
2916.12370	0.13365
2914.19504	0.13197
2912.26639	0.13006
2910.33774	0.12839
2908.40908	0.12699
2906.48043	0.12574
2904.55178	0.12454
2902.62312	0.12340
2900.69447	0.12242
2898.76582	0.12163
2896.83716	0.12105
2894.90851	0.12058
2892.97986	0.12000
2891.05120	0.11947
2889.12255	0.11937
2887.19390	0.11968
2885.26524	0.11995
2883.33659	0.11989
2881.40794	0.11956
2879.47928	0.11923
2877.55063	0.11915
2875.62198	0.11922
2873.69333	0.11903
2871.76467	0.11842
2869.83602	0.11767
2867.90737	0.11690
2865.97871	0.11584
2864.05006	0.11439
2862.12141	0.11290
2860.19275	0.11185
2858.26410	0.11124
2856.33545	0.11067
2854.40679	0.11010
2852.47814	0.10961
2850.54949	0.10899
2848.62083	0.10803
2846.69218	0.10678
2844.76353	0.10563
2842.83487	0.10473
2840.90622	0.10391
2838.97757	0.10310
2837.04891	0.10235
2835.12026	0.10164
2833.19161	0.10091
2831.26295	0.10029
2829.33430	0.09982
2827.40565	0.09926
2825.47699	0.09854
2823.54834	0.09782
2821.61969	0.09728
2819.69103	0.09701
2817.76238	0.09687
2815.83373	0.09664
2813.90507	0.09627
2811.97642	0.09582
2810.04777	0.09533
2808.11912	0.09484
2806.19046	0.09434
2804.26181	0.09393
2802.33316	0.09371
2800.40450	0.09358
2798.47585	0.09335
2796.54720	0.09288
2794.61854	0.09217
2792.68989	0.09153
2790.76124	0.09112
2788.83258	0.09080
2786.90393	0.09053
2784.97528	0.09025
2783.04662	0.08981
2781.11797	0.08935
2779.18932	0.08904
2777.26066	0.08880
2775.33201	0.08853
2773.40336	0.08828
2771.47470	0.08803
2769.54605	0.08754
2767.61740	0.08694
2765.68874	0.08660
2763.76009	0.08648
2761.83144	0.08622
2759.90278	0.08584
2757.97413	0.08552
2756.04548	0.08530
2754.11682	0.08513
2752.18817	0.08497
2750.25952	0.08472
2748.33086	0.08419
2746.40221	0.08360
2744.47356	0.08331
2742.54490	0.08318
2740.61625	0.08286
2738.68760	0.08242
2736.75895	0.08213
2734.83029	0.08193
2732.90164	0.08165
2730.97299	0.08126
2729.04433	0.08080
2727.11568	0.08042
2725.18703	0.08023
2723.25837	0.08014
2721.32972	0.08004
2719.40107	0.07984
2717.47241	0.07937
2715.54376	0.07885
2713.61511	0.07849
2711.68645	0.07824
2709.75780	0.07807
2707.82915	0.07796
2705.90049	0.07774
2703.97184	0.07735
2702.04319	0.07691
2700.11453	0.07659
2698.18588	0.07641
2696.25723	0.07627
2694.32857	0.07605
2692.39992	0.07579
2690.47127	0.07567
2688.54261	0.07568
2686.61396	0.07557
2684.68531	0.07531
2682.75665	0.07495
2680.82800	0.07457
2678.89935	0.07434
2676.97069	0.07425
2675.04204	0.07417
2673.11339	0.07412
2671.18474	0.07409
2669.25608	0.07388
2667.32743	0.07348
2665.39878	0.07316
2663.47012	0.07315
2661.54147	0.07313
2659.61282	0.07271
2657.68416	0.07199
2655.75551	0.07138
2653.82686	0.07107
2651.89820	0.07089
2649.96955	0.07053
2648.04090	0.06998
2646.11224	0.06947
2644.18359	0.06902
2642.25494	0.06864
2640.32628	0.06845
2638.39763	0.06822
2636.46898	0.06769
2634.54032	0.06703
2632.61167	0.06659
2630.68302	0.06639
2628.75436	0.06618
2626.82571	0.06581
2624.89706	0.06554
2622.96840	0.06536
2621.03975	0.06495
2619.11110	0.06441
2617.18244	0.06405
2615.25379	0.06386
2613.32514	0.06355
2611.39648	0.06302
2609.46783	0.06242
2607.53918	0.06191
2605.61052	0.06163
2603.68187	0.06151
2601.75322	0.06136
2599.82457	0.06112
2597.89591	0.06081
2595.96726	0.06055
2594.03861	0.06028
2592.10995	0.05992
2590.18130	0.05954
2588.25265	0.05908
2586.32399	0.05855
2584.39534	0.05826
2582.46669	0.05837
2580.53803	0.05844
2578.60938	0.05808
2576.68073	0.05772
2574.75207	0.05766
2572.82342	0.05771
2570.89477	0.05768
2568.96611	0.05741
2567.03746	0.05694
2565.10881	0.05650
2563.18015	0.05621
2561.25150	0.05600
2559.32285	0.05584
2557.39419	0.05584
2555.46554	0.05603
2553.53689	0.05618
2551.60823	0.05606
2549.67958	0.05575
2547.75093	0.05529
2545.82227	0.05473
2543.89362	0.05448
2541.96497	0.05453
2540.03631	0.05449
2538.10766	0.05429
2536.17901	0.05406
2534.25036	0.05384
2532.32170	0.05363
2530.39305	0.05352
2528.46440	0.05351
2526.53574	0.05344
2524.60709	0.05318
2522.67844	0.05284
2520.74978	0.05262
2518.82113	0.05252
2516.89248	0.05243
2514.96382	0.05222
2513.03517	0.05183
2511.10652	0.05145
2509.17786	0.05122
2507.24921	0.05117
2505.32056	0.05124
2503.39190	0.05142
2501.46325	0.05156
2499.53460	0.05142
2497.60594	0.05099
2495.67729	0.05064
2493.74864	0.05068
2491.81998	0.05079
2489.89133	0.05062
2487.96268	0.05044
2486.03402	0.05043
2484.10537	0.05041
2482.17672	0.05033
2480.24806	0.05019
2478.31941	0.04991
2476.39076	0.04963
2474.46210	0.04945
2472.53345	0.04938
2470.60480	0.04944
2468.67615	0.04949
2466.74749	0.04940
2464.81884	0.04936
2462.89019	0.04949
2460.96153	0.04950
2459.03288	0.04911
2457.10423	0.04857
2455.17557	0.04825
2453.24692	0.04802
2451.31827	0.04779
2449.38961	0.04763
2447.46096	0.04739
2445.53231	0.04722
2443.60365	0.04744
2441.67500	0.04774
2439.74635	0.04770
2437.81769	0.04744
2435.88904	0.04731
2433.96039	0.04731
2432.03173	0.04725
2430.10308	0.04706
2428.17443	0.04686
2426.24577	0.04676
2424.31712	0.04684
2422.38847	0.04711
2420.45981	0.04740
2418.53116	0.04768
2416.60251	0.04792
2414.67385	0.04775
2412.74520	0.04725
2410.81655	0.04705
2408.88789	0.04735
2406.95924	0.04759
2405.03059	0.04737
2403.10193	0.04712
2401.17328	0.04731
2399.24463	0.04742
2397.31598	0.04715
2395.38732	0.04695
2393.45867	0.04727
2391.53002	0.04768
2389.60136	0.04765
2387.67271	0.04739
2385.74406	0.04725
2383.81540	0.04727
2381.88675	0.04734
2379.95810	0.04753
2378.02944	0.04779
2376.10079	0.04790
2374.17214	0.04781
2372.24348	0.04771
2370.31483	0.04782
2368.38618	0.04814
2366.45752	0.04837
2364.52887	0.04830
2362.60022	0.04814
2360.67156	0.04812
2358.74291	0.04820
2356.81426	0.04821
2354.88560	0.04810
2352.95695	0.04792
2351.02830	0.04777
2349.09964	0.04774
2347.17099	0.04786
2345.24234	0.04798
2343.31368	0.04795
2341.38503	0.04788
2339.45638	0.04793
2337.52772	0.04795
2335.59907	0.04781
2333.67042	0.04759
2331.74177	0.04729
2329.81311	0.04695
2327.88446	0.04676
2325.95581	0.04657
2324.02715	0.04626
2322.09850	0.04602
2320.16985	0.04585
2318.24119	0.04552
2316.31254	0.04503
2314.38389	0.04460
2312.45523	0.04429
2310.52658	0.04403
2308.59793	0.04386
2306.66927	0.04376
2304.74062	0.04347
2302.81197	0.04288
2300.88331	0.04242
2298.95466	0.04226
2297.02601	0.04198
2295.09735	0.04142
2293.16870	0.04098
2291.24005	0.04074
2289.31139	0.04040
2287.38274	0.03981
2285.45409	0.03909
2283.52543	0.03864
2281.59678	0.03870
2279.66813	0.03879
2277.73947	0.03855
2275.81082	0.03817
2273.88217	0.03758
2271.95351	0.03665
2270.02486	0.03575
2268.09621	0.03527
2266.16755	0.03527
2264.23890	0.03551
2262.31025	0.03585
2260.38160	0.03625
2258.45294	0.03643
2256.52429	0.03608
2254.59564	0.03549
2252.66698	0.03498
2250.73833	0.03453
2248.80968	0.03418
2246.88102	0.03357
2244.95237	0.03299
2243.02372	0.03260
2241.09506	0.03231
2239.16641	0.03221
2237.23776	0.03234
2235.30910	0.03229
2233.38045	0.03200
2231.45180	0.03190
2229.52314	0.03193
2227.59449	0.03143
2225.66584	0.03077
2223.73718	0.03077
2221.80853	0.03098
2219.87988	0.03068
2217.95122	0.03002
2216.02257	0.02943
2214.09392	0.02891
2212.16526	0.02835
2210.23661	0.02803
2208.30796	0.02837
2206.37930	0.02877
2204.45065	0.02828
2202.52200	0.02745
2200.59334	0.02705
2198.66469	0.02692
2196.73604	0.02694
2194.80739	0.02636
2192.87873	0.02499
2190.95008	0.02435
2189.02143	0.02483
2187.09277	0.02528
2185.16412	0.02487
2183.23547	0.02417
2181.30681	0.02439
2179.37816	0.02504
2177.44951	0.02477
2175.52085	0.02325
2173.59220	0.02135
2171.66355	0.02042
2169.73489	0.02029
2167.80624	0.01973
2165.87759	0.01860
2163.94893	0.01747
2162.02028	0.01665
2160.09163	0.01633
2158.16297	0.01704
2156.23432	0.01902
2154.30567	0.02062
2152.37701	0.02103
2150.44836	0.02201
2148.51971	0.02353
2146.59105	0.02398
2144.66240	0.02417
2142.73375	0.02509
2140.80509	0.02596
2138.87644	0.02639
2136.94779	0.02676
2135.01913	0.02706
2133.09048	0.02742
2131.16183	0.02800
2129.23318	0.02846
2127.30452	0.02888
2125.37587	0.02964
2123.44722	0.03025
2121.51856	0.03016
2119.58991	0.02990
2117.66126	0.03013
2115.73260	0.03023
2113.80395	0.02975
2111.87530	0.02932
2109.94664	0.02918
2108.01799	0.02918
2106.08934	0.02950
2104.16068	0.02995
2102.23203	0.02979
2100.30338	0.02885
2098.37472	0.02787
2096.44607	0.02772
2094.51742	0.02817
2092.58876	0.02846
2090.66011	0.02853
2088.73146	0.02852
2086.80280	0.02826
2084.87415	0.02795
2082.94550	0.02796
2081.01684	0.02798
2079.08819	0.02739
2077.15954	0.02632
2075.23088	0.02547
2073.30223	0.02514
2071.37358	0.02515
2069.44492	0.02519
2067.51627	0.02510
2065.58762	0.02484
2063.65896	0.02437
2061.73031	0.02396
2059.80166	0.02395
2057.87301	0.02419
2055.94435	0.02421
2054.01570	0.02392
2052.08705	0.02363
2050.15839	0.02320
2048.22974	0.02219
2046.30109	0.02086
2044.37243	0.01995
2042.44378	0.01937
2040.51513	0.01846
2038.58647	0.01729
2036.65782	0.01669
2034.72917	0.01703
2032.80051	0.01765
2030.87186	0.01763
2028.94321	0.01683
2027.01455	0.01590
2025.08590	0.01533
2023.15725	0.01498
2021.22859	0.01507
2019.29994	0.01620
2017.37129	0.01812
2015.44263	0.01989
2013.51398	0.02051
2011.58533	0.01989
2009.65667	0.01899
2007.72802	0.01846
2005.79937	0.01803
2003.87071	0.01755
2001.94206	0.01766
2000.01341	0.01845
1998.08475	0.01906
1996.15610	0.01929
1994.22745	0.01975
1992.29880	0.02047
1990.37014	0.02072
1988.44149	0.02021
1986.51284	0.01959
1984.58418	0.01965
1982.65553	0.02030
1980.72688	0.02027
1978.79822	0.01888
1976.86957	0.01750
1974.94092	0.01700
1973.01226	0.01651
1971.08361	0.01623
1969.15496	0.01712
1967.22630	0.01855
1965.29765	0.01951
1963.36900	0.02026
1961.44034	0.02102
1959.51169	0.02126
1957.58304	0.02109
1955.65438	0.02102
1953.72573	0.02068
1951.79708	0.02018
1949.86842	0.02036
1947.93977	0.02123
1946.01112	0.02211
1944.08246	0.02252
1942.15381	0.02249
1940.22516	0.02258
1938.29650	0.02290
1936.36785	0.02305
1934.43920	0.02312
1932.51054	0.02339
1930.58189	0.02358
1928.65324	0.02354
1926.72458	0.02340
1924.79593	0.02323
1922.86728	0.02345
1920.93863	0.02415
1919.00997	0.02452
1917.08132	0.02431
1915.15267	0.02388
1913.22401	0.02362
1911.29536	0.02369
1909.36671	0.02388
1907.43805	0.02410
1905.50940	0.02421
1903.58075	0.02410
1901.65209	0.02401
1899.72344	0.02410
1897.79479	0.02427
1895.86613	0.02436
1893.93748	0.02429
1892.00883	0.02416
1890.08017	0.02417
1888.15152	0.02420
1886.22287	0.02399
1884.29421	0.02372
1882.36556	0.02361
1880.43691	0.02363
1878.50825	0.02365
1876.57960	0.02359
1874.65095	0.02342
1872.72229	0.02332
1870.79364	0.02339
1868.86499	0.02358
1866.93633	0.02380
1865.00768	0.02385
1863.07903	0.02373
1861.15037	0.02367
1859.22172	0.02375
1857.29307	0.02392
1855.36442	0.02413
1853.43576	0.02408
1851.50711	0.02368
1849.57846	0.02329
1847.64980	0.02326
1845.72115	0.02345
1843.79250	0.02373
1841.86384	0.02399
1839.93519	0.02388
1838.00654	0.02362
1836.07788	0.02348
1834.14923	0.02341
1832.22058	0.02338
1830.29192	0.02344
1828.36327	0.02362
1826.43462	0.02364
1824.50596	0.02351
1822.57731	0.02336
1820.64866	0.02326
1818.72000	0.02323
1816.79135	0.02335
1814.86270	0.02353
1812.93404	0.02351
1811.00539	0.02332
1809.07674	0.02320
1807.14808	0.02315
1805.21943	0.02313
1803.29078	0.02310
1801.36212	0.02303
1799.43347	0.02297
1797.50482	0.02297
1795.57616	0.02311
1793.64751	0.02316
1791.71886	0.02309
1789.79021	0.02306
1787.86155	0.02302
1785.93290	0.02298
1784.00425	0.02299
1782.07559	0.02292
1780.14694	0.02275
1778.21829	0.02265
1776.28963	0.02266
1774.36098	0.02269
1772.43233	0.02282
1770.50367	0.02310
1768.57502	0.02314
1766.64637	0.02302
1764.71771	0.02297
1762.78906	0.02297
1760.86041	0.02304
1758.93175	0.02313
1757.00310	0.02325
1755.07445	0.02353
1753.14579	0.02373
1751.21714	0.02388
1749.28849	0.02424
1747.35983	0.02469
1745.43118	0.02511
1743.50253	0.02560
1741.57387	0.02616
1739.64522	0.02670
1737.71657	0.02728
1735.78791	0.02779
1733.85926	0.02836
1731.93061	0.02909
1730.00195	0.02958
1728.07330	0.03008
1726.14465	0.03077
1724.21599	0.03151
1722.28734	0.03230
1720.35869	0.03312
1718.43004	0.03395
1716.50138	0.03512
1714.57273	0.03662
1712.64408	0.03823
1710.71542	0.04015
1708.78677	0.04257
1706.85812	0.04559
1704.92946	0.04929
1703.00081	0.05358
1701.07216	0.05827
1699.14350	0.06362
1697.21485	0.06911
1695.28620	0.07456
1693.35754	0.08021
1691.42889	0.08561
1689.50024	0.09106
1687.57158	0.09678
1685.64293	0.10260
1683.71428	0.10893
1681.78562	0.11582
1679.85697	0.12303
1677.92832	0.13070
1675.99966	0.13863
1674.07101	0.14684
1672.14236	0.15534
1670.21370	0.16409
1668.28505	0.17311
1666.35640	0.18198
1664.42774	0.19051
1662.49909	0.19890
1660.57044	0.20699
1658.64178	0.21437
1656.71313	0.22093
1654.78448	0.22664
1652.85583	0.23195
1650.92717	0.23699
1648.99852	0.24109
1647.06987	0.24465
1645.14121	0.24829
1643.21256	0.25176
1641.28391	0.25486
1639.35525	0.25774
1637.42660	0.26033
1635.49795	0.26262
1633.56929	0.26454
1631.64064	0.26547
1629.71199	0.26509
1627.78333	0.26326
1625.85468	0.25969
1623.92603	0.25435
1621.99737	0.24774
1620.06872	0.24025
1618.14007	0.23192
1616.21141	0.22317
1614.28276	0.21446
1612.35411	0.20564
1610.42545	0.19688
1608.49680	0.18840
1606.56815	0.18034
1604.63949	0.17280
1602.71084	0.16589
1600.78219	0.15967
1598.85353	0.15415
1596.92488	0.14932
1594.99623	0.14523
1593.06757	0.14184
1591.13892	0.13914
1589.21027	0.13714
1587.28161	0.13582
1585.35296	0.13516
1583.42431	0.13517
1581.49566	0.13588
1579.56700	0.13731
1577.63835	0.13931
1575.70970	0.14207
1573.78104	0.14563
1571.85239	0.14953
1569.92374	0.15394
1567.99508	0.15900
1566.06643	0.16438
1564.13778	0.16995
1562.20912	0.17559
1560.28047	0.18101
1558.35182	0.18647
1556.42316	0.19171
1554.49451	0.19616
1552.56586	0.20000
1550.63720	0.20323
1548.70855	0.20590
1546.77990	0.20814
1544.85124	0.20993
1542.92259	0.21117
1540.99394	0.21174
1539.06528	0.21197
1537.13663	0.21194
1535.20798	0.21126
1533.27932	0.21017
1531.35067	0.20895
1529.42202	0.20736
1527.49336	0.20547
1525.56471	0.20346
1523.63606	0.20122
1521.70740	0.19865
1519.77875	0.19607
1517.85010	0.19328
1515.92145	0.18998
1513.99279	0.18608
1512.06414	0.18154
1510.13549	0.17654
1508.20683	0.17098
1506.27818	0.16508
1504.34953	0.15935
1502.42087	0.15356
1500.49222	0.14765
1498.56357	0.14181
1496.63491	0.13602
1494.70626	0.13040
1492.77761	0.12508
1490.84895	0.12012
1488.92030	0.11578
1486.99165	0.11222
1485.06299	0.10953
1483.13434	0.10770
1481.20569	0.10670
1479.27703	0.10654
1477.34838	0.10718
1475.41973	0.10860
1473.49107	0.11071
1471.56242	0.11340
1469.63377	0.11640
1467.70511	0.11944
1465.77646	0.12253
1463.84781	0.12583
1461.91915	0.12933
1459.99050	0.13287
1458.06185	0.13635
1456.13319	0.13971
1454.20454	0.14251
1452.27589	0.14421
1450.34724	0.14488
1448.41858	0.14475
1446.48993	0.14401
1444.56128	0.14273
1442.63262	0.14102
1440.70397	0.13910
1438.77532	0.13686
1436.84666	0.13415
1434.91801	0.13110
1432.98936	0.12794
1431.06070	0.12508
1429.13205	0.12291
1427.20340	0.12141
1425.27474	0.12040
1423.34609	0.11983
1421.41744	0.11955
1419.48878	0.11947
1417.56013	0.11963
1415.63148	0.11995
1413.70282	0.12043
1411.77417	0.12114
1409.84552	0.12207
1407.91686	0.12317
1405.98821	0.12425
1404.05956	0.12508
1402.13090	0.12549
1400.20225	0.12547
1398.27360	0.12520
1396.34494	0.12471
1394.41629	0.12402
1392.48764	0.12337
1390.55898	0.12274
1388.63033	0.12197
1386.70168	0.12115
1384.77302	0.12038
1382.84437	0.11953
1380.91572	0.11856
1378.98707	0.11748
1377.05841	0.11625
1375.12976	0.11477
1373.20111	0.11304
1371.27245	0.11109
1369.34380	0.10890
1367.41515	0.10657
1365.48649	0.10425
1363.55784	0.10214
1361.62919	0.10045
1359.70053	0.09923
1357.77188	0.09848
1355.84323	0.09827
1353.91457	0.09865
1351.98592	0.09953
1350.05727	0.10087
1348.12861	0.10255
1346.19996	0.10437
1344.27131	0.10618
1342.34265	0.10787
1340.41400	0.10935
1338.48535	0.11045
1336.55669	0.11096
1334.62804	0.11074
1332.69939	0.10983
1330.77073	0.10835
1328.84208	0.10655
1326.91343	0.10479
1324.98477	0.10334
1323.05612	0.10230
1321.12747	0.10165
1319.19881	0.10126
1317.27016	0.10094
1315.34151	0.10050
1313.41286	0.09980
1311.48420	0.09886
1309.55555	0.09783
1307.62690	0.09692
1305.69824	0.09623
1303.76959	0.09567
1301.84094	0.09507
1299.91228	0.09448
1297.98363	0.09408
1296.05498	0.09395
1294.12632	0.09419
1292.19767	0.09488
1290.26902	0.09594
1288.34036	0.09726
1286.41171	0.09867
1284.48306	0.09997
1282.55440	0.10099
1280.62575	0.10166
1278.69710	0.10201
1276.76844	0.10213
1274.83979	0.10214
1272.91114	0.10220
1270.98248	0.10244
1269.05383	0.10289
1267.12518	0.10352
1265.19652	0.10429
1263.26787	0.10523
1261.33922	0.10639
1259.41056	0.10774
1257.48191	0.10926
1255.55326	0.11102
1253.62460	0.11299
1251.69595	0.11503
1249.76730	0.11711
1247.83864	0.11929
1245.90999	0.12153
1243.98134	0.12371
1242.05269	0.12575
1240.12403	0.12752
1238.19538	0.12880
1236.26673	0.12948
1234.33807	0.12951
1232.40942	0.12881
1230.48077	0.12739
1228.55211	0.12541
1226.62346	0.12292
1224.69481	0.11995
1222.76615	0.11673
1220.83750	0.11355
1218.90885	0.11070
1216.98019	0.10846
1215.05154	0.10686
1213.12289	0.10585
1211.19423	0.10550
1209.26558	0.10584
1207.33693	0.10664
1205.40827	0.10738
1203.47962	0.10762
1201.55097	0.10719
1199.62231	0.10614
1197.69366	0.10445
1195.76501	0.10226
1193.83635	0.09989
1191.90770	0.09755
1189.97905	0.09526
1188.05039	0.09313
1186.12174	0.09137
1184.19309	0.08996
1182.26443	0.08880
1180.33578	0.08788
1178.40713	0.08718
1176.47848	0.08662
1174.54982	0.08626
1172.62117	0.08610
1170.69252	0.08603
1168.76386	0.08595
1166.83521	0.08592
1164.90656	0.08600
1162.97790	0.08612
1161.04925	0.08600
1159.12060	0.08533
1157.19194	0.08414
1155.26329	0.08272
1153.33464	0.08118
1151.40598	0.07951
1149.47733	0.07781
1147.54868	0.07621
1145.62002	0.07490
1143.69137	0.07390
1141.76272	0.07305
1139.83406	0.07217
1137.90541	0.07131
1135.97676	0.07071
1134.04810	0.07043
1132.11945	0.07024
1130.19080	0.07004
1128.26214	0.06989
1126.33349	0.06981
1124.40484	0.06973
1122.47618	0.06964
1120.54753	0.06958
1118.61888	0.06958
1116.69022	0.06971
1114.76157	0.06997
1112.83292	0.07028
1110.90427	0.07075
1108.97561	0.07145
1107.04696	0.07219
1105.11831	0.07294
1103.18965	0.07380
1101.26100	0.07469
1099.33235	0.07551
1097.40369	0.07634
1095.47504	0.07733
1093.54639	0.07859
1091.61773	0.08024
1089.68908	0.08230
1087.76043	0.08453
1085.83177	0.08673
1083.90312	0.08870
1081.97447	0.09022
1080.04581	0.09107
1078.11716	0.09117
1076.18851	0.09060
1074.25985	0.08966
1072.33120	0.08870
1070.40255	0.08799
1068.47389	0.08763
1066.54524	0.08755
1064.61659	0.08761
1062.68793	0.08767
1060.75928	0.08751
1058.83063	0.08707
1056.90197	0.08646
1054.97332	0.08574
1053.04467	0.08499
1051.11601	0.08428
1049.18736	0.08358
1047.25871	0.08294
1045.33005	0.08249
1043.40140	0.08226
1041.47275	0.08229
1039.54410	0.08263
1037.61544	0.08331
1035.68679	0.08425
1033.75814	0.08518
1031.82948	0.08567
1029.90083	0.08539
1027.97218	0.08440
1026.04352	0.08302
1024.11487	0.08152
1022.18622	0.08000
1020.25756	0.07857
1018.32891	0.07736
1016.40026	0.07643
1014.47160	0.07563
1012.54295	0.07469
1010.61430	0.07358
1008.68564	0.07243
1006.75699	0.07131
1004.82834	0.07018
1002.89968	0.06913
1000.97103	0.06826
999.04238	0.06743
997.11372	0.06654
995.18507	0.06566
993.25642	0.06482
991.32776	0.06400
989.39911	0.06325
987.47046	0.06262
985.54180	0.06214
983.61315	0.06184
981.68450	0.06169
979.75584	0.06167
977.82719	0.06171
975.89854	0.06169
973.96989	0.06153
972.04123	0.06114
970.11258	0.06050
968.18393	0.05981
966.25527	0.05919
964.32662	0.05854
962.39797	0.05785
960.46931	0.05725
958.54066	0.05682
956.61201	0.05649
954.68335	0.05614
952.75470	0.05579
950.82605	0.05550
948.89739	0.05530
946.96874	0.05525
945.04009	0.05533
943.11143	0.05541
941.18278	0.05546
939.25413	0.05543
937.32547	0.05529
935.39682	0.05512
933.46817	0.05496
931.53951	0.05472
929.61086	0.05449
927.68221	0.05433
925.75355	0.05420
923.82490	0.05407
921.89625	0.05393
919.96759	0.05367
918.03894	0.05317
916.11029	0.05267
914.18163	0.05234
912.25298	0.05197
910.32433	0.05144
908.39567	0.05100
906.46702	0.05084
904.53837	0.05073
902.60972	0.05049
900.68106	0.05023
898.75241	0.05014
896.82376	0.05006
894.89510	0.04974
892.96645	0.04935
891.03780	0.04909
889.10914	0.04893
887.18049	0.04888
885.25184	0.04892
883.32318	0.04905
881.39453	0.04941
879.46588	0.04987
877.53722	0.05011
875.60857	0.05006
873.67992	0.04980
871.75126	0.04947
869.82261	0.04927
867.89396	0.04919
865.96530	0.04903
864.03665	0.04888
862.10800	0.04878
860.17934	0.04872
858.25069	0.04884
856.32204	0.04922
854.39338	0.04956
852.46473	0.04966
850.53608	0.04958
848.60742	0.04942
846.67877	0.04931
844.75012	0.04935
842.82146	0.04937
840.89281	0.04923
838.96416	0.04905
837.03551	0.04896
835.10685	0.04890
833.17820	0.04888
831.24955	0.04906
829.32089	0.04937
827.39224	0.04961
825.46359	0.04981
823.53493	0.05009
821.60628	0.05055
819.67763	0.05116
817.74897	0.05168
815.82032	0.05209
813.89167	0.05240
811.96301	0.05252
810.03436	0.05261
808.10571	0.05294
806.17705	0.05337
804.24840	0.05373
802.31975	0.05404
800.39109	0.05427
798.46244	0.05446
796.53379	0.05482
794.60513	0.05538
792.67648	0.05599
790.74783	0.05649
788.81917	0.05682
786.89052	0.05706
784.96187	0.05730
783.03321	0.05765
781.10456	0.05814
779.17591	0.05853
777.24725	0.05881
775.31860	0.05914
773.38995	0.05961
771.46130	0.06019
769.53264	0.06073
767.60399	0.06122
765.67534	0.06175
763.74668	0.06225
761.81803	0.06263
759.88938	0.06297
757.96072	0.06334
756.03207	0.06386
754.10342	0.06455
752.17476	0.06519
750.24611	0.06567
748.31746	0.06605
746.38880	0.06652
744.46015	0.06707
742.53150	0.06751
740.60284	0.06785
738.67419	0.06816
736.74554	0.06850
734.81688	0.06905
732.88823	0.06984
730.95958	0.07064
729.03092	0.07128
727.10227	0.07179
725.17362	0.07226
723.24496	0.07266
721.31631	0.07330
719.38766	0.07396
717.45900	0.07449
715.53035	0.07487
713.60170	0.07517
711.67304	0.07557
709.74439	0.07614
707.81574	0.07683
705.88708	0.07748
703.95843	0.07803
702.02978	0.07855
700.10113	0.07897
698.17247	0.07926
696.24382	0.07945
694.31517	0.07965
692.38651	0.07988
690.45786	0.08014
688.52921	0.08048
686.60055	0.08089
684.67190	0.08125
682.74325	0.08158
680.81459	0.08204
678.88594	0.08261
676.95729	0.08308
675.02863	0.08341
673.09998	0.08370
671.17133	0.08403
669.24267	0.08441
667.31402	0.08477
665.38537	0.08510
663.45671	0.08543
661.52806	0.08576
659.59941	0.08603
657.67075	0.08623
655.74210	0.08639
653.81345	0.08653
651.88479	0.08671
649.95614	0.08689
648.02749	0.08707
646.09883	0.08727
644.17018	0.08745
642.24153	0.08749
640.31287	0.08741
638.38422	0.08744
636.45557	0.08770
634.52692	0.08803
632.59826	0.08820
630.66961	0.08818
628.74096	0.08817
626.81230	0.08794
624.88365	0.08808
622.95500	0.08855
621.02634	0.08844
619.09769	0.08893
617.16904	0.09239
615.24038	0.09613
613.31173	0.09509
611.38308	0.09004
609.45442	0.08713
607.52577	0.08825
605.59712	0.09012
603.66846	0.09158
601.73981	0.09261
599.81116	0.09280
597.88250	0.09250
595.95385	0.09186
594.02520	0.09105
592.09654	0.09070
590.16789	0.09088
588.23924	0.09111
586.31058	0.09134
584.38193	0.09160
582.45328	0.09177
580.52462	0.09185
578.59597	0.09189
576.66732	0.09191
574.73866	0.09199
572.81001	0.09205
570.88136	0.09206
568.95270	0.09243
567.02405	0.09342
565.09540	0.09449
563.16675	0.09509
561.23809	0.09531
559.30944	0.09544
557.38079	0.09555
555.45213	0.09562
553.52348	0.09573
551.59483	0.09579
549.66617	0.09546
547.73752	0.09472
545.80887	0.09407
543.88021	0.09363
541.95156	0.09317
540.02291	0.09288
538.09425	0.09293
536.16560	0.09309
534.23695	0.09334
532.30829	0.09368
530.37964	0.09373
528.45099	0.09337
526.52233	0.09295
524.59368	0.09253
522.66503	0.09196
520.73637	0.09141
518.80772	0.09095
516.87907	0.09044
514.95041	0.08987
513.02176	0.08928
511.09311	0.08876
509.16445	0.08842
507.23580	0.08815
505.30715	0.08764
503.37849	0.08684
501.44984	0.08611
499.52119	0.08567
497.59254	0.08530
495.66388	0.08485
493.73523	0.08435
491.80658	0.08378
489.87792	0.08311
487.94927	0.08257
486.02062	0.08224
484.09196	0.08181
482.16331	0.08108
480.23466	0.08035
478.30600	0.07988
476.37735	0.07952
474.44870	0.07903
472.52004	0.07836
470.59139	0.07763
468.66274	0.07701
466.73408	0.07657
464.80543	0.07621
462.87678	0.07576
460.94812	0.07517
459.01947	0.07447
457.09082	0.07375
455.16216	0.07311
453.23351	0.07250
451.30486	0.07184
449.37620	0.07119
447.44755	0.07065
445.51890	0.07013
443.59024	0.06954
441.66159	0.06890
439.73294	0.06842
437.80428	0.06814
435.87563	0.06783
433.94698	0.06737
432.01833	0.06683
430.08967	0.06630
428.16102	0.06586
426.23237	0.06544
424.30371	0.06498
422.37506	0.06449
420.44641	0.06391
418.51775	0.06326
416.58910	0.06273
414.66045	0.06235
412.73179	0.06201
410.80314	0.06165
408.87449	0.06132
406.94583	0.06105
405.01718	0.06073
403.08853	0.06034
401.15987	0.05990
399.23122	0.05941
