3996.16951	0.03756
3994.24086	0.03728
3992.31220	0.03694
3990.38355	0.03684
3988.45490	0.03715
3986.52624	0.03729
3984.59759	0.03680
3982.66894	0.03642
3980.74028	0.03685
3978.81163	0.03744
3976.88298	0.03754
3974.95432	0.03735
3973.02567	0.03700
3971.09702	0.03634
3969.16836	0.03581
3967.23971	0.03600
3965.31106	0.03669
3963.38240	0.03715
3961.45375	0.03719
3959.52510	0.03718
3957.59645	0.03718
3955.66779	0.03703
3953.73914	0.03687
3951.81049	0.03692
3949.88183	0.03687
3947.95318	0.03647
3946.02453	0.03615
3944.09587	0.03616
3942.16722	0.03622
3940.23857	0.03609
3938.30991	0.03572
3936.38126	0.03545
3934.45261	0.03559
3932.52395	0.03578
3930.59530	0.03575
3928.66665	0.03562
3926.73799	0.03537
3924.80934	0.03528
3922.88069	0.03568
3920.95203	0.03605
3919.02338	0.03587
3917.09473	0.03555
3915.16607	0.03546
3913.23742	0.03521
3911.30877	0.03473
3909.38011	0.03463
3907.45146	0.03499
3905.52281	0.03521
3903.59415	0.03519
3901.66550	0.03521
3899.73685	0.03524
3897.80819	0.03511
3895.87954	0.03483
3893.95089	0.03463
3892.02224	0.03464
3890.09358	0.03469
3888.16493	0.03482
3886.23628	0.03524
3884.30762	0.03554
3882.37897	0.03507
3880.45032	0.03425
3878.52166	0.03405
3876.59301	0.03447
3874.66436	0.03479
3872.73570	0.03496
3870.80705	0.03532
3868.87840	0.03573
3866.94974	0.03584
3865.02109	0.03547
3863.09244	0.03485
3861.16378	0.03436
3859.23513	0.03418
3857.30648	0.03441
3855.37782	0.03477
3853.44917	0.03475
3851.52052	0.03462
3849.59186	0.03494
3847.66321	0.03521
3845.73456	0.03440
3843.80590	0.03301
3841.87725	0.03253
3839.94860	0.03303
3838.01994	0.03354
3836.09129	0.03355
3834.16264	0.03330
3832.23398	0.03315
3830.30533	0.03307
3828.37668	0.03307
3826.44803	0.03317
3824.51937	0.03318
3822.59072	0.03319
3820.66207	0.03338
3818.73341	0.03357
3816.80476	0.03365
3814.87611	0.03352
3812.94745	0.03310
3811.01880	0.03286
3809.09015	0.03303
3807.16149	0.03322
3805.23284	0.03311
3803.30419	0.03258
3801.37553	0.03204
3799.44688	0.03210
3797.51823	0.03248
3795.58957	0.03230
3793.66092	0.03166
3791.73227	0.03162
3789.80361	0.03214
3787.87496	0.03235
3785.94631	0.03224
3784.01765	0.03208
3782.08900	0.03201
3780.16035	0.03212
3778.23169	0.03211
3776.30304	0.03170
3774.37439	0.03155
3772.44573	0.03200
3770.51708	0.03238
3768.58843	0.03258
3766.65977	0.03291
3764.73112	0.03288
3762.80247	0.03218
3760.87381	0.03147
3758.94516	0.03143
3757.01651	0.03197
3755.08786	0.03240
3753.15920	0.03269
3751.23055	0.03305
3749.30190	0.03290
3747.37324	0.03226
3745.44459	0.03174
3743.51594	0.03134
3741.58728	0.03090
3739.65863	0.03064
3737.72998	0.03078
3735.80132	0.03113
3733.87267	0.03098
3731.94402	0.03002
3730.01536	0.02911
3728.08671	0.02930
3726.15806	0.03057
3724.22940	0.03164
3722.30075	0.03160
3720.37210	0.03108
3718.44344	0.03092
3716.51479	0.03082
3714.58614	0.03019
3712.65748	0.02943
3710.72883	0.02926
3708.80018	0.02949
3706.87152	0.02962
3704.94287	0.02962
3703.01422	0.02966
3701.08556	0.02992
3699.15691	0.03026
3697.22826	0.03040
3695.29960	0.03035
3693.37095	0.03042
3691.44230	0.03068
3689.51365	0.03070
3687.58499	0.03045
3685.65634	0.03024
3683.72769	0.02989
3681.79903	0.02946
3679.87038	0.02956
3677.94173	0.03007
3676.01307	0.03020
3674.08442	0.02972
3672.15577	0.02932
3670.22711	0.02956
3668.29846	0.02999
3666.36981	0.02977
3664.44115	0.02920
3662.51250	0.02915
3660.58385	0.02963
3658.65519	0.03010
3656.72654	0.03030
3654.79789	0.03004
3652.86923	0.02956
3650.94058	0.02959
3649.01193	0.03019
3647.08327	0.03064
3645.15462	0.03081
3643.22597	0.03110
3641.29731	0.03158
3639.36866	0.03209
3637.44001	0.03253
3635.51135	0.03267
3633.58270	0.03235
3631.65405	0.03205
3629.72539	0.03213
3627.79674	0.03212
3625.86809	0.03168
3623.93943	0.03138
3622.01078	0.03198
3620.08213	0.03317
3618.15348	0.03396
3616.22482	0.03398
3614.29617	0.03377
3612.36752	0.03387
3610.43886	0.03415
3608.51021	0.03430
3606.58156	0.03433
3604.65290	0.03454
3602.72425	0.03497
3600.79560	0.03530
3598.86694	0.03537
3596.93829	0.03535
3595.00964	0.03536
3593.08098	0.03558
3591.15233	0.03595
3589.22368	0.03596
3587.29502	0.03560
3585.36637	0.03554
3583.43772	0.03599
3581.50906	0.03652
3579.58041	0.03694
3577.65176	0.03741
3575.72310	0.03770
3573.79445	0.03756
3571.86580	0.03747
3569.93714	0.03793
3568.00849	0.03856
3566.07984	0.03892
3564.15118	0.03915
3562.22253	0.03916
3560.29388	0.03906
3558.36522	0.03948
3556.43657	0.04011
3554.50792	0.04040
3552.57927	0.04060
3550.65061	0.04081
3548.72196	0.04083
3546.79331	0.04099
3544.86465	0.04136
3542.93600	0.04149
3541.00735	0.04124
3539.07869	0.04110
3537.15004	0.04142
3535.22139	0.04193
3533.29273	0.04233
3531.36408	0.04251
3529.43543	0.04256
3527.50677	0.04271
3525.57812	0.04306
3523.64947	0.04350
3521.72081	0.04378
3519.79216	0.04386
3517.86351	0.04418
3515.93485	0.04482
3514.00620	0.04505
3512.07755	0.04473
3510.14889	0.04471
3508.22024	0.04529
3506.29159	0.04587
3504.36293	0.04599
3502.43428	0.04572
3500.50563	0.04554
3498.57697	0.04589
3496.64832	0.04631
3494.71967	0.04646
3492.79101	0.04677
3490.86236	0.04733
3488.93371	0.04770
3487.00506	0.04769
3485.07640	0.04757
3483.14775	0.04756
3481.21910	0.04747
3479.29044	0.04745
3477.36179	0.04780
3475.43314	0.04833
3473.50448	0.04863
3471.57583	0.04857
3469.64718	0.04851
3467.71852	0.04888
3465.78987	0.04952
3463.86122	0.04992
3461.93256	0.04993
3460.00391	0.04999
3458.07526	0.05032
3456.14660	0.05043
3454.21795	0.05008
3452.28930	0.04986
3450.36064	0.05014
3448.43199	0.05057
3446.50334	0.05073
3444.57468	0.05060
3442.64603	0.05053
3440.71738	0.05045
3438.78872	0.05033
3436.86007	0.05065
3434.93142	0.05131
3433.00276	0.05176
3431.07411	0.05192
3429.14546	0.05200
3427.21680	0.05196
3425.28815	0.05183
3423.35950	0.05187
3421.43084	0.05221
3419.50219	0.05254
3417.57354	0.05261
3415.64489	0.05291
3413.71623	0.05353
3411.78758	0.05384
3409.85893	0.05378
3407.93027	0.05371
3406.00162	0.05360
3404.07297	0.05345
3402.14431	0.05350
3400.21566	0.05378
3398.28701	0.05399
3396.35835	0.05428
3394.42970	0.05483
3392.50105	0.05531
3390.57239	0.05530
3388.64374	0.05497
3386.71509	0.05454
3384.78643	0.05403
3382.85778	0.05371
3380.92913	0.05375
3379.00047	0.05401
3377.07182	0.05424
3375.14317	0.05430
3373.21451	0.05443
3371.28586	0.05473
3369.35721	0.05502
3367.42855	0.05530
3365.49990	0.05570
3363.57125	0.05589
3361.64259	0.05562
3359.71394	0.05511
3357.78529	0.05475
3355.85663	0.05496
3353.92798	0.05565
3351.99933	0.05632
3350.07068	0.05652
3348.14202	0.05628
3346.21337	0.05603
3344.28472	0.05598
3342.35606	0.05621
3340.42741	0.05670
3338.49876	0.05706
3336.57010	0.05710
3334.64145	0.05708
3332.71280	0.05720
3330.78414	0.05733
3328.85549	0.05740
3326.92684	0.05735
3324.99818	0.05720
3323.06953	0.05730
3321.14088	0.05769
3319.21222	0.05784
3317.28357	0.05766
3315.35492	0.05764
3313.42626	0.05781
3311.49761	0.05788
3309.56896	0.05785
3307.64030	0.05772
3305.71165	0.05747
3303.78300	0.05732
3301.85434	0.05758
3299.92569	0.05807
3297.99704	0.05824
3296.06838	0.05779
3294.13973	0.05712
3292.21108	0.05685
3290.28242	0.05715
3288.35377	0.05761
3286.42512	0.05783
3284.49646	0.05791
3282.56781	0.05809
3280.63916	0.05829
3278.71051	0.05823
3276.78185	0.05791
3274.85320	0.05759
3272.92455	0.05740
3270.99589	0.05723
3269.06724	0.05704
3267.13859	0.05699
3265.20993	0.05731
3263.28128	0.05772
3261.35263	0.05779
3259.42397	0.05757
3257.49532	0.05725
3255.56667	0.05673
3253.63801	0.05615
3251.70936	0.05589
3249.78071	0.05591
3247.85205	0.05590
3245.92340	0.05591
3243.99475	0.05604
3242.06609	0.05622
3240.13744	0.05648
3238.20879	0.05675
3236.28013	0.05667
3234.35148	0.05619
3232.42283	0.05572
3230.49417	0.05553
3228.56552	0.05557
3226.63687	0.05561
3224.70821	0.05550
3222.77956	0.05546
3220.85091	0.05557
3218.92225	0.05552
3216.99360	0.05526
3215.06495	0.05507
3213.13630	0.05503
3211.20764	0.05503
3209.27899	0.05500
3207.35034	0.05504
3205.42168	0.05519
3203.49303	0.05536
3201.56438	0.05553
3199.63572	0.05558
3197.70707	0.05530
3195.77842	0.05471
3193.84976	0.05408
3191.92111	0.05386
3189.99246	0.05417
3188.06380	0.05457
3186.13515	0.05465
3184.20650	0.05446
3182.27784	0.05435
3180.34919	0.05444
3178.42054	0.05446
3176.49188	0.05402
3174.56323	0.05332
3172.63458	0.05298
3170.70592	0.05309
3168.77727	0.05320
3166.84862	0.05299
3164.91996	0.05265
3162.99131	0.05241
3161.06266	0.05232
3159.13400	0.05228
3157.20535	0.05206
3155.27670	0.05168
3153.34804	0.05145
3151.41939	0.05153
3149.49074	0.05174
3147.56209	0.05183
3145.63343	0.05179
3143.70478	0.05160
3141.77613	0.05133
3139.84747	0.05116
3137.91882	0.05110
3135.99017	0.05097
3134.06151	0.05067
3132.13286	0.05039
3130.20421	0.05041
3128.27555	0.05062
3126.34690	0.05073
3124.41825	0.05069
3122.48959	0.05042
3120.56094	0.05021
3118.63229	0.05039
3116.70363	0.05053
3114.77498	0.05020
3112.84633	0.04994
3110.91767	0.05014
3108.98902	0.05038
3107.06037	0.05038
3105.13171	0.05031
3103.20306	0.05014
3101.27441	0.04977
3099.34575	0.04947
3097.41710	0.04942
3095.48845	0.04943
3093.55979	0.04940
3091.63114	0.04942
3089.70249	0.04948
3087.77383	0.04942
3085.84518	0.04927
3083.91653	0.04923
3081.98787	0.04936
3080.05922	0.04951
3078.13057	0.04965
3076.20192	0.04961
3074.27326	0.04927
3072.34461	0.04888
3070.41596	0.04887
3068.48730	0.04916
3066.55865	0.04933
3064.63000	0.04916
3062.70134	0.04880
3060.77269	0.04854
3058.84404	0.04845
3056.91538	0.04849
3054.98673	0.04851
3053.05808	0.04839
3051.12942	0.04824
3049.20077	0.04812
3047.27212	0.04792
3045.34346	0.04766
3043.41481	0.04764
3041.48616	0.04798
3039.55750	0.04822
3037.62885	0.04798
3035.70020	0.04755
3033.77154	0.04730
3031.84289	0.04723
3029.91424	0.04724
3027.98558	0.04718
3026.05693	0.04689
3024.12828	0.04650
3022.19962	0.04614
3020.27097	0.04575
3018.34232	0.04536
3016.41366	0.04520
3014.48501	0.04552
3012.55636	0.04599
3010.62771	0.04601
3008.69905	0.04561
3006.77040	0.04532
3004.84175	0.04533
3002.91309	0.04542
3000.98444	0.04547
2999.05579	0.04551
2997.12713	0.04542
2995.19848	0.04513
2993.26983	0.04496
2991.34117	0.04508
2989.41252	0.04522
2987.48387	0.04517
2985.55521	0.04510
2983.62656	0.04519
2981.69791	0.04542
2979.76925	0.04558
2977.84060	0.04552
2975.91195	0.04530
2973.98329	0.04525
2972.05464	0.04540
2970.12599	0.04545
2968.19733	0.04539
2966.26868	0.04530
2964.34003	0.04514
2962.41137	0.04498
2960.48272	0.04502
2958.55407	0.04526
2956.62541	0.04544
2954.69676	0.04533
2952.76811	0.04503
2950.83945	0.04481
2948.91080	0.04488
2946.98215	0.04532
2945.05349	0.04573
2943.12484	0.04579
2941.19619	0.04580
2939.26754	0.04592
2937.33888	0.04578
2935.41023	0.04531
2933.48158	0.04495
2931.55292	0.04486
2929.62427	0.04493
2927.69562	0.04516
2925.76696	0.04540
2923.83831	0.04536
2921.90966	0.04516
2919.98100	0.04500
2918.05235	0.04484
2916.12370	0.04463
2914.19504	0.04434
2912.26639	0.04396
2910.33774	0.04360
2908.40908	0.04339
2906.48043	0.04336
2904.55178	0.04336
2902.62312	0.04325
2900.69447	0.04302
2898.76582	0.04277
2896.83716	0.04253
2894.90851	0.04227
2892.97986	0.04196
2891.05120	0.04176
2889.12255	0.04181
2887.19390	0.04191
2885.26524	0.04181
2883.33659	0.04158
2881.40794	0.04131
2879.47928	0.04106
2877.55063	0.04100
2875.62198	0.04113
2873.69333	0.04116
2871.76467	0.04107
2869.83602	0.04105
2867.90737	0.04100
2865.97871	0.04086
2864.05006	0.04074
2862.12141	0.04059
2860.19275	0.04043
2858.26410	0.04040
2856.33545	0.04044
2854.40679	0.04049
2852.47814	0.04052
2850.54949	0.04043
2848.62083	0.04014
2846.69218	0.03979
2844.76353	0.03947
2842.83487	0.03909
2840.90622	0.03867
2838.97757	0.03841
2837.04891	0.03834
2835.12026	0.03837
2833.19161	0.03845
2831.26295	0.03844
2829.33430	0.03825
2827.40565	0.03809
2825.47699	0.03801
2823.54834	0.03778
2821.61969	0.03738
2819.69103	0.03717
2817.76238	0.03719
2815.83373	0.03718
2813.90507	0.03707
2811.97642	0.03697
2810.04777	0.03681
2808.11912	0.03650
2806.19046	0.03631
2804.26181	0.03639
2802.33316	0.03657
2800.40450	0.03666
2798.47585	0.03661
2796.54720	0.03639
2794.61854	0.03606
2792.68989	0.03588
2790.76124	0.03584
2788.83258	0.03568
2786.90393	0.03540
2784.97528	0.03530
2783.04662	0.03547
2781.11797	0.03552
2779.18932	0.03535
2777.26066	0.03536
2775.33201	0.03558
2773.40336	0.03562
2771.47470	0.03536
2769.54605	0.03502
2767.61740	0.03481
2765.68874	0.03474
2763.76009	0.03480
2761.83144	0.03488
2759.90278	0.03484
2757.97413	0.03465
2756.04548	0.03438
2754.11682	0.03424
2752.18817	0.03439
2750.25952	0.03456
2748.33086	0.03450
2746.40221	0.03430
2744.47356	0.03412
2742.54490	0.03403
2740.61625	0.03395
2738.68760	0.03386
2736.75895	0.03385
2734.83029	0.03383
2732.90164	0.03365
2730.97299	0.03340
2729.04433	0.03320
2727.11568	0.03309
2725.18703	0.03312
2723.25837	0.03322
2721.32972	0.03334
2719.40107	0.03341
2717.47241	0.03326
2715.54376	0.03302
2713.61511	0.03289
2711.68645	0.03274
2709.75780	0.03258
2707.82915	0.03253
2705.90049	0.03247
2703.97184	0.03228
2702.04319	0.03211
2700.11453	0.03218
2698.18588	0.03233
2696.25723	0.03221
2694.32857	0.03181
2692.39992	0.03150
2690.47127	0.03152
2688.54261	0.03176
2686.61396	0.03199
2684.68531	0.03196
2682.75665	0.03161
2680.82800	0.03129
2678.89935	0.03125
2676.97069	0.03132
2675.04204	0.03129
2673.11339	0.03124
2671.18474	0.03114
2669.25608	0.03092
2667.32743	0.03073
2665.39878	0.03072
2663.47012	0.03078
2661.54147	0.03069
2659.61282	0.03033
2657.68416	0.02986
2655.75551	0.02945
2653.82686	0.02920
2651.89820	0.02917
2649.96955	0.02912
2648.04090	0.02886
2646.11224	0.02858
2644.18359	0.02831
2642.25494	0.02799
2640.32628	0.02785
2638.39763	0.02777
2636.46898	0.02759
2634.54032	0.02747
2632.61167	0.02744
2630.68302	0.02735
2628.75436	0.02720
2626.82571	0.02705
2624.89706	0.02690
2622.96840	0.02675
2621.03975	0.02655
2619.11110	0.02631
2617.18244	0.02616
2615.25379	0.02612
2613.32514	0.02611
2611.39648	0.02601
2609.46783	0.02571
2607.53918	0.02543
2605.61052	0.02534
2603.68187	0.02531
2601.75322	0.02521
2599.82457	0.02513
2597.89591	0.02517
2595.96726	0.02531
2594.03861	0.02536
2592.10995	0.02519
2590.18130	0.02483
2588.25265	0.02432
2586.32399	0.02391
2584.39534	0.02390
2582.46669	0.02419
2580.53803	0.02450
2578.60938	0.02464
2576.68073	0.02462
2574.75207	0.02455
2572.82342	0.02445
2570.89477	0.02432
2568.96611	0.02417
2567.03746	0.02397
2565.10881	0.02383
2563.18015	0.02375
2561.25150	0.02354
2559.32285	0.02335
2557.39419	0.02358
2555.46554	0.02409
2553.53689	0.02431
2551.60823	0.02403
2549.67958	0.02360
2547.75093	0.02338
2545.82227	0.02335
2543.89362	0.02336
2541.96497	0.02342
2540.03631	0.02349
2538.10766	0.02337
2536.17901	0.02293
2534.25036	0.02249
2532.32170	0.02251
2530.39305	0.02282
2528.46440	0.02292
2526.53574	0.02285
2524.60709	0.02285
2522.67844	0.02283
2520.74978	0.02260
2518.82113	0.02224
2516.89248	0.02212
2514.96382	0.02230
2513.03517	0.02240
2511.10652	0.02215
2509.17786	0.02183
2507.24921	0.02183
2505.32056	0.02189
2503.39190	0.02177
2501.46325	0.02164
2499.53460	0.02158
2497.60594	0.02161
2495.67729	0.02178
2493.74864	0.02201
2491.81998	0.02212
2489.89133	0.02198
2487.96268	0.02188
2486.03402	0.02209
2484.10537	0.02228
2482.17672	0.02215
2480.24806	0.02176
2478.31941	0.02135
2476.39076	0.02124
2474.46210	0.02142
2472.53345	0.02149
2470.60480	0.02157
2468.67615	0.02179
2466.74749	0.02165
2464.81884	0.02126
2462.89019	0.02130
2460.96153	0.02156
2459.03288	0.02153
2457.10423	0.02123
2455.17557	0.02087
2453.24692	0.02057
2451.31827	0.02053
2449.38961	0.02078
2447.46096	0.02101
2445.53231	0.02109
2443.60365	0.02110
2441.67500	0.02095
2439.74635	0.02080
2437.81769	0.02100
2435.88904	0.02127
2433.96039	0.02128
2432.03173	0.02120
2430.10308	0.02117
2428.17443	0.02106
2426.24577	0.02079
2424.31712	0.02069
2422.38847	0.02091
2420.45981	0.02103
2418.53116	0.02100
2416.60251	0.02113
2414.67385	0.02117
2412.74520	0.02094
2410.81655	0.02083
2408.88789	0.02113
2406.95924	0.02152
2405.03059	0.02150
2403.10193	0.02122
2401.17328	0.02115
2399.24463	0.02129
2397.31598	0.02130
2395.38732	0.02123
2393.45867	0.02145
2391.53002	0.02189
2389.60136	0.02205
2387.67271	0.02196
2385.74406	0.02193
2383.81540	0.02204
2381.88675	0.02217
2379.95810	0.02221
2378.02944	0.02217
2376.10079	0.02218
2374.17214	0.02228
2372.24348	0.02235
2370.31483	0.02243
2368.38618	0.02265
2366.45752	0.02286
2364.52887	0.02281
2362.60022	0.02263
2360.67156	0.02255
2358.74291	0.02261
2356.81426	0.02268
2354.88560	0.02257
2352.95695	0.02229
2351.02830	0.02196
2349.09964	0.02176
2347.17099	0.02188
2345.24234	0.02221
2343.31368	0.02239
2341.38503	0.02243
2339.45638	0.02250
2337.52772	0.02246
2335.59907	0.02231
2333.67042	0.02227
2331.74177	0.02226
2329.81311	0.02202
2327.88446	0.02149
2325.95581	0.02082
2324.02715	0.02036
2322.09850	0.02041
2320.16985	0.02061
2318.24119	0.02042
2316.31254	0.01988
2314.38389	0.01945
2312.45523	0.01955
2310.52658	0.01994
2308.59793	0.02012
2306.66927	0.01998
2304.74062	0.01961
2302.81197	0.01911
2300.88331	0.01870
2298.95466	0.01842
2297.02601	0.01815
2295.09735	0.01790
2293.16870	0.01766
2291.24005	0.01734
2289.31139	0.01694
2287.38274	0.01649
2285.45409	0.01621
2283.52543	0.01637
2281.59678	0.01676
2279.66813	0.01689
2277.73947	0.01688
2275.81082	0.01699
2273.88217	0.01682
2271.95351	0.01624
2270.02486	0.01591
2268.09621	0.01581
2266.16755	0.01560
2264.23890	0.01561
2262.31025	0.01619
2260.38160	0.01671
2258.45294	0.01646
2256.52429	0.01584
2254.59564	0.01526
2252.66698	0.01471
2250.73833	0.01459
2248.80968	0.01493
2246.88102	0.01492
2244.95237	0.01417
2243.02372	0.01313
2241.09506	0.01245
2239.16641	0.01252
2237.23776	0.01291
2235.30910	0.01289
2233.38045	0.01250
2231.45180	0.01246
2229.52314	0.01316
2227.59449	0.01387
2225.66584	0.01392
2223.73718	0.01375
2221.80853	0.01352
2219.87988	0.01274
2217.95122	0.01216
2216.02257	0.01228
2214.09392	0.01191
2212.16526	0.01081
2210.23661	0.01019
2208.30796	0.01054
2206.37930	0.01097
2204.45065	0.01047
2202.52200	0.00957
2200.59334	0.00914
2198.66469	0.00905
2196.73604	0.00913
2194.80739	0.00911
2192.87873	0.00860
2190.95008	0.00827
2189.02143	0.00885
2187.09277	0.00932
2185.16412	0.00861
2183.23547	0.00747
2181.30681	0.00692
2179.37816	0.00699
2177.44951	0.00702
2175.52085	0.00643
2173.59220	0.00562
2171.66355	0.00511
2169.73489	0.00492
2167.80624	0.00496
2165.87759	0.00455
2163.94893	0.00332
2162.02028	0.00237
2160.09163	0.00247
2158.16297	0.00347
2156.23432	0.00501
2154.30567	0.00625
2152.37701	0.00684
2150.44836	0.00753
2148.51971	0.00851
2146.59105	0.00905
2144.66240	0.00918
2142.73375	0.00955
2140.80509	0.01029
2138.87644	0.01087
2136.94779	0.01096
2135.01913	0.01092
2133.09048	0.01082
2131.16183	0.01066
2129.23318	0.01103
2127.30452	0.01186
2125.37587	0.01256
2123.44722	0.01290
2121.51856	0.01284
2119.58991	0.01259
2117.66126	0.01222
2115.73260	0.01167
2113.80395	0.01118
2111.87530	0.01094
2109.94664	0.01073
2108.01799	0.01049
2106.08934	0.01052
2104.16068	0.01067
2102.23203	0.01048
2100.30338	0.01016
2098.37472	0.00977
2096.44607	0.00988
2094.51742	0.00994
2092.58876	0.00972
2090.66011	0.00968
2088.73146	0.00995
2086.80280	0.01014
2084.87415	0.01016
2082.94550	0.00963
2081.01684	0.00856
2079.08819	0.00744
2077.15954	0.00676
2075.23088	0.00665
2073.30223	0.00665
2071.37358	0.00599
2069.44492	0.00498
2067.51627	0.00475
2065.58762	0.00510
2063.65896	0.00512
2061.73031	0.00538
2059.80166	0.00636
2057.87301	0.00694
2055.94435	0.00658
2054.01570	0.00594
2052.08705	0.00503
2050.15839	0.00372
2048.22974	0.00263
2046.30109	0.00193
2044.37243	0.00149
2042.44378	0.00147
2040.51513	0.00142
2038.58647	0.00074
2036.65782	0.00001
2034.72917	0.00014
2032.80051	0.00074
2030.87186	0.00088
2028.94321	0.00050
2027.01455	0.00015
2025.08590	0.00008
2023.15725	-0.00025
2021.22859	-0.00056
2019.29994	0.00033
2017.37129	0.00184
2015.44263	0.00263
2013.51398	0.00241
2011.58533	0.00164
2009.65667	0.00118
2007.72802	0.00166
2005.79937	0.00261
2003.87071	0.00319
2001.94206	0.00364
2000.01341	0.00445
1998.08475	0.00521
1996.15610	0.00553
1994.22745	0.00563
1992.29880	0.00575
1990.37014	0.00584
1988.44149	0.00590
1986.51284	0.00607
1984.58418	0.00622
1982.65553	0.00572
1980.72688	0.00443
1978.79822	0.00289
1976.86957	0.00176
1974.94092	0.00143
1973.01226	0.00174
1971.08361	0.00227
1969.15496	0.00287
1967.22630	0.00379
1965.29765	0.00520
1963.36900	0.00660
1961.44034	0.00766
1959.51169	0.00831
1957.58304	0.00838
1955.65438	0.00811
1953.72573	0.00782
1951.79708	0.00752
1949.86842	0.00737
1947.93977	0.00769
1946.01112	0.00863
1944.08246	0.00970
1942.15381	0.01027
1940.22516	0.01045
1938.29650	0.01042
1936.36785	0.01011
1934.43920	0.00978
1932.51054	0.00961
1930.58189	0.00955
1928.65324	0.00969
1926.72458	0.01003
1924.79593	0.01031
1922.86728	0.01059
1920.93863	0.01102
1919.00997	0.01131
1917.08132	0.01129
1915.15267	0.01104
1913.22401	0.01091
1911.29536	0.01105
1909.36671	0.01107
1907.43805	0.01102
1905.50940	0.01121
1903.58075	0.01134
1901.65209	0.01118
1899.72344	0.01107
1897.79479	0.01114
1895.86613	0.01118
1893.93748	0.01120
1892.00883	0.01141
1890.08017	0.01176
1888.15152	0.01182
1886.22287	0.01159
1884.29421	0.01152
1882.36556	0.01164
1880.43691	0.01175
1878.50825	0.01192
1876.57960	0.01204
1874.65095	0.01199
1872.72229	0.01182
1870.79364	0.01164
1868.86499	0.01153
1866.93633	0.01158
1865.00768	0.01171
1863.07903	0.01179
1861.15037	0.01191
1859.22172	0.01212
1857.29307	0.01226
1855.36442	0.01223
1853.43576	0.01204
1851.50711	0.01170
1849.57846	0.01152
1847.64980	0.01168
1845.72115	0.01193
1843.79250	0.01212
1841.86384	0.01224
1839.93519	0.01225
1838.00654	0.01224
1836.07788	0.01224
1834.14923	0.01218
1832.22058	0.01209
1830.29192	0.01207
1828.36327	0.01209
1826.43462	0.01203
1824.50596	0.01180
1822.57731	0.01144
1820.64866	0.01122
1818.72000	0.01144
1816.79135	0.01217
1814.86270	0.01302
1812.93404	0.01342
1811.00539	0.01328
1809.07674	0.01292
1807.14808	0.01269
1805.21943	0.01270
1803.29078	0.01277
1801.36212	0.01272
1799.43347	0.01257
1797.50482	0.01257
1795.57616	0.01283
1793.64751	0.01302
1791.71886	0.01297
1789.79021	0.01285
1787.86155	0.01266
1785.93290	0.01250
1784.00425	0.01252
1782.07559	0.01258
1780.14694	0.01254
1778.21829	0.01255
1776.28963	0.01268
1774.36098	0.01287
1772.43233	0.01307
1770.50367	0.01318
1768.57502	0.01314
1766.64637	0.01304
1764.71771	0.01302
1762.78906	0.01306
1760.86041	0.01311
1758.93175	0.01319
1757.00310	0.01330
1755.07445	0.01340
1753.14579	0.01346
1751.21714	0.01352
1749.28849	0.01369
1747.35983	0.01391
1745.43118	0.01400
1743.50253	0.01399
1741.57387	0.01394
1739.64522	0.01387
1737.71657	0.01387
1735.78791	0.01400
1733.85926	0.01412
1731.93061	0.01411
1730.00195	0.01403
1728.07330	0.01406
1726.14465	0.01418
1724.21599	0.01429
1722.28734	0.01432
1720.35869	0.01431
1718.43004	0.01438
1716.50138	0.01462
1714.57273	0.01504
1712.64408	0.01548
1710.71542	0.01590
1708.78677	0.01638
1706.85812	0.01694
1704.92946	0.01760
1703.00081	0.01841
1701.07216	0.01943
1699.14350	0.02063
1697.21485	0.02186
1695.28620	0.02308
1693.35754	0.02432
1691.42889	0.02566
1689.50024	0.02705
1687.57158	0.02840
1685.64293	0.02968
1683.71428	0.03088
1681.78562	0.03207
1679.85697	0.03338
1677.92832	0.03477
1675.99966	0.03607
1674.07101	0.03725
1672.14236	0.03841
1670.21370	0.03959
1668.28505	0.04076
1666.35640	0.04190
1664.42774	0.04301
1662.49909	0.04411
1660.57044	0.04516
1658.64178	0.04610
1656.71313	0.04692
1654.78448	0.04763
1652.85583	0.04828
1650.92717	0.04881
1648.99852	0.04919
1647.06987	0.04950
1645.14121	0.04974
1643.21256	0.04981
1641.28391	0.04974
1639.35525	0.04962
1637.42660	0.04938
1635.49795	0.04887
1633.56929	0.04811
1631.64064	0.04725
1629.71199	0.04642
1627.78333	0.04559
1625.85468	0.04465
1623.92603	0.04361
1621.99737	0.04256
1620.06872	0.04150
1618.14007	0.04045
1616.21141	0.03944
1614.28276	0.03852
1612.35411	0.03769
1610.42545	0.03697
1608.49680	0.03629
1606.56815	0.03560
1604.63949	0.03495
1602.71084	0.03440
1600.78219	0.03398
1598.85353	0.03366
1596.92488	0.03339
1594.99623	0.03312
1593.06757	0.03292
1591.13892	0.03286
1589.21027	0.03291
1587.28161	0.03297
1585.35296	0.03303
1583.42431	0.03313
1581.49566	0.03332
1579.56700	0.03362
1577.63835	0.03392
1575.70970	0.03419
1573.78104	0.03449
1571.85239	0.03484
1569.92374	0.03524
1567.99508	0.03564
1566.06643	0.03600
1564.13778	0.03634
1562.20912	0.03666
1560.28047	0.03696
1558.35182	0.03727
1556.42316	0.03765
1554.49451	0.03800
1552.56586	0.03826
1550.63720	0.03848
1548.70855	0.03876
1546.77990	0.03911
1544.85124	0.03942
1542.92259	0.03959
1540.99394	0.03964
1539.06528	0.03969
1537.13663	0.03977
1535.20798	0.03981
1533.27932	0.03982
1531.35067	0.03985
1529.42202	0.03989
1527.49336	0.03993
1525.56471	0.03994
1523.63606	0.03993
1521.70740	0.03993
1519.77875	0.04002
1517.85010	0.04024
1515.92145	0.04053
1513.99279	0.04076
1512.06414	0.04090
1510.13549	0.04102
1508.20683	0.04115
1506.27818	0.04130
1504.34953	0.04153
1502.42087	0.04174
1500.49222	0.04182
1498.56357	0.04182
1496.63491	0.04180
1494.70626	0.04179
1492.77761	0.04180
1490.84895	0.04187
1488.92030	0.04199
1486.99165	0.04215
1485.06299	0.04239
1483.13434	0.04277
1481.20569	0.04329
1479.27703	0.04385
1477.34838	0.04439
1475.41973	0.04496
1473.49107	0.04559
1471.56242	0.04619
1469.63377	0.04668
1467.70511	0.04709
1465.77646	0.04743
1463.84781	0.04779
1461.91915	0.04824
1459.99050	0.04878
1458.06185	0.04936
1456.13319	0.04992
1454.20454	0.05041
1452.27589	0.05087
1450.34724	0.05123
1448.41858	0.05145
1446.48993	0.05155
1444.56128	0.05158
1442.63262	0.05156
1440.70397	0.05155
1438.77532	0.05159
1436.84666	0.05159
1434.91801	0.05150
1432.98936	0.05143
1431.06070	0.05155
1429.13205	0.05188
1427.20340	0.05233
1425.27474	0.05284
1423.34609	0.05338
1421.41744	0.05395
1419.48878	0.05446
1417.56013	0.05480
1415.63148	0.05498
1413.70282	0.05503
1411.77417	0.05489
1409.84552	0.05456
1407.91686	0.05412
1405.98821	0.05354
1404.05956	0.05271
1402.13090	0.05159
1400.20225	0.05027
1398.27360	0.04891
1396.34494	0.04755
1394.41629	0.04617
1392.48764	0.04480
1390.55898	0.04339
1388.63033	0.04188
1386.70168	0.04037
1384.77302	0.03891
1382.84437	0.03745
1380.91572	0.03601
1378.98707	0.03466
1377.05841	0.03335
1375.12976	0.03210
1373.20111	0.03092
1371.27245	0.02979
1369.34380	0.02870
1367.41515	0.02775
1365.48649	0.02698
1363.55784	0.02633
1361.62919	0.02571
1359.70053	0.02509
1357.77188	0.02452
1355.84323	0.02407
1353.91457	0.02371
1351.98592	0.02334
1350.05727	0.02300
1348.12861	0.02276
1346.19996	0.02260
1344.27131	0.02247
1342.34265	0.02238
1340.41400	0.02229
1338.48535	0.02213
1336.55669	0.02192
1334.62804	0.02176
1332.69939	0.02162
1330.77073	0.02138
1328.84208	0.02111
1326.91343	0.02091
1324.98477	0.02072
1323.05612	0.02050
1321.12747	0.02037
1319.19881	0.02032
1317.27016	0.02024
1315.34151	0.02007
1313.41286	0.01983
1311.48420	0.01961
1309.55555	0.01944
1307.62690	0.01926
1305.69824	0.01905
1303.76959	0.01888
1301.84094	0.01875
1299.91228	0.01857
1297.98363	0.01836
1296.05498	0.01820
1294.12632	0.01813
1292.19767	0.01812
1290.26902	0.01815
1288.34036	0.01821
1286.41171	0.01828
1284.48306	0.01835
1282.55440	0.01840
1280.62575	0.01838
1278.69710	0.01831
1276.76844	0.01830
1274.83979	0.01835
1272.91114	0.01839
1270.98248	0.01839
1269.05383	0.01840
1267.12518	0.01845
1265.19652	0.01850
1263.26787	0.01845
1261.33922	0.01836
1259.41056	0.01834
1257.48191	0.01841
1255.55326	0.01850
1253.62460	0.01857
1251.69595	0.01862
1249.76730	0.01862
1247.83864	0.01862
1245.90999	0.01865
1243.98134	0.01863
1242.05269	0.01858
1240.12403	0.01851
1238.19538	0.01839
1236.26673	0.01826
1234.33807	0.01816
1232.40942	0.01799
1230.48077	0.01775
1228.55211	0.01753
1226.62346	0.01733
1224.69481	0.01705
1222.76615	0.01671
1220.83750	0.01637
1218.90885	0.01608
1216.98019	0.01590
1215.05154	0.01577
1213.12289	0.01562
1211.19423	0.01550
1209.26558	0.01547
1207.33693	0.01546
1205.40827	0.01544
1203.47962	0.01540
1201.55097	0.01538
1199.62231	0.01556
1197.69366	0.01549
1195.76501	0.01544
1193.83635	0.01540
1191.90770	0.01531
1189.97905	0.01508
1188.05039	0.01484
1186.12174	0.01480
1184.19309	0.01491
1182.26443	0.01506
1180.33578	0.01526
1178.40713	0.01554
1176.47848	0.01588
1174.54982	0.01618
1172.62117	0.01647
1170.69252	0.01686
1168.76386	0.01727
1166.83521	0.01766
1164.90656	0.01812
1162.97790	0.01867
1161.04925	0.01923
1159.12060	0.01981
1157.19194	0.02048
1155.26329	0.02128
1153.33464	0.02204
1151.40598	0.02270
1149.47733	0.02337
1147.54868	0.02421
1145.62002	0.02533
1143.69137	0.02662
1141.76272	0.02792
1139.83406	0.02921
1137.90541	0.03058
1135.97676	0.03216
1134.04810	0.03394
1132.11945	0.03587
1130.19080	0.03798
1128.26214	0.04033
1126.33349	0.04285
1124.40484	0.04548
1122.47618	0.04829
1120.54753	0.05134
1118.61888	0.05457
1116.69022	0.05798
1114.76157	0.06142
1112.83292	0.06473
1110.90427	0.06805
1108.97561	0.07154
1107.04696	0.07503
1105.11831	0.07830
1103.18965	0.08142
1101.26100	0.08453
1099.33235	0.08764
1097.40369	0.09065
1095.47504	0.09342
1093.54639	0.09598
1091.61773	0.09855
1089.68908	0.10116
1087.76043	0.10365
1085.83177	0.10598
1083.90312	0.10835
1081.97447	0.11087
1080.04581	0.11358
1078.11716	0.11647
1076.18851	0.11940
1074.25985	0.12230
1072.33120	0.12527
1070.40255	0.12833
1068.47389	0.13143
1066.54524	0.13451
1064.61659	0.13760
1062.68793	0.14072
1060.75928	0.14389
1058.83063	0.14705
1056.90197	0.15017
1054.97332	0.15315
1053.04467	0.15604
1051.11601	0.15891
1049.18736	0.16168
1047.25871	0.16444
1045.33005	0.16737
1043.40140	0.17048
1041.47275	0.17363
1039.54410	0.17674
1037.61544	0.17982
1035.68679	0.18292
1033.75814	0.18601
1031.82948	0.18883
1029.90083	0.19115
1027.97218	0.19301
1026.04352	0.19456
1024.11487	0.19579
1022.18622	0.19662
1020.25756	0.19695
1018.32891	0.19677
1016.40026	0.19616
1014.47160	0.19503
1012.54295	0.19327
1010.61430	0.19100
1008.68564	0.18826
1006.75699	0.18504
1004.82834	0.18137
1002.89968	0.17732
1000.97103	0.17297
999.04238	0.16829
997.11372	0.16317
995.18507	0.15771
993.25642	0.15209
991.32776	0.14639
989.39911	0.14065
987.47046	0.13498
985.54180	0.12934
983.61315	0.12359
981.68450	0.11772
979.75584	0.11194
977.82719	0.10648
975.89854	0.10145
973.96989	0.09694
972.04123	0.09299
970.11258	0.08965
968.18393	0.08714
966.25527	0.08558
964.32662	0.08466
962.39797	0.08404
960.46931	0.08347
958.54066	0.08267
956.61201	0.08137
954.68335	0.07943
952.75470	0.07710
950.82605	0.07479
948.89739	0.07257
946.96874	0.07024
945.04009	0.06781
943.11143	0.06548
941.18278	0.06332
939.25413	0.06125
937.32547	0.05918
935.39682	0.05720
933.46817	0.05547
931.53951	0.05392
929.61086	0.05251
927.68221	0.05117
925.75355	0.04984
923.82490	0.04856
921.89625	0.04739
919.96759	0.04632
918.03894	0.04546
916.11029	0.04487
914.18163	0.04438
912.25298	0.04387
910.32433	0.04325
908.39567	0.04263
906.46702	0.04210
904.53837	0.04155
902.60972	0.04097
900.68106	0.04056
898.75241	0.04034
896.82376	0.04018
894.89510	0.04007
892.96645	0.04003
891.03780	0.03998
889.10914	0.03993
887.18049	0.04014
885.25184	0.04091
883.32318	0.04236
881.39453	0.04435
879.46588	0.04625
877.53722	0.04755
875.60857	0.04844
873.67992	0.04908
871.75126	0.04914
869.82261	0.04852
867.89396	0.04747
865.96530	0.04619
864.03665	0.04482
862.10800	0.04347
860.17934	0.04216
858.25069	0.04089
856.32204	0.03986
854.39338	0.03917
852.46473	0.03868
850.53608	0.03816
848.60742	0.03760
846.67877	0.03715
844.75012	0.03688
842.82146	0.03658
840.89281	0.03612
838.96416	0.03566
837.03551	0.03535
835.10685	0.03509
833.17820	0.03477
831.24955	0.03445
829.32089	0.03411
827.39224	0.03375
825.46359	0.03350
823.53493	0.03339
821.60628	0.03341
819.67763	0.03340
817.74897	0.03322
815.82032	0.03305
813.89167	0.03297
811.96301	0.03286
810.03436	0.03277
808.10571	0.03276
806.17705	0.03269
804.24840	0.03249
802.31975	0.03230
800.39109	0.03213
798.46244	0.03195
796.53379	0.03187
794.60513	0.03191
792.67648	0.03204
790.74783	0.03217
788.81917	0.03209
786.89052	0.03192
784.96187	0.03187
783.03321	0.03186
781.10456	0.03176
779.17591	0.03157
777.24725	0.03135
775.31860	0.03125
773.38995	0.03131
771.46130	0.03149
769.53264	0.03171
767.60399	0.03181
765.67534	0.03175
763.74668	0.03169
761.81803	0.03164
759.88938	0.03162
757.96072	0.03172
756.03207	0.03194
754.10342	0.03210
752.17476	0.03207
750.24611	0.03197
748.31746	0.03193
746.38880	0.03196
744.46015	0.03205
742.53150	0.03210
740.60284	0.03204
738.67419	0.03197
736.74554	0.03209
734.81688	0.03236
732.88823	0.03247
730.95958	0.03244
729.03092	0.03255
727.10227	0.03262
725.17362	0.03252
723.24496	0.03246
721.31631	0.03248
719.38766	0.03247
717.45900	0.03257
715.53035	0.03273
713.60170	0.03274
711.67304	0.03265
709.74439	0.03262
707.81574	0.03265
705.88708	0.03267
703.95843	0.03260
702.02978	0.03250
700.10113	0.03243
698.17247	0.03244
696.24382	0.03253
694.31517	0.03264
692.38651	0.03269
690.45786	0.03266
688.52921	0.03257
686.60055	0.03245
684.67190	0.03237
682.74325	0.03238
680.81459	0.03249
678.88594	0.03257
676.95729	0.03253
675.02863	0.03246
673.09998	0.03246
671.17133	0.03250
669.24267	0.03253
667.31402	0.03250
665.38537	0.03240
663.45671	0.03227
661.52806	0.03216
659.59941	0.03208
657.67075	0.03197
655.74210	0.03182
653.81345	0.03169
651.88479	0.03165
649.95614	0.03183
648.02749	0.03212
646.09883	0.03230
644.17018	0.03233
642.24153	0.03245
640.31287	0.03275
638.38422	0.03315
636.45557	0.03364
634.52692	0.03422
632.59826	0.03474
630.66961	0.03603
628.74096	0.03981
626.81230	0.03681
624.88365	0.03262
622.95500	0.03105
621.02634	0.03288
619.09769	0.03763
617.16904	0.04554
615.24038	0.05462
613.31173	0.06054
611.38308	0.06214
609.45442	0.06357
607.52577	0.06795
605.59712	0.07288
603.66846	0.07694
601.73981	0.08017
599.81116	0.08128
597.88250	0.08013
595.95385	0.07802
594.02520	0.07622
592.09654	0.07537
590.16789	0.07522
588.23924	0.07536
586.31058	0.07605
584.38193	0.07761
582.45328	0.07981
580.52462	0.08238
578.59597	0.08531
576.66732	0.08843
574.73866	0.09137
572.81001	0.09388
570.88136	0.09627
568.95270	0.09925
567.02405	0.10312
565.09540	0.10712
563.16675	0.11031
561.23809	0.11218
559.30944	0.11221
557.38079	0.11008
555.45213	0.10621
553.52348	0.10151
551.59483	0.09658
549.66617	0.09158
547.73752	0.08674
545.80887	0.08228
543.88021	0.07834
541.95156	0.07501
540.02291	0.07210
538.09425	0.06929
536.16560	0.06660
534.23695	0.06421
532.30829	0.06206
530.37964	0.06001
528.45099	0.05795
526.52233	0.05590
524.59368	0.05399
522.66503	0.05231
520.73637	0.05081
518.80772	0.04932
516.87907	0.04769
514.95041	0.04607
513.02176	0.04470
511.09311	0.04357
509.16445	0.04256
507.23580	0.04153
505.30715	0.04036
503.37849	0.03925
501.44984	0.03861
499.52119	0.03833
497.59254	0.03782
495.66388	0.03705
493.73523	0.03636
491.80658	0.03579
489.87792	0.03521
487.94927	0.03464
486.02062	0.03432
484.09196	0.03424
482.16331	0.03406
480.23466	0.03372
478.30600	0.03359
476.37735	0.03373
474.44870	0.03380
472.52004	0.03352
470.59139	0.03303
468.66274	0.03262
466.73408	0.03242
464.80543	0.03224
462.87678	0.03192
460.94812	0.03151
459.01947	0.03104
457.09082	0.03054
455.16216	0.03014
453.23351	0.02979
451.30486	0.02941
449.37620	0.02908
447.44755	0.02889
445.51890	0.02878
443.59024	0.02865
441.66159	0.02844
439.73294	0.02814
437.80428	0.02788
435.87563	0.02770
433.94698	0.02763
432.01833	0.02756
430.08967	0.02734
428.16102	0.02700
426.23237	0.02667
424.30371	0.02639
422.37506	0.02617
420.44641	0.02599
418.51775	0.02578
416.58910	0.02555
414.66045	0.02538
412.73179	0.02530
410.80314	0.02529
408.87449	0.02526
406.94583	0.02527
405.01718	0.02538
403.08853	0.02553
401.15987	0.02570
399.23122	0.02586
