3996.16951	0.05503
3994.24086	0.05555
3992.31220	0.05641
3990.38355	0.05669
3988.45490	0.05602
3986.52624	0.05532
3984.59759	0.05526
3982.66894	0.05562
3980.74028	0.05576
3978.81163	0.05538
3976.88298	0.05498
3974.95432	0.05504
3973.02567	0.05551
3971.09702	0.05590
3969.16836	0.05564
3967.23971	0.05495
3965.31106	0.05468
3963.38240	0.05492
3961.45375	0.05542
3959.52510	0.05598
3957.59645	0.05598
3955.66779	0.05524
3953.73914	0.05463
3951.81049	0.05450
3949.88183	0.05423
3947.95318	0.05373
3946.02453	0.05350
3944.09587	0.05363
3942.16722	0.05383
3940.23857	0.05404
3938.30991	0.05436
3936.38126	0.05436
3934.45261	0.05359
3932.52395	0.05269
3930.59530	0.05270
3928.66665	0.05331
3926.73799	0.05340
3924.80934	0.05294
3922.88069	0.05272
3920.95203	0.05290
3919.02338	0.05309
3917.09473	0.05320
3915.16607	0.05314
3913.23742	0.05295
3911.30877	0.05281
3909.38011	0.05272
3907.45146	0.05238
3905.52281	0.05186
3903.59415	0.05177
3901.66550	0.05230
3899.73685	0.05285
3897.80819	0.05292
3895.87954	0.05292
3893.95089	0.05310
3892.02224	0.05315
3890.09358	0.05270
3888.16493	0.05246
3886.23628	0.05291
3884.30762	0.05302
3882.37897	0.05271
3880.45032	0.05233
3878.52166	0.05205
3876.59301	0.05232
3874.66436	0.05243
3872.73570	0.05196
3870.80705	0.05183
3868.87840	0.05179
3866.94974	0.05171
3865.02109	0.05174
3863.09244	0.05158
3861.16378	0.05183
3859.23513	0.05246
3857.30648	0.05265
3855.37782	0.05232
3853.44917	0.05183
3851.52052	0.05166
3849.59186	0.05199
3847.66321	0.05189
3845.73456	0.05123
3843.80590	0.05074
3841.87725	0.05059
3839.94860	0.05066
3838.01994	0.05069
3836.09129	0.05047
3834.16264	0.05049
3832.23398	0.05054
3830.30533	0.05017
3828.37668	0.04974
3826.44803	0.04932
3824.51937	0.04874
3822.59072	0.04859
3820.66207	0.04864
3818.73341	0.04870
3816.80476	0.04904
3814.87611	0.04869
3812.94745	0.04820
3811.01880	0.04855
3809.09015	0.04925
3807.16149	0.04975
3805.23284	0.04954
3803.30419	0.04940
3801.37553	0.04978
3799.44688	0.04995
3797.51823	0.04979
3795.58957	0.04907
3793.66092	0.04845
3791.73227	0.04851
3789.80361	0.04864
3787.87496	0.04847
3785.94631	0.04807
3784.01765	0.04775
3782.08900	0.04797
3780.16035	0.04846
3778.23169	0.04829
3776.30304	0.04775
3774.37439	0.04767
3772.44573	0.04787
3770.51708	0.04776
3768.58843	0.04715
3766.65977	0.04671
3764.73112	0.04647
3762.80247	0.04604
3760.87381	0.04591
3758.94516	0.04614
3757.01651	0.04639
3755.08786	0.04674
3753.15920	0.04740
3751.23055	0.04753
3749.30190	0.04687
3747.37324	0.04662
3745.44459	0.04775
3743.51594	0.04812
3741.58728	0.04725
3739.65863	0.04674
3737.72998	0.04662
3735.80132	0.04656
3733.87267	0.04636
3731.94402	0.04597
3730.01536	0.04533
3728.08671	0.04512
3726.15806	0.04517
3724.22940	0.04503
3722.30075	0.04467
3720.37210	0.04420
3718.44344	0.04409
3716.51479	0.04424
3714.58614	0.04431
3712.65748	0.04417
3710.72883	0.04389
3708.80018	0.04392
3706.87152	0.04401
3704.94287	0.04367
3703.01422	0.04323
3701.08556	0.04315
3699.15691	0.04325
3697.22826	0.04327
3695.29960	0.04323
3693.37095	0.04362
3691.44230	0.04466
3689.51365	0.04586
3687.58499	0.04592
3685.65634	0.04468
3683.72769	0.04363
3681.79903	0.04337
3679.87038	0.04366
3677.94173	0.04414
3676.01307	0.04443
3674.08442	0.04418
3672.15577	0.04460
3670.22711	0.04546
3668.29846	0.04556
3666.36981	0.04557
3664.44115	0.04587
3662.51250	0.04612
3660.58385	0.04600
3658.65519	0.04574
3656.72654	0.04584
3654.79789	0.04588
3652.86923	0.04599
3650.94058	0.04675
3649.01193	0.04780
3647.08327	0.04825
3645.15462	0.04813
3643.22597	0.04847
3641.29731	0.04964
3639.36866	0.05076
3637.44001	0.05129
3635.51135	0.05160
3633.58270	0.05199
3631.65405	0.05276
3629.72539	0.05388
3627.79674	0.05438
3625.86809	0.05442
3623.93943	0.05467
3622.01078	0.05515
3620.08213	0.05586
3618.15348	0.05619
3616.22482	0.05640
3614.29617	0.05717
3612.36752	0.05801
3610.43886	0.05859
3608.51021	0.05910
3606.58156	0.05951
3604.65290	0.05983
3602.72425	0.06030
3600.79560	0.06121
3598.86694	0.06236
3596.93829	0.06308
3595.00964	0.06331
3593.08098	0.06361
3591.15233	0.06434
3589.22368	0.06533
3587.29502	0.06615
3585.36637	0.06657
3583.43772	0.06682
3581.50906	0.06745
3579.58041	0.06871
3577.65176	0.07007
3575.72310	0.07099
3573.79445	0.07169
3571.86580	0.07255
3569.93714	0.07358
3568.00849	0.07457
3566.07984	0.07520
3564.15118	0.07576
3562.22253	0.07666
3560.29388	0.07764
3558.36522	0.07830
3556.43657	0.07881
3554.50792	0.07941
3552.57927	0.08013
3550.65061	0.08093
3548.72196	0.08183
3546.79331	0.08282
3544.86465	0.08382
3542.93600	0.08484
3541.00735	0.08590
3539.07869	0.08674
3537.15004	0.08732
3535.22139	0.08825
3533.29273	0.08956
3531.36408	0.09057
3529.43543	0.09116
3527.50677	0.09164
3525.57812	0.09205
3523.64947	0.09249
3521.72081	0.09318
3519.79216	0.09412
3517.86351	0.09511
3515.93485	0.09600
3514.00620	0.09678
3512.07755	0.09760
3510.14889	0.09858
3508.22024	0.09958
3506.29159	0.10051
3504.36293	0.10119
3502.43428	0.10155
3500.50563	0.10190
3498.57697	0.10251
3496.64832	0.10330
3494.71967	0.10413
3492.79101	0.10502
3490.86236	0.10606
3488.93371	0.10682
3487.00506	0.10698
3485.07640	0.10705
3483.14775	0.10754
3481.21910	0.10810
3479.29044	0.10836
3477.36179	0.10871
3475.43314	0.10950
3473.50448	0.11033
3471.57583	0.11110
3469.64718	0.11198
3467.71852	0.11271
3465.78987	0.11313
3463.86122	0.11352
3461.93256	0.11400
3460.00391	0.11448
3458.07526	0.11494
3456.14660	0.11534
3454.21795	0.11587
3452.28930	0.11689
3450.36064	0.11812
3448.43199	0.11893
3446.50334	0.11916
3444.57468	0.11914
3442.64603	0.11939
3440.71738	0.12022
3438.78872	0.12133
3436.86007	0.12199
3434.93142	0.12200
3433.00276	0.12192
3431.07411	0.12230
3429.14546	0.12319
3427.21680	0.12432
3425.28815	0.12534
3423.35950	0.12604
3421.43084	0.12640
3419.50219	0.12685
3417.57354	0.12778
3415.64489	0.12892
3413.71623	0.12983
3411.78758	0.13033
3409.85893	0.13055
3407.93027	0.13080
3406.00162	0.13132
3404.07297	0.13212
3402.14431	0.13291
3400.21566	0.13345
3398.28701	0.13376
3396.35835	0.13403
3394.42970	0.13457
3392.50105	0.13552
3390.57239	0.13654
3388.64374	0.13718
3386.71509	0.13742
3384.78643	0.13761
3382.85778	0.13821
3380.92913	0.13923
3379.00047	0.14023
3377.07182	0.14101
3375.14317	0.14164
3373.21451	0.14238
3371.28586	0.14348
3369.35721	0.14466
3367.42855	0.14548
3365.49990	0.14611
3363.57125	0.14691
3361.64259	0.14796
3359.71394	0.14922
3357.78529	0.15067
3355.85663	0.15212
3353.92798	0.15336
3351.99933	0.15450
3350.07068	0.15573
3348.14202	0.15711
3346.21337	0.15841
3344.28472	0.15954
3342.35606	0.16070
3340.42741	0.16197
3338.49876	0.16322
3336.57010	0.16451
3334.64145	0.16593
3332.71280	0.16711
3330.78414	0.16764
3328.85549	0.16790
3326.92684	0.16854
3324.99818	0.16958
3323.06953	0.17058
3321.14088	0.17143
3319.21222	0.17232
3317.28357	0.17320
3315.35492	0.17390
3313.42626	0.17438
3311.49761	0.17467
3309.56896	0.17477
3307.64030	0.17495
3305.71165	0.17556
3303.78300	0.17630
3301.85434	0.17674
3299.92569	0.17701
3297.99704	0.17721
3296.06838	0.17725
3294.13973	0.17732
3292.21108	0.17749
3290.28242	0.17753
3288.35377	0.17741
3286.42512	0.17743
3284.49646	0.17762
3282.56781	0.17752
3280.63916	0.17693
3278.71051	0.17645
3276.78185	0.17637
3274.85320	0.17609
3272.92455	0.17542
3270.99589	0.17472
3269.06724	0.17400
3267.13859	0.17327
3265.20993	0.17284
3263.28128	0.17251
3261.35263	0.17187
3259.42397	0.17099
3257.49532	0.17015
3255.56667	0.16933
3253.63801	0.16854
3251.70936	0.16794
3249.78071	0.16756
3247.85205	0.16715
3245.92340	0.16663
3243.99475	0.16618
3242.06609	0.16575
3240.13744	0.16503
3238.20879	0.16392
3236.28013	0.16288
3234.35148	0.16221
3232.42283	0.16167
3230.49417	0.16116
3228.56552	0.16085
3226.63687	0.16074
3224.70821	0.16069
3222.77956	0.16031
3220.85091	0.15951
3218.92225	0.15873
3216.99360	0.15808
3215.06495	0.15748
3213.13630	0.15705
3211.20764	0.15669
3209.27899	0.15628
3207.35034	0.15585
3205.42168	0.15540
3203.49303	0.15492
3201.56438	0.15444
3199.63572	0.15387
3197.70707	0.15317
3195.77842	0.15238
3193.84976	0.15135
3191.92111	0.15006
3189.99246	0.14887
3188.06380	0.14808
3186.13515	0.14762
3184.20650	0.14721
3182.27784	0.14653
3180.34919	0.14563
3178.42054	0.14462
3176.49188	0.14343
3174.56323	0.14236
3172.63458	0.14155
3170.70592	0.14054
3168.77727	0.13932
3166.84862	0.13829
3164.91996	0.13745
3162.99131	0.13662
3161.06266	0.13568
3159.13400	0.13458
3157.20535	0.13357
3155.27670	0.13276
3153.34804	0.13178
3151.41939	0.13059
3149.49074	0.12954
3147.56209	0.12879
3145.63343	0.12821
3143.70478	0.12767
3141.77613	0.12696
3139.84747	0.12610
3137.91882	0.12541
3135.99017	0.12495
3134.06151	0.12439
3132.13286	0.12360
3130.20421	0.12270
3128.27555	0.12190
3126.34690	0.12141
3124.41825	0.12129
3122.48959	0.12125
3120.56094	0.12090
3118.63229	0.12035
3116.70363	0.11992
3114.77498	0.11967
3112.84633	0.11952
3110.91767	0.11929
3108.98902	0.11894
3107.06037	0.11890
3105.13171	0.11945
3103.20306	0.12010
3101.27441	0.12042
3099.34575	0.12051
3097.41710	0.12059
3095.48845	0.12082
3093.55979	0.12129
3091.63114	0.12175
3089.70249	0.12187
3087.77383	0.12175
3085.84518	0.12195
3083.91653	0.12265
3081.98787	0.12344
3080.05922	0.12395
3078.13057	0.12413
3076.20192	0.12415
3074.27326	0.12405
3072.34461	0.12388
3070.41596	0.12364
3068.48730	0.12318
3066.55865	0.12263
3064.63000	0.12237
3062.70134	0.12230
3060.77269	0.12195
3058.84404	0.12122
3056.91538	0.12041
3054.98673	0.11984
3053.05808	0.11928
3051.12942	0.11834
3049.20077	0.11731
3047.27212	0.11655
3045.34346	0.11596
3043.41481	0.11536
3041.48616	0.11464
3039.55750	0.11369
3037.62885	0.11268
3035.70020	0.11178
3033.77154	0.11095
3031.84289	0.11035
3029.91424	0.10991
3027.98558	0.10922
3026.05693	0.10822
3024.12828	0.10712
3022.19962	0.10618
3020.27097	0.10548
3018.34232	0.10486
3016.41366	0.10427
3014.48501	0.10390
3012.55636	0.10368
3010.62771	0.10343
3008.69905	0.10314
3006.77040	0.10283
3004.84175	0.10254
3002.91309	0.10240
3000.98444	0.10248
2999.05579	0.10267
2997.12713	0.10283
2995.19848	0.10308
2993.26983	0.10361
2991.34117	0.10434
2989.41252	0.10498
2987.48387	0.10533
2985.55521	0.10558
2983.62656	0.10600
2981.69791	0.10659
2979.76925	0.10727
2977.84060	0.10792
2975.91195	0.10840
2973.98329	0.10885
2972.05464	0.10930
2970.12599	0.10967
2968.19733	0.11018
2966.26868	0.11093
2964.34003	0.11168
2962.41137	0.11233
2960.48272	0.11271
2958.55407	0.11282
2956.62541	0.11298
2954.69676	0.11324
2952.76811	0.11331
2950.83945	0.11325
2948.91080	0.11327
2946.98215	0.11325
2945.05349	0.11307
2943.12484	0.11300
2941.19619	0.11325
2939.26754	0.11362
2937.33888	0.11380
2935.41023	0.11368
2933.48158	0.11353
2931.55292	0.11358
2929.62427	0.11361
2927.69562	0.11343
2925.76696	0.11302
2923.83831	0.11241
2921.90966	0.11180
2919.98100	0.11115
2918.05235	0.11022
2916.12370	0.10900
2914.19504	0.10772
2912.26639	0.10667
2910.33774	0.10581
2908.40908	0.10498
2906.48043	0.10419
2904.55178	0.10343
2902.62312	0.10265
2900.69447	0.10199
2898.76582	0.10149
2896.83716	0.10102
2894.90851	0.10056
2892.97986	0.10014
2891.05120	0.09983
2889.12255	0.09972
2887.19390	0.09971
2885.26524	0.09974
2883.33659	0.09984
2881.40794	0.09990
2879.47928	0.09981
2877.55063	0.09966
2875.62198	0.09960
2873.69333	0.09952
2871.76467	0.09920
2869.83602	0.09855
2867.90737	0.09764
2865.97871	0.09669
2864.05006	0.09579
2862.12141	0.09487
2860.19275	0.09409
2858.26410	0.09351
2856.33545	0.09284
2854.40679	0.09194
2852.47814	0.09111
2850.54949	0.09048
2848.62083	0.08989
2846.69218	0.08931
2844.76353	0.08880
2842.83487	0.08835
2840.90622	0.08788
2838.97757	0.08742
2837.04891	0.08696
2835.12026	0.08641
2833.19161	0.08577
2831.26295	0.08524
2829.33430	0.08489
2827.40565	0.08453
2825.47699	0.08414
2823.54834	0.08374
2821.61969	0.08329
2819.69103	0.08293
2817.76238	0.08277
2815.83373	0.08272
2813.90507	0.08256
2811.97642	0.08212
2810.04777	0.08164
2808.11912	0.08143
2806.19046	0.08136
2804.26181	0.08109
2802.33316	0.08059
2800.40450	0.08020
2798.47585	0.08001
2796.54720	0.07976
2794.61854	0.07946
2792.68989	0.07931
2790.76124	0.07923
2788.83258	0.07902
2786.90393	0.07862
2784.97528	0.07818
2783.04662	0.07784
2781.11797	0.07749
2779.18932	0.07718
2777.26066	0.07701
2775.33201	0.07683
2773.40336	0.07648
2771.47470	0.07604
2769.54605	0.07556
2767.61740	0.07512
2765.68874	0.07484
2763.76009	0.07475
2761.83144	0.07476
2759.90278	0.07468
2757.97413	0.07438
2756.04548	0.07392
2754.11682	0.07353
2752.18817	0.07331
2750.25952	0.07316
2748.33086	0.07289
2746.40221	0.07248
2744.47356	0.07205
2742.54490	0.07174
2740.61625	0.07156
2738.68760	0.07144
2736.75895	0.07128
2734.83029	0.07106
2732.90164	0.07095
2730.97299	0.07088
2729.04433	0.07052
2727.11568	0.06993
2725.18703	0.06964
2723.25837	0.06972
2721.32972	0.06971
2719.40107	0.06946
2717.47241	0.06917
2715.54376	0.06886
2713.61511	0.06851
2711.68645	0.06821
2709.75780	0.06808
2707.82915	0.06799
2705.90049	0.06788
2703.97184	0.06785
2702.04319	0.06770
2700.11453	0.06730
2698.18588	0.06695
2696.25723	0.06679
2694.32857	0.06672
2692.39992	0.06660
2690.47127	0.06642
2688.54261	0.06629
2686.61396	0.06616
2684.68531	0.06598
2682.75665	0.06589
2680.82800	0.06589
2678.89935	0.06584
2676.97069	0.06562
2675.04204	0.06533
2673.11339	0.06515
2671.18474	0.06506
2669.25608	0.06491
2667.32743	0.06471
2665.39878	0.06450
2663.47012	0.06430
2661.54147	0.06416
2659.61282	0.06406
2657.68416	0.06405
2655.75551	0.06403
2653.82686	0.06398
2651.89820	0.06387
2649.96955	0.06358
2648.04090	0.06305
2646.11224	0.06243
2644.18359	0.06185
2642.25494	0.06144
2640.32628	0.06137
2638.39763	0.06142
2636.46898	0.06113
2634.54032	0.06052
2632.61167	0.05998
2630.68302	0.05970
2628.75436	0.05944
2626.82571	0.05906
2624.89706	0.05887
2622.96840	0.05900
2621.03975	0.05902
2619.11110	0.05857
2617.18244	0.05793
2615.25379	0.05750
2613.32514	0.05721
2611.39648	0.05693
2609.46783	0.05656
2607.53918	0.05595
2605.61052	0.05523
2603.68187	0.05470
2601.75322	0.05460
2599.82457	0.05484
2597.89591	0.05502
2595.96726	0.05479
2594.03861	0.05433
2592.10995	0.05409
2590.18130	0.05394
2588.25265	0.05355
2586.32399	0.05303
2584.39534	0.05276
2582.46669	0.05288
2580.53803	0.05303
2578.60938	0.05283
2576.68073	0.05246
2574.75207	0.05227
2572.82342	0.05194
2570.89477	0.05129
2568.96611	0.05094
2567.03746	0.05122
2565.10881	0.05151
2563.18015	0.05135
2561.25150	0.05104
2559.32285	0.05095
2557.39419	0.05092
2555.46554	0.05073
2553.53689	0.05044
2551.60823	0.05025
2549.67958	0.05021
2547.75093	0.05014
2545.82227	0.04982
2543.89362	0.04929
2541.96497	0.04892
2540.03631	0.04875
2538.10766	0.04855
2536.17901	0.04821
2534.25036	0.04786
2532.32170	0.04764
2530.39305	0.04751
2528.46440	0.04745
2526.53574	0.04740
2524.60709	0.04745
2522.67844	0.04769
2520.74978	0.04797
2518.82113	0.04803
2516.89248	0.04795
2514.96382	0.04784
2513.03517	0.04768
2511.10652	0.04753
2509.17786	0.04749
2507.24921	0.04743
2505.32056	0.04722
2503.39190	0.04683
2501.46325	0.04636
2499.53460	0.04613
2497.60594	0.04613
2495.67729	0.04607
2493.74864	0.04590
2491.81998	0.04583
2489.89133	0.04583
2487.96268	0.04563
2486.03402	0.04542
2484.10537	0.04541
2482.17672	0.04529
2480.24806	0.04507
2478.31941	0.04511
2476.39076	0.04529
2474.46210	0.04528
2472.53345	0.04523
2470.60480	0.04543
2468.67615	0.04568
2466.74749	0.04551
2464.81884	0.04504
2462.89019	0.04474
2460.96153	0.04457
2459.03288	0.04434
2457.10423	0.04418
2455.17557	0.04417
2453.24692	0.04427
2451.31827	0.04441
2449.38961	0.04435
2447.46096	0.04411
2445.53231	0.04384
2443.60365	0.04354
2441.67500	0.04340
2439.74635	0.04349
2437.81769	0.04360
2435.88904	0.04357
2433.96039	0.04346
2432.03173	0.04343
2430.10308	0.04343
2428.17443	0.04324
2426.24577	0.04286
2424.31712	0.04262
2422.38847	0.04275
2420.45981	0.04306
2418.53116	0.04313
2416.60251	0.04291
2414.67385	0.04275
2412.74520	0.04274
2410.81655	0.04260
2408.88789	0.04230
2406.95924	0.04215
2405.03059	0.04219
2403.10193	0.04235
2401.17328	0.04257
2399.24463	0.04273
2397.31598	0.04285
2395.38732	0.04296
2393.45867	0.04298
2391.53002	0.04288
2389.60136	0.04276
2387.67271	0.04270
2385.74406	0.04262
2383.81540	0.04252
2381.88675	0.04248
2379.95810	0.04258
2378.02944	0.04276
2376.10079	0.04282
2374.17214	0.04286
2372.24348	0.04280
2370.31483	0.04327
2368.38618	0.04210
2366.45752	0.04166
2364.52887	0.04198
2362.60022	0.04082
2360.67156	0.04262
2358.74291	0.04443
2356.81426	0.04346
2354.88560	0.04303
2352.95695	0.04341
2351.02830	0.04351
2349.09964	0.04363
2347.17099	0.04373
2345.24234	0.04393
2343.31368	0.04361
2341.38503	0.04257
2339.45638	0.04407
2337.52772	0.04182
2335.59907	0.04263
2333.67042	0.04311
2331.74177	0.04297
2329.81311	0.04288
2327.88446	0.04312
2325.95581	0.04368
2324.02715	0.04400
2322.09850	0.04375
2320.16985	0.04316
2318.24119	0.04272
2316.31254	0.04255
2314.38389	0.04223
2312.45523	0.04157
2310.52658	0.04102
2308.59793	0.04091
2306.66927	0.04094
2304.74062	0.04061
2302.81197	0.03986
2300.88331	0.03949
2298.95466	0.03939
2297.02601	0.03916
2295.09735	0.03908
2293.16870	0.03906
2291.24005	0.03879
2289.31139	0.03867
2287.38274	0.03874
2285.45409	0.03820
2283.52543	0.03697
2281.59678	0.03580
2279.66813	0.03525
2277.73947	0.03530
2275.81082	0.03562
2273.88217	0.03583
2271.95351	0.03577
2270.02486	0.03556
2268.09621	0.03507
2266.16755	0.03402
2264.23890	0.03285
2262.31025	0.03215
2260.38160	0.03197
2258.45294	0.03195
2256.52429	0.03175
2254.59564	0.03153
2252.66698	0.03150
2250.73833	0.03128
2248.80968	0.03091
2246.88102	0.03079
2244.95237	0.03095
2243.02372	0.03064
2241.09506	0.03029
2239.16641	0.03031
2237.23776	0.03036
2235.30910	0.03009
2233.38045	0.02958
2231.45180	0.02944
2229.52314	0.02995
2227.59449	0.03028
2225.66584	0.02943
2223.73718	0.02777
2221.80853	0.02683
2219.87988	0.02706
2217.95122	0.02733
2216.02257	0.02708
2214.09392	0.02666
2212.16526	0.02600
2210.23661	0.02547
2208.30796	0.02576
2206.37930	0.02609
2204.45065	0.02508
2202.52200	0.02356
2200.59334	0.02365
2198.66469	0.02503
2196.73604	0.02586
2194.80739	0.02567
2192.87873	0.02500
2190.95008	0.02415
2189.02143	0.02324
2187.09277	0.02238
2185.16412	0.02179
2183.23547	0.02169
2181.30681	0.02177
2179.37816	0.02152
2177.44951	0.02105
2175.52085	0.02123
2173.59220	0.02237
2171.66355	0.02350
2169.73489	0.02412
2167.80624	0.02433
2165.87759	0.02370
2163.94893	0.02207
2162.02028	0.01984
2160.09163	0.01806
2158.16297	0.01726
2156.23432	0.01661
2154.30567	0.01675
2152.37701	0.01874
2150.44836	0.02118
2148.51971	0.02238
2146.59105	0.02266
2144.66240	0.02283
2142.73375	0.02274
2140.80509	0.02229
2138.87644	0.02223
2136.94779	0.02296
2135.01913	0.02372
2133.09048	0.02409
2131.16183	0.02460
2129.23318	0.02547
2127.30452	0.02605
2125.37587	0.02628
2123.44722	0.02680
2121.51856	0.02747
2119.58991	0.02794
2117.66126	0.02822
2115.73260	0.02822
2113.80395	0.02812
2111.87530	0.02808
2109.94664	0.02791
2108.01799	0.02768
2106.08934	0.02759
2104.16068	0.02753
2102.23203	0.02725
2100.30338	0.02705
2098.37472	0.02724
2096.44607	0.02730
2094.51742	0.02706
2092.58876	0.02710
2090.66011	0.02746
2088.73146	0.02742
2086.80280	0.02659
2084.87415	0.02568
2082.94550	0.02569
2081.01684	0.02629
2079.08819	0.02645
2077.15954	0.02606
2075.23088	0.02573
2073.30223	0.02554
2071.37358	0.02500
2069.44492	0.02423
2067.51627	0.02379
2065.58762	0.02374
2063.65896	0.02375
2061.73031	0.02348
2059.80166	0.02308
2057.87301	0.02293
2055.94435	0.02271
2054.01570	0.02214
2052.08705	0.02165
2050.15839	0.02145
2048.22974	0.02117
2046.30109	0.02046
2044.37243	0.01973
2042.44378	0.01953
2040.51513	0.01947
2038.58647	0.01901
2036.65782	0.01832
2034.72917	0.01760
2032.80051	0.01665
2030.87186	0.01587
2028.94321	0.01625
2027.01455	0.01715
2025.08590	0.01696
2023.15725	0.01652
2021.22859	0.01743
2019.29994	0.01866
2017.37129	0.01852
2015.44263	0.01726
2013.51398	0.01620
2011.58533	0.01575
2009.65667	0.01574
2007.72802	0.01631
2005.79937	0.01747
2003.87071	0.01890
2001.94206	0.02012
2000.01341	0.02043
1998.08475	0.01992
1996.15610	0.01979
1994.22745	0.02039
1992.29880	0.02071
1990.37014	0.02009
1988.44149	0.01926
1986.51284	0.01931
1984.58418	0.01986
1982.65553	0.01966
1980.72688	0.01844
1978.79822	0.01695
1976.86957	0.01641
1974.94092	0.01719
1973.01226	0.01793
1971.08361	0.01795
1969.15496	0.01772
1967.22630	0.01720
1965.29765	0.01634
1963.36900	0.01601
1961.44034	0.01660
1959.51169	0.01747
1957.58304	0.01807
1955.65438	0.01834
1953.72573	0.01853
1951.79708	0.01913
1949.86842	0.02007
1947.93977	0.02047
1946.01112	0.02030
1944.08246	0.02055
1942.15381	0.02103
1940.22516	0.02086
1938.29650	0.02056
1936.36785	0.02108
1934.43920	0.02217
1932.51054	0.02276
1930.58189	0.02249
1928.65324	0.02213
1926.72458	0.02220
1924.79593	0.02234
1922.86728	0.02222
1920.93863	0.02216
1919.00997	0.02241
1917.08132	0.02265
1915.15267	0.02281
1913.22401	0.02313
1911.29536	0.02329
1909.36671	0.02302
1907.43805	0.02266
1905.50940	0.02246
1903.58075	0.02223
1901.65209	0.02202
1899.72344	0.02210
1897.79479	0.02238
1895.86613	0.02258
1893.93748	0.02256
1892.00883	0.02241
1890.08017	0.02238
1888.15152	0.02232
1886.22287	0.02205
1884.29421	0.02190
1882.36556	0.02215
1880.43691	0.02253
1878.50825	0.02272
1876.57960	0.02275
1874.65095	0.02276
1872.72229	0.02275
1870.79364	0.02265
1868.86499	0.02250
1866.93633	0.02236
1865.00768	0.02226
1863.07903	0.02224
1861.15037	0.02238
1859.22172	0.02246
1857.29307	0.02226
1855.36442	0.02198
1853.43576	0.02178
1851.50711	0.02161
1849.57846	0.02164
1847.64980	0.02189
1845.72115	0.02218
1843.79250	0.02230
1841.86384	0.02211
1839.93519	0.02174
1838.00654	0.02151
1836.07788	0.02167
1834.14923	0.02186
1832.22058	0.02174
1830.29192	0.02151
1828.36327	0.02137
1826.43462	0.02149
1824.50596	0.02170
1822.57731	0.02173
1820.64866	0.02163
1818.72000	0.02153
1816.79135	0.02149
1814.86270	0.02141
1812.93404	0.02134
1811.00539	0.02133
1809.07674	0.02133
1807.14808	0.02129
1805.21943	0.02126
1803.29078	0.02131
1801.36212	0.02150
1799.43347	0.02160
1797.50482	0.02147
1795.57616	0.02128
1793.64751	0.02121
1791.71886	0.02120
1789.79021	0.02114
1787.86155	0.02106
1785.93290	0.02097
1784.00425	0.02095
1782.07559	0.02102
1780.14694	0.02100
1778.21829	0.02079
1776.28963	0.02060
1774.36098	0.02066
1772.43233	0.02082
1770.50367	0.02080
1768.57502	0.02083
1766.64637	0.02094
1764.71771	0.02105
1762.78906	0.02109
1760.86041	0.02098
1758.93175	0.02104
1757.00310	0.02131
1755.07445	0.02138
1753.14579	0.02146
1751.21714	0.02177
1749.28849	0.02209
1747.35983	0.02246
1745.43118	0.02289
1743.50253	0.02335
1741.57387	0.02391
1739.64522	0.02446
1737.71657	0.02486
1735.78791	0.02555
1733.85926	0.02636
1731.93061	0.02679
1730.00195	0.02716
1728.07330	0.02768
1726.14465	0.02830
1724.21599	0.02895
1722.28734	0.02941
1720.35869	0.02986
1718.43004	0.03067
1716.50138	0.03159
1714.57273	0.03246
1712.64408	0.03356
1710.71542	0.03511
1708.78677	0.03717
1706.85812	0.03966
1704.92946	0.04254
1703.00081	0.04597
1701.07216	0.05000
1699.14350	0.05389
1697.21485	0.05783
1695.28620	0.06208
1693.35754	0.06619
1691.42889	0.07045
1689.50024	0.07479
1687.57158	0.07925
1685.64293	0.08419
1683.71428	0.08919
1681.78562	0.09404
1679.85697	0.09930
1677.92832	0.10502
1675.99966	0.11118
1674.07101	0.11747
1672.14236	0.12388
1670.21370	0.13055
1668.28505	0.13717
1666.35640	0.14358
1664.42774	0.15002
1662.49909	0.15639
1660.57044	0.16227
1658.64178	0.16746
1656.71313	0.17211
1654.78448	0.17683
1652.85583	0.18128
1650.92717	0.18460
1648.99852	0.18754
1647.06987	0.19064
1645.14121	0.19345
1643.21256	0.19592
1641.28391	0.19833
1639.35525	0.20068
1637.42660	0.20305
1635.49795	0.20525
1633.56929	0.20676
1631.64064	0.20764
1629.71199	0.20780
1627.78333	0.20683
1625.85468	0.20463
1623.92603	0.20139
1621.99737	0.19713
1620.06872	0.19215
1618.14007	0.18690
1616.21141	0.18113
1614.28276	0.17477
1612.35411	0.16836
1610.42545	0.16204
1608.49680	0.15582
1606.56815	0.14974
1604.63949	0.14390
1602.71084	0.13843
1600.78219	0.13339
1598.85353	0.12879
1596.92488	0.12466
1594.99623	0.12104
1593.06757	0.11798
1591.13892	0.11549
1589.21027	0.11349
1587.28161	0.11194
1585.35296	0.11088
1583.42431	0.11031
1581.49566	0.11020
1579.56700	0.11066
1577.63835	0.11196
1575.70970	0.11383
1573.78104	0.11588
1571.85239	0.11851
1569.92374	0.12171
1567.99508	0.12523
1566.06643	0.12905
1564.13778	0.13294
1562.20912	0.13688
1560.28047	0.14127
1558.35182	0.14560
1556.42316	0.14938
1554.49451	0.15284
1552.56586	0.15593
1550.63720	0.15875
1548.70855	0.16124
1546.77990	0.16328
1544.85124	0.16488
1542.92259	0.16612
1540.99394	0.16721
1539.06528	0.16798
1537.13663	0.16825
1535.20798	0.16847
1533.27932	0.16855
1531.35067	0.16819
1529.42202	0.16758
1527.49336	0.16679
1525.56471	0.16580
1523.63606	0.16470
1521.70740	0.16356
1519.77875	0.16207
1517.85010	0.16037
1515.92145	0.15840
1513.99279	0.15585
1512.06414	0.15276
1510.13549	0.14934
1508.20683	0.14581
1506.27818	0.14191
1504.34953	0.13744
1502.42087	0.13294
1500.49222	0.12855
1498.56357	0.12415
1496.63491	0.11970
1494.70626	0.11514
1492.77761	0.11074
1490.84895	0.10670
1488.92030	0.10300
1486.99165	0.09979
1485.06299	0.09717
1483.13434	0.09525
1481.20569	0.09406
1479.27703	0.09351
1477.34838	0.09358
1475.41973	0.09431
1473.49107	0.09571
1471.56242	0.09743
1469.63377	0.09925
1467.70511	0.10131
1465.77646	0.10363
1463.84781	0.10599
1461.91915	0.10841
1459.99050	0.11113
1458.06185	0.11411
1456.13319	0.11671
1454.20454	0.11862
1452.27589	0.12008
1450.34724	0.12094
1448.41858	0.12113
1446.48993	0.12073
1444.56128	0.11988
1442.63262	0.11879
1440.70397	0.11753
1438.77532	0.11607
1436.84666	0.11426
1434.91801	0.11199
1432.98936	0.10963
1431.06070	0.10745
1429.13205	0.10552
1427.20340	0.10400
1425.27474	0.10294
1423.34609	0.10224
1421.41744	0.10196
1419.48878	0.10198
1417.56013	0.10189
1415.63148	0.10184
1413.70282	0.10199
1411.77417	0.10234
1409.84552	0.10291
1407.91686	0.10359
1405.98821	0.10424
1404.05956	0.10469
1402.13090	0.10487
1400.20225	0.10482
1398.27360	0.10462
1396.34494	0.10436
1394.41629	0.10403
1392.48764	0.10356
1390.55898	0.10313
1388.63033	0.10279
1386.70168	0.10234
1384.77302	0.10177
1382.84437	0.10125
1380.91572	0.10074
1378.98707	0.10014
1377.05841	0.09937
1375.12976	0.09841
1373.20111	0.09727
1371.27245	0.09595
1369.34380	0.09447
1367.41515	0.09286
1365.48649	0.09121
1363.55784	0.08966
1361.62919	0.08834
1359.70053	0.08739
1357.77188	0.08683
1355.84323	0.08662
1353.91457	0.08680
1351.98592	0.08740
1350.05727	0.08830
1348.12861	0.08941
1346.19996	0.09069
1344.27131	0.09202
1342.34265	0.09334
1340.41400	0.09457
1338.48535	0.09548
1336.55669	0.09592
1334.62804	0.09584
1332.69939	0.09525
1330.77073	0.09427
1328.84208	0.09305
1326.91343	0.09178
1324.98477	0.09066
1323.05612	0.08979
1321.12747	0.08913
1319.19881	0.08857
1317.27016	0.08806
1315.34151	0.08756
1313.41286	0.08700
1311.48420	0.08637
1309.55555	0.08577
1307.62690	0.08520
1305.69824	0.08466
1303.76959	0.08420
1301.84094	0.08382
1299.91228	0.08346
1297.98363	0.08314
1296.05498	0.08303
1294.12632	0.08323
1292.19767	0.08368
1290.26902	0.08435
1288.34036	0.08527
1286.41171	0.08631
1284.48306	0.08724
1282.55440	0.08799
1280.62575	0.08854
1278.69710	0.08883
1276.76844	0.08889
1274.83979	0.08890
1272.91114	0.08907
1270.98248	0.08943
1269.05383	0.08994
1267.12518	0.09062
1265.19652	0.09150
1263.26787	0.09253
1261.33922	0.09364
1259.41056	0.09476
1257.48191	0.09586
1255.55326	0.09702
1253.62460	0.09827
1251.69595	0.09965
1249.76730	0.10119
1247.83864	0.10287
1245.90999	0.10464
1243.98134	0.10639
1242.05269	0.10798
1240.12403	0.10929
1238.19538	0.11034
1236.26673	0.11114
1234.33807	0.11155
1232.40942	0.11143
1230.48077	0.11078
1228.55211	0.10968
1226.62346	0.10822
1224.69481	0.10640
1222.76615	0.10433
1220.83750	0.10218
1218.90885	0.10021
1216.98019	0.09857
1215.05154	0.09731
1213.12289	0.09650
1211.19423	0.09618
1209.26558	0.09626
1207.33693	0.09659
1205.40827	0.09699
1203.47962	0.09725
1201.55097	0.09716
1199.62231	0.09654
1197.69366	0.09531
1195.76501	0.09369
1193.83635	0.09207
1191.90770	0.09051
1189.97905	0.08888
1188.05039	0.08725
1186.12174	0.08578
1184.19309	0.08456
1182.26443	0.08361
1180.33578	0.08286
1178.40713	0.08219
1176.47848	0.08158
1174.54982	0.08110
1172.62117	0.08079
1170.69252	0.08065
1168.76386	0.08063
1166.83521	0.08057
1164.90656	0.08039
1162.97790	0.08022
1161.04925	0.08001
1159.12060	0.07952
1157.19194	0.07866
1155.26329	0.07751
1153.33464	0.07626
1151.40598	0.07500
1149.47733	0.07366
1147.54868	0.07227
1145.62002	0.07096
1143.69137	0.06980
1141.76272	0.06882
1139.83406	0.06804
1137.90541	0.06737
1135.97676	0.06672
1134.04810	0.06606
1132.11945	0.06542
1130.19080	0.06490
1128.26214	0.06460
1126.33349	0.06439
1124.40484	0.06413
1122.47618	0.06384
1120.54753	0.06357
1118.61888	0.06337
1116.69022	0.06339
1114.76157	0.06352
1112.83292	0.06358
1110.90427	0.06370
1108.97561	0.06405
1107.04696	0.06452
1105.11831	0.06495
1103.18965	0.06545
1101.26100	0.06614
1099.33235	0.06688
1097.40369	0.06746
1095.47504	0.06805
1093.54639	0.06895
1091.61773	0.07023
1089.68908	0.07169
1087.76043	0.07328
1085.83177	0.07506
1083.90312	0.07692
1081.97447	0.07838
1080.04581	0.07911
1078.11716	0.07917
1076.18851	0.07882
1074.25985	0.07823
1072.33120	0.07766
1070.40255	0.07730
1068.47389	0.07714
1066.54524	0.07712
1064.61659	0.07709
1062.68793	0.07691
1060.75928	0.07662
1058.83063	0.07624
1056.90197	0.07571
1054.97332	0.07508
1053.04467	0.07441
1051.11601	0.07372
1049.18736	0.07312
1047.25871	0.07268
1045.33005	0.07234
1043.40140	0.07197
1041.47275	0.07167
1039.54410	0.07178
1037.61544	0.07236
1035.68679	0.07310
1033.75814	0.07370
1031.82948	0.07392
1029.90083	0.07366
1027.97218	0.07303
1026.04352	0.07211
1024.11487	0.07091
1022.18622	0.06960
1020.25756	0.06843
1018.32891	0.06748
1016.40026	0.06667
1014.47160	0.06589
1012.54295	0.06506
1010.61430	0.06416
1008.68564	0.06312
1006.75699	0.06202
1004.82834	0.06101
1002.89968	0.06012
1000.97103	0.05929
999.04238	0.05847
997.11372	0.05763
995.18507	0.05683
993.25642	0.05608
991.32776	0.05536
989.39911	0.05468
987.47046	0.05405
985.54180	0.05351
983.61315	0.05314
981.68450	0.05302
979.75584	0.05311
977.82719	0.05326
975.89854	0.05335
973.96989	0.05340
972.04123	0.05336
970.11258	0.05304
968.18393	0.05245
966.25527	0.05189
964.32662	0.05149
962.39797	0.05115
960.46931	0.05087
958.54066	0.05060
956.61201	0.05020
954.68335	0.04971
952.75470	0.04926
950.82605	0.04887
948.89739	0.04865
946.96874	0.04870
945.04009	0.04887
943.11143	0.04903
941.18278	0.04926
939.25413	0.04945
937.32547	0.04945
935.39682	0.04929
933.46817	0.04906
931.53951	0.04884
929.61086	0.04870
927.68221	0.04867
925.75355	0.04875
923.82490	0.04887
921.89625	0.04892
919.96759	0.04885
918.03894	0.04862
916.11029	0.04824
914.18163	0.04785
912.25298	0.04758
910.32433	0.04742
908.39567	0.04726
906.46702	0.04696
904.53837	0.04650
902.60972	0.04607
900.68106	0.04588
898.75241	0.04578
896.82376	0.04547
894.89510	0.04494
892.96645	0.04447
891.03780	0.04425
889.10914	0.04426
887.18049	0.04430
885.25184	0.04435
883.32318	0.04451
881.39453	0.04473
879.46588	0.04496
877.53722	0.04518
875.60857	0.04530
873.67992	0.04523
871.75126	0.04489
869.82261	0.04448
867.89396	0.04431
865.96530	0.04436
864.03665	0.04434
862.10800	0.04405
860.17934	0.04373
858.25069	0.04371
856.32204	0.04393
854.39338	0.04416
852.46473	0.04423
850.53608	0.04415
848.60742	0.04406
846.67877	0.04403
844.75012	0.04401
842.82146	0.04389
840.89281	0.04367
838.96416	0.04344
837.03551	0.04328
835.10685	0.04320
833.17820	0.04320
831.24955	0.04334
829.32089	0.04367
827.39224	0.04409
825.46359	0.04447
823.53493	0.04467
821.60628	0.04486
819.67763	0.04531
817.74897	0.04593
815.82032	0.04641
813.89167	0.04664
811.96301	0.04674
810.03436	0.04687
808.10571	0.04707
806.17705	0.04732
804.24840	0.04759
802.31975	0.04785
800.39109	0.04805
798.46244	0.04822
796.53379	0.04844
794.60513	0.04865
792.67648	0.04873
790.74783	0.04878
788.81917	0.04898
786.89052	0.04935
784.96187	0.04974
783.03321	0.05006
781.10456	0.05024
779.17591	0.05030
777.24725	0.05038
775.31860	0.05055
773.38995	0.05083
771.46130	0.05121
769.53264	0.05157
767.60399	0.05182
765.67534	0.05211
763.74668	0.05241
761.81803	0.05262
759.88938	0.05292
757.96072	0.05338
756.03207	0.05390
754.10342	0.05430
752.17476	0.05461
750.24611	0.05512
748.31746	0.05570
746.38880	0.05591
744.46015	0.05592
742.53150	0.05613
740.60284	0.05655
738.67419	0.05705
736.74554	0.05755
734.81688	0.05789
732.88823	0.05801
730.95958	0.05801
729.03092	0.05815
727.10227	0.05863
725.17362	0.05935
723.24496	0.05991
721.31631	0.06042
719.38766	0.06083
717.45900	0.06127
715.53035	0.06174
713.60170	0.06216
711.67304	0.06260
709.74439	0.06305
707.81574	0.06350
705.88708	0.06398
703.95843	0.06445
702.02978	0.06484
700.10113	0.06516
698.17247	0.06547
696.24382	0.06578
694.31517	0.06599
692.38651	0.06608
690.45786	0.06622
688.52921	0.06640
686.60055	0.06669
684.67190	0.06699
682.74325	0.06730
680.81459	0.06763
678.88594	0.06786
676.95729	0.06811
675.02863	0.06843
673.09998	0.06883
671.17133	0.06918
669.24267	0.06942
667.31402	0.06959
665.38537	0.06985
663.45671	0.07014
661.52806	0.07037
659.59941	0.07057
657.67075	0.07076
655.74210	0.07099
653.81345	0.07130
651.88479	0.07169
649.95614	0.07193
648.02749	0.07196
646.09883	0.07197
644.17018	0.07212
642.24153	0.07224
640.31287	0.07225
638.38422	0.07224
636.45557	0.07224
634.52692	0.07227
632.59826	0.07231
630.66961	0.07241
628.74096	0.07239
626.81230	0.07176
624.88365	0.07048
622.95500	0.06959
621.02634	0.06975
619.09769	0.07049
617.16904	0.07126
615.24038	0.07109
613.31173	0.06932
611.38308	0.06706
609.45442	0.06622
607.52577	0.06695
605.59712	0.06819
603.66846	0.06973
601.73981	0.07141
599.81116	0.07264
597.88250	0.07312
595.95385	0.07316
594.02520	0.07324
592.09654	0.07361
590.16789	0.07405
588.23924	0.07432
586.31058	0.07443
584.38193	0.07446
582.45328	0.07427
580.52462	0.07379
578.59597	0.07347
576.66732	0.07378
574.73866	0.07453
572.81001	0.07521
570.88136	0.07544
568.95270	0.07534
567.02405	0.07537
565.09540	0.07559
563.16675	0.07579
561.23809	0.07604
559.30944	0.07624
557.38079	0.07623
555.45213	0.07617
553.52348	0.07615
551.59483	0.07618
549.66617	0.07625
547.73752	0.07618
545.80887	0.07588
543.88021	0.07558
541.95156	0.07538
540.02291	0.07510
538.09425	0.07497
536.16560	0.07522
534.23695	0.07555
532.30829	0.07571
530.37964	0.07576
528.45099	0.07571
526.52233	0.07543
524.59368	0.07500
522.66503	0.07468
520.73637	0.07447
518.80772	0.07417
516.87907	0.07378
514.95041	0.07340
513.02176	0.07311
511.09311	0.07297
509.16445	0.07278
507.23580	0.07232
505.30715	0.07186
503.37849	0.07175
501.44984	0.07167
499.52119	0.07127
497.59254	0.07069
495.66388	0.07023
493.73523	0.06996
491.80658	0.06969
489.87792	0.06917
487.94927	0.06852
486.02062	0.06805
484.09196	0.06779
482.16331	0.06757
480.23466	0.06732
478.30600	0.06698
476.37735	0.06650
474.44870	0.06606
472.52004	0.06577
470.59139	0.06547
468.66274	0.06508
466.73408	0.06470
464.80543	0.06421
462.87678	0.06354
460.94812	0.06290
459.01947	0.06234
457.09082	0.06176
455.16216	0.06122
453.23351	0.06076
451.30486	0.06037
449.37620	0.06002
447.44755	0.05965
445.51890	0.05924
443.59024	0.05891
441.66159	0.05864
439.73294	0.05822
437.80428	0.05772
435.87563	0.05737
433.94698	0.05710
432.01833	0.05667
430.08967	0.05613
428.16102	0.05574
426.23237	0.05545
424.30371	0.05513
422.37506	0.05482
420.44641	0.05462
418.51775	0.05438
416.58910	0.05401
414.66045	0.05366
412.73179	0.05338
410.80314	0.05320
408.87449	0.05310
406.94583	0.05292
405.01718	0.05258
403.08853	0.05218
401.15987	0.05179
399.23122	0.05138
