3996.16951	0.05254
3994.24086	0.05230
3992.31220	0.05208
3990.38355	0.05225
3988.45490	0.05276
3986.52624	0.05289
3984.59759	0.05241
3982.66894	0.05210
3980.74028	0.05238
3978.81163	0.05266
3976.88298	0.05222
3974.95432	0.05142
3973.02567	0.05104
3971.09702	0.05099
3969.16836	0.05094
3967.23971	0.05113
3965.31106	0.05155
3963.38240	0.05167
3961.45375	0.05145
3959.52510	0.05143
3957.59645	0.05180
3955.66779	0.05218
3953.73914	0.05227
3951.81049	0.05223
3949.88183	0.05196
3947.95318	0.05133
3946.02453	0.05075
3944.09587	0.05069
3942.16722	0.05091
3940.23857	0.05084
3938.30991	0.05032
3936.38126	0.04977
3934.45261	0.04956
3932.52395	0.04973
3930.59530	0.05006
3928.66665	0.05035
3926.73799	0.05045
3924.80934	0.05026
3922.88069	0.05006
3920.95203	0.05014
3919.02338	0.05026
3917.09473	0.05024
3915.16607	0.05029
3913.23742	0.05029
3911.30877	0.05010
3909.38011	0.05024
3907.45146	0.05072
3905.52281	0.05067
3903.59415	0.05003
3901.66550	0.04961
3899.73685	0.04934
3897.80819	0.04900
3895.87954	0.04896
3893.95089	0.04910
3892.02224	0.04908
3890.09358	0.04912
3888.16493	0.04927
3886.23628	0.04927
3884.30762	0.04900
3882.37897	0.04860
3880.45032	0.04815
3878.52166	0.04785
3876.59301	0.04779
3874.66436	0.04795
3872.73570	0.04843
3870.80705	0.04907
3868.87840	0.04945
3866.94974	0.04936
3865.02109	0.04902
3863.09244	0.04879
3861.16378	0.04858
3859.23513	0.04841
3857.30648	0.04867
3855.37782	0.04887
3853.44917	0.04822
3851.52052	0.04734
3849.59186	0.04725
3847.66321	0.04761
3845.73456	0.04749
3843.80590	0.04693
3841.87725	0.04668
3839.94860	0.04679
3838.01994	0.04669
3836.09129	0.04642
3834.16264	0.04653
3832.23398	0.04672
3830.30533	0.04648
3828.37668	0.04617
3826.44803	0.04603
3824.51937	0.04577
3822.59072	0.04557
3820.66207	0.04590
3818.73341	0.04653
3816.80476	0.04681
3814.87611	0.04672
3812.94745	0.04664
3811.01880	0.04657
3809.09015	0.04638
3807.16149	0.04624
3805.23284	0.04612
3803.30419	0.04569
3801.37553	0.04526
3799.44688	0.04539
3797.51823	0.04566
3795.58957	0.04539
3793.66092	0.04502
3791.73227	0.04530
3789.80361	0.04584
3787.87496	0.04609
3785.94631	0.04607
3784.01765	0.04557
3782.08900	0.04466
3780.16035	0.04409
3778.23169	0.04400
3776.30304	0.04411
3774.37439	0.04474
3772.44573	0.04569
3770.51708	0.04593
3768.58843	0.04551
3766.65977	0.04524
3764.73112	0.04498
3762.80247	0.04432
3760.87381	0.04362
3758.94516	0.04360
3757.01651	0.04422
3755.08786	0.04459
3753.15920	0.04448
3751.23055	0.04422
3749.30190	0.04394
3747.37324	0.04379
3745.44459	0.04343
3743.51594	0.04269
3741.58728	0.04245
3739.65863	0.04287
3737.72998	0.04322
3735.80132	0.04327
3733.87267	0.04299
3731.94402	0.04216
3730.01536	0.04131
3728.08671	0.04135
3726.15806	0.04211
3724.22940	0.04260
3722.30075	0.04256
3720.37210	0.04241
3718.44344	0.04235
3716.51479	0.04232
3714.58614	0.04182
3712.65748	0.04077
3710.72883	0.04029
3708.80018	0.04087
3706.87152	0.04182
3704.94287	0.04240
3703.01422	0.04219
3701.08556	0.04155
3699.15691	0.04121
3697.22826	0.04134
3695.29960	0.04162
3693.37095	0.04169
3691.44230	0.04140
3689.51365	0.04074
3687.58499	0.04003
3685.65634	0.03982
3683.72769	0.04032
3681.79903	0.04121
3679.87038	0.04189
3677.94173	0.04196
3676.01307	0.04139
3674.08442	0.04059
3672.15577	0.04000
3670.22711	0.03973
3668.29846	0.03998
3666.36981	0.04049
3664.44115	0.04051
3662.51250	0.04022
3660.58385	0.04042
3658.65519	0.04106
3656.72654	0.04138
3654.79789	0.04114
3652.86923	0.04095
3650.94058	0.04124
3649.01193	0.04174
3647.08327	0.04213
3645.15462	0.04248
3643.22597	0.04276
3641.29731	0.04296
3639.36866	0.04332
3637.44001	0.04365
3635.51135	0.04374
3633.58270	0.04384
3631.65405	0.04388
3629.72539	0.04373
3627.79674	0.04364
3625.86809	0.04392
3623.93943	0.04450
3622.01078	0.04518
3620.08213	0.04570
3618.15348	0.04598
3616.22482	0.04612
3614.29617	0.04633
3612.36752	0.04666
3610.43886	0.04683
3608.51021	0.04674
3606.58156	0.04674
3604.65290	0.04705
3602.72425	0.04765
3600.79560	0.04847
3598.86694	0.04915
3596.93829	0.04932
3595.00964	0.04931
3593.08098	0.04955
3591.15233	0.04985
3589.22368	0.04988
3587.29502	0.04990
3585.36637	0.05033
3583.43772	0.05127
3581.50906	0.05210
3579.58041	0.05242
3577.65176	0.05276
3575.72310	0.05346
3573.79445	0.05421
3571.86580	0.05465
3569.93714	0.05469
3568.00849	0.05460
3566.07984	0.05481
3564.15118	0.05552
3562.22253	0.05625
3560.29388	0.05641
3558.36522	0.05644
3556.43657	0.05693
3554.50792	0.05756
3552.57927	0.05799
3550.65061	0.05846
3548.72196	0.05903
3546.79331	0.05947
3544.86465	0.05991
3542.93600	0.06056
3541.00735	0.06107
3539.07869	0.06111
3537.15004	0.06104
3535.22139	0.06124
3533.29273	0.06164
3531.36408	0.06205
3529.43543	0.06252
3527.50677	0.06337
3525.57812	0.06433
3523.64947	0.06478
3521.72081	0.06481
3519.79216	0.06503
3517.86351	0.06572
3515.93485	0.06649
3514.00620	0.06694
3512.07755	0.06720
3510.14889	0.06758
3508.22024	0.06805
3506.29159	0.06856
3504.36293	0.06912
3502.43428	0.06957
3500.50563	0.06985
3498.57697	0.07002
3496.64832	0.07000
3494.71967	0.06996
3492.79101	0.07045
3490.86236	0.07146
3488.93371	0.07225
3487.00506	0.07242
3485.07640	0.07242
3483.14775	0.07252
3481.21910	0.07244
3479.29044	0.07227
3477.36179	0.07242
3475.43314	0.07293
3473.50448	0.07354
3471.57583	0.07392
3469.64718	0.07427
3467.71852	0.07503
3465.78987	0.07596
3463.86122	0.07643
3461.93256	0.07644
3460.00391	0.07647
3458.07526	0.07666
3456.14660	0.07689
3454.21795	0.07713
3452.28930	0.07753
3450.36064	0.07824
3448.43199	0.07894
3446.50334	0.07902
3444.57468	0.07854
3442.64603	0.07831
3440.71738	0.07859
3438.78872	0.07893
3436.86007	0.07920
3434.93142	0.07966
3433.00276	0.08051
3431.07411	0.08146
3429.14546	0.08172
3427.21680	0.08124
3425.28815	0.08099
3423.35950	0.08139
3421.43084	0.08195
3419.50219	0.08232
3417.57354	0.08276
3415.64489	0.08356
3413.71623	0.08433
3411.78758	0.08460
3409.85893	0.08470
3407.93027	0.08486
3406.00162	0.08491
3404.07297	0.08509
3402.14431	0.08543
3400.21566	0.08558
3398.28701	0.08563
3396.35835	0.08599
3394.42970	0.08658
3392.50105	0.08702
3390.57239	0.08722
3388.64374	0.08736
3386.71509	0.08745
3384.78643	0.08733
3382.85778	0.08737
3380.92913	0.08782
3379.00047	0.08828
3377.07182	0.08872
3375.14317	0.08947
3373.21451	0.09034
3371.28586	0.09090
3369.35721	0.09133
3367.42855	0.09187
3365.49990	0.09254
3363.57125	0.09319
3361.64259	0.09372
3359.71394	0.09423
3357.78529	0.09488
3355.85663	0.09561
3353.92798	0.09640
3351.99933	0.09720
3350.07068	0.09786
3348.14202	0.09834
3346.21337	0.09873
3344.28472	0.09927
3342.35606	0.10030
3340.42741	0.10153
3338.49876	0.10248
3336.57010	0.10322
3334.64145	0.10391
3332.71280	0.10455
3330.78414	0.10521
3328.85549	0.10592
3326.92684	0.10659
3324.99818	0.10697
3323.06953	0.10709
3321.14088	0.10740
3319.21222	0.10788
3317.28357	0.10818
3315.35492	0.10843
3313.42626	0.10878
3311.49761	0.10894
3309.56896	0.10898
3307.64030	0.10929
3305.71165	0.10982
3303.78300	0.11006
3301.85434	0.10986
3299.92569	0.10963
3297.99704	0.10961
3296.06838	0.10976
3294.13973	0.10995
3292.21108	0.10987
3290.28242	0.10953
3288.35377	0.10926
3286.42512	0.10913
3284.49646	0.10913
3282.56781	0.10931
3280.63916	0.10942
3278.71051	0.10912
3276.78185	0.10852
3274.85320	0.10799
3272.92455	0.10749
3270.99589	0.10686
3269.06724	0.10636
3267.13859	0.10631
3265.20993	0.10651
3263.28128	0.10646
3261.35263	0.10608
3259.42397	0.10568
3257.49532	0.10524
3255.56667	0.10432
3253.63801	0.10309
3251.70936	0.10231
3249.78071	0.10217
3247.85205	0.10217
3245.92340	0.10208
3243.99475	0.10193
3242.06609	0.10167
3240.13744	0.10136
3238.20879	0.10114
3236.28013	0.10084
3234.35148	0.10014
3232.42283	0.09931
3230.49417	0.09891
3228.56552	0.09900
3226.63687	0.09913
3224.70821	0.09895
3222.77956	0.09855
3220.85091	0.09833
3218.92225	0.09832
3216.99360	0.09813
3215.06495	0.09760
3213.13630	0.09703
3211.20764	0.09669
3209.27899	0.09637
3207.35034	0.09594
3205.42168	0.09557
3203.49303	0.09542
3201.56438	0.09547
3199.63572	0.09537
3197.70707	0.09488
3195.77842	0.09405
3193.84976	0.09300
3191.92111	0.09223
3189.99246	0.09221
3188.06380	0.09243
3186.13515	0.09224
3184.20650	0.09173
3182.27784	0.09122
3180.34919	0.09073
3178.42054	0.09012
3176.49188	0.08939
3174.56323	0.08881
3172.63458	0.08839
3170.70592	0.08776
3168.77727	0.08696
3166.84862	0.08632
3164.91996	0.08578
3162.99131	0.08523
3161.06266	0.08480
3159.13400	0.08448
3157.20535	0.08390
3155.27670	0.08303
3153.34804	0.08234
3151.41939	0.08194
3149.49074	0.08145
3147.56209	0.08084
3145.63343	0.08045
3143.70478	0.08016
3141.77613	0.07978
3139.84747	0.07947
3137.91882	0.07929
3135.99017	0.07896
3134.06151	0.07831
3132.13286	0.07772
3130.20421	0.07758
3128.27555	0.07773
3126.34690	0.07768
3124.41825	0.07718
3122.48959	0.07644
3120.56094	0.07600
3118.63229	0.07613
3116.70363	0.07651
3114.77498	0.07661
3112.84633	0.07642
3110.91767	0.07627
3108.98902	0.07616
3107.06037	0.07601
3105.13171	0.07605
3103.20306	0.07624
3101.27441	0.07623
3099.34575	0.07601
3097.41710	0.07589
3095.48845	0.07594
3093.55979	0.07604
3091.63114	0.07619
3089.70249	0.07644
3087.77383	0.07665
3085.84518	0.07673
3083.91653	0.07694
3081.98787	0.07748
3080.05922	0.07803
3078.13057	0.07826
3076.20192	0.07816
3074.27326	0.07782
3072.34461	0.07743
3070.41596	0.07736
3068.48730	0.07747
3066.55865	0.07742
3064.63000	0.07728
3062.70134	0.07704
3060.77269	0.07667
3058.84404	0.07643
3056.91538	0.07629
3054.98673	0.07598
3053.05808	0.07551
3051.12942	0.07506
3049.20077	0.07459
3047.27212	0.07406
3045.34346	0.07348
3043.41481	0.07293
3041.48616	0.07247
3039.55750	0.07193
3037.62885	0.07124
3035.70020	0.07068
3033.77154	0.07037
3031.84289	0.07005
3029.91424	0.06970
3027.98558	0.06958
3026.05693	0.06949
3024.12828	0.06906
3022.19962	0.06840
3020.27097	0.06776
3018.34232	0.06719
3016.41366	0.06676
3014.48501	0.06659
3012.55636	0.06660
3010.62771	0.06659
3008.69905	0.06651
3006.77040	0.06635
3004.84175	0.06608
3002.91309	0.06586
3000.98444	0.06597
2999.05579	0.06630
2997.12713	0.06646
2995.19848	0.06655
2993.26983	0.06676
2991.34117	0.06696
2989.41252	0.06708
2987.48387	0.06730
2985.55521	0.06761
2983.62656	0.06801
2981.69791	0.06855
2979.76925	0.06911
2977.84060	0.06941
2975.91195	0.06935
2973.98329	0.06930
2972.05464	0.06958
2970.12599	0.06995
2968.19733	0.07009
2966.26868	0.07020
2964.34003	0.07047
2962.41137	0.07083
2960.48272	0.07121
2958.55407	0.07149
2956.62541	0.07154
2954.69676	0.07143
2952.76811	0.07137
2950.83945	0.07135
2948.91080	0.07137
2946.98215	0.07157
2945.05349	0.07179
2943.12484	0.07196
2941.19619	0.07229
2939.26754	0.07271
2937.33888	0.07287
2935.41023	0.07257
2933.48158	0.07218
2931.55292	0.07201
2929.62427	0.07195
2927.69562	0.07194
2925.76696	0.07194
2923.83831	0.07170
2921.90966	0.07126
2919.98100	0.07092
2918.05235	0.07067
2916.12370	0.07015
2914.19504	0.06919
2912.26639	0.06821
2910.33774	0.06768
2908.40908	0.06735
2906.48043	0.06690
2904.55178	0.06635
2902.62312	0.06581
2900.69447	0.06543
2898.76582	0.06525
2896.83716	0.06508
2894.90851	0.06482
2892.97986	0.06445
2891.05120	0.06405
2889.12255	0.06390
2887.19390	0.06408
2885.26524	0.06416
2883.33659	0.06405
2881.40794	0.06410
2879.47928	0.06434
2877.55063	0.06445
2875.62198	0.06428
2873.69333	0.06390
2871.76467	0.06349
2869.83602	0.06317
2867.90737	0.06284
2865.97871	0.06242
2864.05006	0.06197
2862.12141	0.06143
2860.19275	0.06088
2858.26410	0.06058
2856.33545	0.06052
2854.40679	0.06056
2852.47814	0.06057
2850.54949	0.06027
2848.62083	0.05967
2846.69218	0.05912
2844.76353	0.05877
2842.83487	0.05843
2840.90622	0.05801
2838.97757	0.05757
2837.04891	0.05721
2835.12026	0.05697
2833.19161	0.05678
2831.26295	0.05649
2829.33430	0.05609
2827.40565	0.05571
2825.47699	0.05547
2823.54834	0.05530
2821.61969	0.05510
2819.69103	0.05488
2817.76238	0.05475
2815.83373	0.05474
2813.90507	0.05469
2811.97642	0.05460
2810.04777	0.05445
2808.11912	0.05419
2806.19046	0.05390
2804.26181	0.05376
2802.33316	0.05380
2800.40450	0.05391
2798.47585	0.05384
2796.54720	0.05344
2794.61854	0.05287
2792.68989	0.05258
2790.76124	0.05261
2788.83258	0.05264
2786.90393	0.05242
2784.97528	0.05205
2783.04662	0.05179
2781.11797	0.05168
2779.18932	0.05156
2777.26066	0.05144
2775.33201	0.05144
2773.40336	0.05146
2771.47470	0.05129
2769.54605	0.05099
2767.61740	0.05073
2765.68874	0.05054
2763.76009	0.05047
2761.83144	0.05048
2759.90278	0.05042
2757.97413	0.05025
2756.04548	0.04997
2754.11682	0.04982
2752.18817	0.04988
2750.25952	0.04992
2748.33086	0.04981
2746.40221	0.04970
2744.47356	0.04955
2742.54490	0.04916
2740.61625	0.04869
2738.68760	0.04849
2736.75895	0.04851
2734.83029	0.04844
2732.90164	0.04828
2730.97299	0.04817
2729.04433	0.04803
2727.11568	0.04786
2725.18703	0.04778
2723.25837	0.04776
2721.32972	0.04779
2719.40107	0.04775
2717.47241	0.04744
2715.54376	0.04706
2713.61511	0.04692
2711.68645	0.04699
2709.75780	0.04705
2707.82915	0.04697
2705.90049	0.04671
2703.97184	0.04636
2702.04319	0.04616
2700.11453	0.04621
2698.18588	0.04634
2696.25723	0.04629
2694.32857	0.04599
2692.39992	0.04565
2690.47127	0.04554
2688.54261	0.04561
2686.61396	0.04565
2684.68531	0.04560
2682.75665	0.04550
2680.82800	0.04534
2678.89935	0.04513
2676.97069	0.04491
2675.04204	0.04486
2673.11339	0.04500
2671.18474	0.04506
2669.25608	0.04480
2667.32743	0.04450
2665.39878	0.04445
2663.47012	0.04452
2661.54147	0.04453
2659.61282	0.04444
2657.68416	0.04424
2655.75551	0.04403
2653.82686	0.04391
2651.89820	0.04379
2649.96955	0.04350
2648.04090	0.04304
2646.11224	0.04271
2644.18359	0.04256
2642.25494	0.04241
2640.32628	0.04226
2638.39763	0.04209
2636.46898	0.04177
2634.54032	0.04141
2632.61167	0.04116
2630.68302	0.04097
2628.75436	0.04077
2626.82571	0.04057
2624.89706	0.04053
2622.96840	0.04073
2621.03975	0.04080
2619.11110	0.04051
2617.18244	0.04011
2615.25379	0.03975
2613.32514	0.03941
2611.39648	0.03920
2609.46783	0.03900
2607.53918	0.03858
2605.61052	0.03818
2603.68187	0.03816
2601.75322	0.03842
2599.82457	0.03854
2597.89591	0.03837
2595.96726	0.03819
2594.03861	0.03814
2592.10995	0.03799
2590.18130	0.03758
2588.25265	0.03708
2586.32399	0.03670
2584.39534	0.03645
2582.46669	0.03633
2580.53803	0.03633
2578.60938	0.03622
2576.68073	0.03599
2574.75207	0.03586
2572.82342	0.03595
2570.89477	0.03620
2568.96611	0.03624
2567.03746	0.03596
2565.10881	0.03566
2563.18015	0.03550
2561.25150	0.03528
2559.32285	0.03495
2557.39419	0.03485
2555.46554	0.03503
2553.53689	0.03515
2551.60823	0.03504
2549.67958	0.03483
2547.75093	0.03459
2545.82227	0.03438
2543.89362	0.03434
2541.96497	0.03446
2540.03631	0.03452
2538.10766	0.03423
2536.17901	0.03371
2534.25036	0.03340
2532.32170	0.03348
2530.39305	0.03367
2528.46440	0.03353
2526.53574	0.03305
2524.60709	0.03272
2522.67844	0.03283
2520.74978	0.03300
2518.82113	0.03290
2516.89248	0.03260
2514.96382	0.03232
2513.03517	0.03222
2511.10652	0.03231
2509.17786	0.03261
2507.24921	0.03282
2505.32056	0.03255
2503.39190	0.03237
2501.46325	0.03269
2499.53460	0.03282
2497.60594	0.03245
2495.67729	0.03217
2493.74864	0.03240
2491.81998	0.03263
2489.89133	0.03222
2487.96268	0.03168
2486.03402	0.03168
2484.10537	0.03190
2482.17672	0.03184
2480.24806	0.03161
2478.31941	0.03145
2476.39076	0.03146
2474.46210	0.03150
2472.53345	0.03141
2470.60480	0.03143
2468.67615	0.03164
2466.74749	0.03159
2464.81884	0.03143
2462.89019	0.03153
2460.96153	0.03150
2459.03288	0.03108
2457.10423	0.03061
2455.17557	0.03035
2453.24692	0.03024
2451.31827	0.03026
2449.38961	0.03033
2447.46096	0.03023
2445.53231	0.03007
2443.60365	0.03012
2441.67500	0.03039
2439.74635	0.03076
2437.81769	0.03098
2435.88904	0.03093
2433.96039	0.03088
2432.03173	0.03084
2430.10308	0.03060
2428.17443	0.03028
2426.24577	0.02999
2424.31712	0.02977
2422.38847	0.02985
2420.45981	0.03014
2418.53116	0.03042
2416.60251	0.03062
2414.67385	0.03046
2412.74520	0.03007
2410.81655	0.02991
2408.88789	0.02995
2406.95924	0.02988
2405.03059	0.02975
2403.10193	0.02984
2401.17328	0.03013
2399.24463	0.03032
2397.31598	0.03018
2395.38732	0.03003
2393.45867	0.03009
2391.53002	0.03023
2389.60136	0.03030
2387.67271	0.03037
2385.74406	0.03035
2383.81540	0.03019
2381.88675	0.03016
2379.95810	0.03042
2378.02944	0.03071
2376.10079	0.03093
2374.17214	0.03113
2372.24348	0.03120
2370.31483	0.03093
2368.38618	0.03152
2366.45752	0.03155
2364.52887	0.03151
2362.60022	0.03096
2360.67156	0.03140
2358.74291	0.03102
2356.81426	0.03191
2354.88560	0.03153
2352.95695	0.03095
2351.02830	0.03092
2349.09964	0.03084
2347.17099	0.03111
2345.24234	0.03162
2343.31368	0.03172
2341.38503	0.03117
2339.45638	0.03095
2337.52772	0.03120
2335.59907	0.03148
2333.67042	0.03143
2331.74177	0.03114
2329.81311	0.03093
2327.88446	0.03086
2325.95581	0.03068
2324.02715	0.03053
2322.09850	0.03047
2320.16985	0.03045
2318.24119	0.03009
2316.31254	0.02952
2314.38389	0.02910
2312.45523	0.02904
2310.52658	0.02912
2308.59793	0.02910
2306.66927	0.02895
2304.74062	0.02870
2302.81197	0.02827
2300.88331	0.02789
2298.95466	0.02779
2297.02601	0.02766
2295.09735	0.02725
2293.16870	0.02670
2291.24005	0.02629
2289.31139	0.02596
2287.38274	0.02551
2285.45409	0.02507
2283.52543	0.02494
2281.59678	0.02524
2279.66813	0.02555
2277.73947	0.02532
2275.81082	0.02476
2273.88217	0.02442
2271.95351	0.02449
2270.02486	0.02474
2268.09621	0.02454
2266.16755	0.02379
2264.23890	0.02335
2262.31025	0.02356
2260.38160	0.02375
2258.45294	0.02346
2256.52429	0.02295
2254.59564	0.02239
2252.66698	0.02194
2250.73833	0.02187
2248.80968	0.02205
2246.88102	0.02186
2244.95237	0.02165
2243.02372	0.02147
2241.09506	0.02083
2239.16641	0.01981
2237.23776	0.01923
2235.30910	0.01955
2233.38045	0.02029
2231.45180	0.02079
2229.52314	0.02101
2227.59449	0.02119
2225.66584	0.02116
2223.73718	0.02074
2221.80853	0.02014
2219.87988	0.01975
2217.95122	0.01984
2216.02257	0.01986
2214.09392	0.01881
2212.16526	0.01710
2210.23661	0.01616
2208.30796	0.01650
2206.37930	0.01703
2204.45065	0.01671
2202.52200	0.01630
2200.59334	0.01663
2198.66469	0.01672
2196.73604	0.01601
2194.80739	0.01552
2192.87873	0.01609
2190.95008	0.01667
2189.02143	0.01649
2187.09277	0.01663
2185.16412	0.01692
2183.23547	0.01624
2181.30681	0.01540
2179.37816	0.01531
2177.44951	0.01530
2175.52085	0.01474
2173.59220	0.01379
2171.66355	0.01282
2169.73489	0.01208
2167.80624	0.01179
2165.87759	0.01161
2163.94893	0.01088
2162.02028	0.00990
2160.09163	0.00945
2158.16297	0.00966
2156.23432	0.01035
2154.30567	0.01110
2152.37701	0.01155
2150.44836	0.01229
2148.51971	0.01340
2146.59105	0.01404
2144.66240	0.01458
2142.73375	0.01574
2140.80509	0.01684
2138.87644	0.01710
2136.94779	0.01687
2135.01913	0.01666
2133.09048	0.01645
2131.16183	0.01647
2129.23318	0.01704
2127.30452	0.01798
2125.37587	0.01881
2123.44722	0.01918
2121.51856	0.01916
2119.58991	0.01916
2117.66126	0.01927
2115.73260	0.01928
2113.80395	0.01925
2111.87530	0.01925
2109.94664	0.01910
2108.01799	0.01888
2106.08934	0.01876
2104.16068	0.01874
2102.23203	0.01866
2100.30338	0.01838
2098.37472	0.01776
2096.44607	0.01776
2094.51742	0.01855
2092.58876	0.01921
2090.66011	0.01918
2088.73146	0.01873
2086.80280	0.01814
2084.87415	0.01784
2082.94550	0.01766
2081.01684	0.01702
2079.08819	0.01607
2077.15954	0.01566
2075.23088	0.01574
2073.30223	0.01545
2071.37358	0.01468
2069.44492	0.01393
2067.51627	0.01358
2065.58762	0.01382
2063.65896	0.01456
2061.73031	0.01537
2059.80166	0.01601
2057.87301	0.01646
2055.94435	0.01668
2054.01570	0.01668
2052.08705	0.01634
2050.15839	0.01523
2048.22974	0.01352
2046.30109	0.01241
2044.37243	0.01217
2042.44378	0.01193
2040.51513	0.01154
2038.58647	0.01116
2036.65782	0.01084
2034.72917	0.01067
2032.80051	0.01044
2030.87186	0.01027
2028.94321	0.01032
2027.01455	0.01036
2025.08590	0.01020
2023.15725	0.00953
2021.22859	0.00887
2019.29994	0.00933
2017.37129	0.01064
2015.44263	0.01176
2013.51398	0.01234
2011.58533	0.01229
2009.65667	0.01157
2007.72802	0.01057
2005.79937	0.01012
2003.87071	0.01064
2001.94206	0.01152
2000.01341	0.01202
1998.08475	0.01238
1996.15610	0.01274
1994.22745	0.01285
1992.29880	0.01290
1990.37014	0.01303
1988.44149	0.01301
1986.51284	0.01299
1984.58418	0.01319
1982.65553	0.01308
1980.72688	0.01195
1978.79822	0.01026
1976.86957	0.00944
1974.94092	0.00943
1973.01226	0.00909
1971.08361	0.00886
1969.15496	0.00966
1967.22630	0.01094
1965.29765	0.01195
1963.36900	0.01275
1961.44034	0.01329
1959.51169	0.01322
1957.58304	0.01276
1955.65438	0.01255
1953.72573	0.01276
1951.79708	0.01308
1949.86842	0.01318
1947.93977	0.01302
1946.01112	0.01323
1944.08246	0.01395
1942.15381	0.01454
1940.22516	0.01483
1938.29650	0.01495
1936.36785	0.01474
1934.43920	0.01445
1932.51054	0.01446
1930.58189	0.01445
1928.65324	0.01431
1926.72458	0.01438
1924.79593	0.01461
1922.86728	0.01488
1920.93863	0.01515
1919.00997	0.01524
1917.08132	0.01520
1915.15267	0.01507
1913.22401	0.01487
1911.29536	0.01499
1909.36671	0.01541
1907.43805	0.01568
1905.50940	0.01569
1903.58075	0.01563
1901.65209	0.01553
1899.72344	0.01529
1897.79479	0.01506
1895.86613	0.01506
1893.93748	0.01526
1892.00883	0.01556
1890.08017	0.01596
1888.15152	0.01629
1886.22287	0.01628
1884.29421	0.01593
1882.36556	0.01550
1880.43691	0.01526
1878.50825	0.01527
1876.57960	0.01536
1874.65095	0.01536
1872.72229	0.01532
1870.79364	0.01532
1868.86499	0.01530
1866.93633	0.01536
1865.00768	0.01549
1863.07903	0.01555
1861.15037	0.01547
1859.22172	0.01532
1857.29307	0.01531
1855.36442	0.01556
1853.43576	0.01568
1851.50711	0.01537
1849.57846	0.01504
1847.64980	0.01512
1845.72115	0.01549
1843.79250	0.01597
1841.86384	0.01627
1839.93519	0.01613
1838.00654	0.01580
1836.07788	0.01566
1834.14923	0.01559
1832.22058	0.01535
1830.29192	0.01521
1828.36327	0.01537
1826.43462	0.01547
1824.50596	0.01518
1822.57731	0.01476
1820.64866	0.01454
1818.72000	0.01459
1816.79135	0.01490
1814.86270	0.01535
1812.93404	0.01569
1811.00539	0.01576
1809.07674	0.01557
1807.14808	0.01537
1805.21943	0.01535
1803.29078	0.01536
1801.36212	0.01526
1799.43347	0.01516
1797.50482	0.01516
1795.57616	0.01523
1793.64751	0.01520
1791.71886	0.01510
1789.79021	0.01507
1787.86155	0.01507
1785.93290	0.01500
1784.00425	0.01497
1782.07559	0.01500
1780.14694	0.01495
1778.21829	0.01487
1776.28963	0.01484
1774.36098	0.01488
1772.43233	0.01490
1770.50367	0.01488
1768.57502	0.01484
1766.64637	0.01482
1764.71771	0.01481
1762.78906	0.01484
1760.86041	0.01489
1758.93175	0.01498
1757.00310	0.01511
1755.07445	0.01526
1753.14579	0.01537
1751.21714	0.01545
1749.28849	0.01559
1747.35983	0.01589
1745.43118	0.01628
1743.50253	0.01667
1741.57387	0.01702
1739.64522	0.01731
1737.71657	0.01757
1735.78791	0.01786
1733.85926	0.01815
1731.93061	0.01839
1730.00195	0.01868
1728.07330	0.01913
1726.14465	0.01963
1724.21599	0.02002
1722.28734	0.02037
1720.35869	0.02078
1718.43004	0.02118
1716.50138	0.02160
1714.57273	0.02220
1712.64408	0.02302
1710.71542	0.02408
1708.78677	0.02540
1706.85812	0.02704
1704.92946	0.02900
1703.00081	0.03126
1701.07216	0.03374
1699.14350	0.03640
1697.21485	0.03924
1695.28620	0.04217
1693.35754	0.04512
1691.42889	0.04819
1689.50024	0.05150
1687.57158	0.05491
1685.64293	0.05831
1683.71428	0.06187
1681.78562	0.06585
1679.85697	0.07032
1677.92832	0.07512
1675.99966	0.08004
1674.07101	0.08502
1672.14236	0.09014
1670.21370	0.09544
1668.28505	0.10083
1666.35640	0.10613
1664.42774	0.11121
1662.49909	0.11602
1660.57044	0.12045
1658.64178	0.12442
1656.71313	0.12786
1654.78448	0.13068
1652.85583	0.13291
1650.92717	0.13478
1648.99852	0.13646
1647.06987	0.13794
1645.14121	0.13928
1643.21256	0.14051
1641.28391	0.14164
1639.35525	0.14263
1637.42660	0.14335
1635.49795	0.14373
1633.56929	0.14374
1631.64064	0.14332
1629.71199	0.14215
1627.78333	0.14000
1625.85468	0.13681
1623.92603	0.13272
1621.99737	0.12798
1620.06872	0.12293
1618.14007	0.11768
1616.21141	0.11229
1614.28276	0.10701
1612.35411	0.10196
1610.42545	0.09714
1608.49680	0.09266
1606.56815	0.08851
1604.63949	0.08465
1602.71084	0.08118
1600.78219	0.07814
1598.85353	0.07543
1596.92488	0.07305
1594.99623	0.07105
1593.06757	0.06945
1591.13892	0.06830
1589.21027	0.06755
1587.28161	0.06708
1585.35296	0.06688
1583.42431	0.06698
1581.49566	0.06745
1579.56700	0.06835
1577.63835	0.06964
1575.70970	0.07127
1573.78104	0.07330
1571.85239	0.07576
1569.92374	0.07858
1567.99508	0.08163
1566.06643	0.08483
1564.13778	0.08819
1562.20912	0.09155
1560.28047	0.09478
1558.35182	0.09788
1556.42316	0.10084
1554.49451	0.10350
1552.56586	0.10567
1550.63720	0.10731
1548.70855	0.10861
1546.77990	0.10965
1544.85124	0.11037
1542.92259	0.11062
1540.99394	0.11036
1539.06528	0.10981
1537.13663	0.10926
1535.20798	0.10863
1533.27932	0.10779
1531.35067	0.10676
1529.42202	0.10557
1527.49336	0.10418
1525.56471	0.10258
1523.63606	0.10086
1521.70740	0.09912
1519.77875	0.09737
1517.85010	0.09558
1515.92145	0.09361
1513.99279	0.09137
1512.06414	0.08889
1510.13549	0.08624
1508.20683	0.08332
1506.27818	0.08013
1504.34953	0.07701
1502.42087	0.07416
1500.49222	0.07144
1498.56357	0.06872
1496.63491	0.06602
1494.70626	0.06344
1492.77761	0.06108
1490.84895	0.05896
1488.92030	0.05711
1486.99165	0.05560
1485.06299	0.05451
1483.13434	0.05385
1481.20569	0.05360
1479.27703	0.05373
1477.34838	0.05419
1475.41973	0.05505
1473.49107	0.05623
1471.56242	0.05760
1469.63377	0.05912
1467.70511	0.06075
1465.77646	0.06241
1463.84781	0.06415
1461.91915	0.06600
1459.99050	0.06787
1458.06185	0.06959
1456.13319	0.07100
1454.20454	0.07205
1452.27589	0.07271
1450.34724	0.07290
1448.41858	0.07262
1446.48993	0.07203
1444.56128	0.07124
1442.63262	0.07031
1440.70397	0.06925
1438.77532	0.06802
1436.84666	0.06653
1434.91801	0.06485
1432.98936	0.06321
1431.06070	0.06182
1429.13205	0.06079
1427.20340	0.06010
1425.27474	0.05971
1423.34609	0.05957
1421.41744	0.05954
1419.48878	0.05946
1417.56013	0.05935
1415.63148	0.05939
1413.70282	0.05961
1411.77417	0.05993
1409.84552	0.06037
1407.91686	0.06097
1405.98821	0.06157
1404.05956	0.06198
1402.13090	0.06206
1400.20225	0.06192
1398.27360	0.06172
1396.34494	0.06143
1394.41629	0.06107
1392.48764	0.06083
1390.55898	0.06069
1388.63033	0.06048
1386.70168	0.06022
1384.77302	0.05994
1382.84437	0.05959
1380.91572	0.05918
1378.98707	0.05875
1377.05841	0.05826
1375.12976	0.05761
1373.20111	0.05682
1371.27245	0.05591
1369.34380	0.05489
1367.41515	0.05383
1365.48649	0.05282
1363.55784	0.05191
1361.62919	0.05117
1359.70053	0.05063
1357.77188	0.05032
1355.84323	0.05038
1353.91457	0.05074
1351.98592	0.05125
1350.05727	0.05190
1348.12861	0.05276
1346.19996	0.05379
1344.27131	0.05478
1342.34265	0.05568
1340.41400	0.05643
1338.48535	0.05692
1336.55669	0.05707
1334.62804	0.05688
1332.69939	0.05630
1330.77073	0.05540
1328.84208	0.05442
1326.91343	0.05359
1324.98477	0.05292
1323.05612	0.05237
1321.12747	0.05196
1319.19881	0.05172
1317.27016	0.05155
1315.34151	0.05134
1313.41286	0.05104
1311.48420	0.05066
1309.55555	0.05024
1307.62690	0.04983
1305.69824	0.04946
1303.76959	0.04922
1301.84094	0.04906
1299.91228	0.04888
1297.98363	0.04873
1296.05498	0.04877
1294.12632	0.04903
1292.19767	0.04952
1290.26902	0.05023
1288.34036	0.05103
1286.41171	0.05178
1284.48306	0.05247
1282.55440	0.05306
1280.62575	0.05348
1278.69710	0.05365
1276.76844	0.05364
1274.83979	0.05360
1272.91114	0.05367
1270.98248	0.05383
1269.05383	0.05407
1267.12518	0.05444
1265.19652	0.05493
1263.26787	0.05546
1261.33922	0.05603
1259.41056	0.05673
1257.48191	0.05759
1255.55326	0.05857
1253.62460	0.05963
1251.69595	0.06071
1249.76730	0.06186
1247.83864	0.06310
1245.90999	0.06437
1243.98134	0.06557
1242.05269	0.06669
1240.12403	0.06770
1238.19538	0.06838
1236.26673	0.06867
1234.33807	0.06864
1232.40942	0.06823
1230.48077	0.06739
1228.55211	0.06619
1226.62346	0.06470
1224.69481	0.06293
1222.76615	0.06106
1220.83750	0.05936
1218.90885	0.05802
1216.98019	0.05706
1215.05154	0.05642
1213.12289	0.05605
1211.19423	0.05599
1209.26558	0.05619
1207.33693	0.05653
1205.40827	0.05684
1203.47962	0.05696
1201.55097	0.05671
1199.62231	0.05618
1197.69366	0.05515
1195.76501	0.05394
1193.83635	0.05270
1191.90770	0.05151
1189.97905	0.05033
1188.05039	0.04926
1186.12174	0.04845
1184.19309	0.04785
1182.26443	0.04732
1180.33578	0.04689
1178.40713	0.04659
1176.47848	0.04642
1174.54982	0.04634
1172.62117	0.04625
1170.69252	0.04608
1168.76386	0.04589
1166.83521	0.04579
1164.90656	0.04581
1162.97790	0.04587
1161.04925	0.04579
1159.12060	0.04539
1157.19194	0.04474
1155.26329	0.04406
1153.33464	0.04331
1151.40598	0.04241
1149.47733	0.04144
1147.54868	0.04061
1145.62002	0.04002
1143.69137	0.03957
1141.76272	0.03912
1139.83406	0.03866
1137.90541	0.03826
1135.97676	0.03797
1134.04810	0.03784
1132.11945	0.03777
1130.19080	0.03764
1128.26214	0.03752
1126.33349	0.03745
1124.40484	0.03735
1122.47618	0.03724
1120.54753	0.03709
1118.61888	0.03693
1116.69022	0.03688
1114.76157	0.03689
1112.83292	0.03687
1110.90427	0.03693
1108.97561	0.03717
1107.04696	0.03747
1105.11831	0.03774
1103.18965	0.03807
1101.26100	0.03851
1099.33235	0.03902
1097.40369	0.03956
1095.47504	0.04010
1093.54639	0.04073
1091.61773	0.04156
1089.68908	0.04259
1087.76043	0.04367
1085.83177	0.04474
1083.90312	0.04571
1081.97447	0.04643
1080.04581	0.04678
1078.11716	0.04681
1076.18851	0.04651
1074.25985	0.04599
1072.33120	0.04550
1070.40255	0.04519
1068.47389	0.04502
1066.54524	0.04497
1064.61659	0.04500
1062.68793	0.04498
1060.75928	0.04481
1058.83063	0.04456
1056.90197	0.04422
1054.97332	0.04376
1053.04467	0.04329
1051.11601	0.04283
1049.18736	0.04235
1047.25871	0.04193
1045.33005	0.04169
1043.40140	0.04154
1041.47275	0.04148
1039.54410	0.04167
1037.61544	0.04206
1035.68679	0.04246
1033.75814	0.04278
1031.82948	0.04287
1029.90083	0.04257
1027.97218	0.04192
1026.04352	0.04109
1024.11487	0.04023
1022.18622	0.03940
1020.25756	0.03865
1018.32891	0.03810
1016.40026	0.03768
1014.47160	0.03721
1012.54295	0.03664
1010.61430	0.03606
1008.68564	0.03547
1006.75699	0.03486
1004.82834	0.03430
1002.89968	0.03382
1000.97103	0.03334
999.04238	0.03285
997.11372	0.03245
995.18507	0.03217
993.25642	0.03189
991.32776	0.03150
989.39911	0.03109
987.47046	0.03083
985.54180	0.03067
983.61315	0.03052
981.68450	0.03042
979.75584	0.03046
977.82719	0.03057
975.89854	0.03064
973.96989	0.03070
972.04123	0.03071
970.11258	0.03055
968.18393	0.03022
966.25527	0.02993
964.32662	0.02965
962.39797	0.02933
960.46931	0.02907
958.54066	0.02892
956.61201	0.02881
954.68335	0.02862
952.75470	0.02842
950.82605	0.02838
948.89739	0.02845
946.96874	0.02852
945.04009	0.02861
943.11143	0.02877
941.18278	0.02890
939.25413	0.02882
937.32547	0.02857
935.39682	0.02841
933.46817	0.02847
931.53951	0.02860
929.61086	0.02862
927.68221	0.02853
925.75355	0.02846
923.82490	0.02848
921.89625	0.02851
919.96759	0.02843
918.03894	0.02823
916.11029	0.02802
914.18163	0.02792
912.25298	0.02786
910.32433	0.02765
908.39567	0.02730
906.46702	0.02699
904.53837	0.02680
902.60972	0.02671
900.68106	0.02666
898.75241	0.02660
896.82376	0.02652
894.89510	0.02646
892.96645	0.02645
891.03780	0.02645
889.10914	0.02633
887.18049	0.02615
885.25184	0.02604
883.32318	0.02611
881.39453	0.02633
879.46588	0.02648
877.53722	0.02651
875.60857	0.02658
873.67992	0.02668
871.75126	0.02659
869.82261	0.02637
867.89396	0.02620
865.96530	0.02604
864.03665	0.02590
862.10800	0.02593
860.17934	0.02602
858.25069	0.02605
856.32204	0.02605
854.39338	0.02607
852.46473	0.02614
850.53608	0.02616
848.60742	0.02607
846.67877	0.02606
844.75012	0.02618
842.82146	0.02623
840.89281	0.02609
838.96416	0.02594
837.03551	0.02591
835.10685	0.02593
833.17820	0.02592
831.24955	0.02598
829.32089	0.02614
827.39224	0.02625
825.46359	0.02631
823.53493	0.02646
821.60628	0.02681
819.67763	0.02725
817.74897	0.02763
815.82032	0.02784
813.89167	0.02788
811.96301	0.02787
810.03436	0.02792
808.10571	0.02808
806.17705	0.02835
804.24840	0.02864
802.31975	0.02884
800.39109	0.02893
798.46244	0.02907
796.53379	0.02936
794.60513	0.02960
792.67648	0.02973
790.74783	0.02987
788.81917	0.03000
786.89052	0.03015
784.96187	0.03042
783.03321	0.03077
781.10456	0.03111
779.17591	0.03133
777.24725	0.03143
775.31860	0.03152
773.38995	0.03178
771.46130	0.03222
769.53264	0.03264
767.60399	0.03290
765.67534	0.03311
763.74668	0.03333
761.81803	0.03346
759.88938	0.03356
757.96072	0.03374
756.03207	0.03402
754.10342	0.03447
752.17476	0.03491
750.24611	0.03522
748.31746	0.03543
746.38880	0.03559
744.46015	0.03575
742.53150	0.03599
740.60284	0.03626
738.67419	0.03653
736.74554	0.03680
734.81688	0.03714
732.88823	0.03753
730.95958	0.03788
729.03092	0.03823
727.10227	0.03853
725.17362	0.03871
723.24496	0.03887
721.31631	0.03915
719.38766	0.03949
717.45900	0.03980
715.53035	0.03995
713.60170	0.04003
711.67304	0.04025
709.74439	0.04063
707.81574	0.04106
705.88708	0.04144
703.95843	0.04177
702.02978	0.04206
700.10113	0.04229
698.17247	0.04252
696.24382	0.04275
694.31517	0.04289
692.38651	0.04299
690.45786	0.04317
688.52921	0.04339
686.60055	0.04357
684.67190	0.04371
682.74325	0.04386
680.81459	0.04408
678.88594	0.04432
676.95729	0.04449
675.02863	0.04464
673.09998	0.04489
671.17133	0.04524
669.24267	0.04557
667.31402	0.04576
665.38537	0.04590
663.45671	0.04613
661.52806	0.04635
659.59941	0.04649
657.67075	0.04664
655.74210	0.04680
653.81345	0.04683
651.88479	0.04679
649.95614	0.04688
648.02749	0.04714
646.09883	0.04737
644.17018	0.04734
642.24153	0.04716
640.31287	0.04717
638.38422	0.04737
636.45557	0.04755
634.52692	0.04765
632.59826	0.04765
630.66961	0.04806
628.74096	0.05010
626.81230	0.04836
624.88365	0.04559
622.95500	0.04383
621.02634	0.04404
619.09769	0.04597
617.16904	0.04913
615.24038	0.05191
613.31173	0.05224
611.38308	0.05041
609.45442	0.04831
607.52577	0.04645
605.59712	0.04524
603.66846	0.04576
601.73981	0.04717
599.81116	0.04798
597.88250	0.04819
595.95385	0.04800
594.02520	0.04762
592.09654	0.04771
590.16789	0.04828
588.23924	0.04854
586.31058	0.04827
584.38193	0.04801
582.45328	0.04791
580.52462	0.04782
578.59597	0.04776
576.66732	0.04788
574.73866	0.04821
572.81001	0.04850
570.88136	0.04838
568.95270	0.04794
567.02405	0.04776
565.09540	0.04799
563.16675	0.04835
561.23809	0.04864
559.30944	0.04873
557.38079	0.04865
555.45213	0.04860
553.52348	0.04861
551.59483	0.04856
549.66617	0.04846
547.73752	0.04842
545.80887	0.04837
543.88021	0.04820
541.95156	0.04806
540.02291	0.04803
538.09425	0.04797
536.16560	0.04773
534.23695	0.04753
532.30829	0.04755
530.37964	0.04766
528.45099	0.04772
526.52233	0.04761
524.59368	0.04730
522.66503	0.04696
520.73637	0.04665
518.80772	0.04640
516.87907	0.04614
514.95041	0.04579
513.02176	0.04548
511.09311	0.04521
509.16445	0.04486
507.23580	0.04448
505.30715	0.04418
503.37849	0.04395
501.44984	0.04388
499.52119	0.04393
497.59254	0.04372
495.66388	0.04317
493.73523	0.04265
491.80658	0.04235
489.87792	0.04203
487.94927	0.04153
486.02062	0.04102
484.09196	0.04068
482.16331	0.04038
480.23466	0.04006
478.30600	0.03988
476.37735	0.03978
474.44870	0.03947
472.52004	0.03897
470.59139	0.03851
468.66274	0.03818
466.73408	0.03801
464.80543	0.03785
462.87678	0.03749
460.94812	0.03701
459.01947	0.03657
457.09082	0.03622
455.16216	0.03593
453.23351	0.03558
451.30486	0.03519
449.37620	0.03492
447.44755	0.03481
445.51890	0.03466
443.59024	0.03437
441.66159	0.03399
439.73294	0.03365
437.80428	0.03337
435.87563	0.03312
433.94698	0.03296
432.01833	0.03289
430.08967	0.03279
428.16102	0.03256
426.23237	0.03225
424.30371	0.03192
422.37506	0.03159
420.44641	0.03129
418.51775	0.03106
416.58910	0.03085
414.66045	0.03064
412.73179	0.03047
410.80314	0.03038
408.87449	0.03030
406.94583	0.03013
405.01718	0.02986
403.08853	0.02961
401.15987	0.02947
399.23122	0.02932
