3996.16951	0.01499
3994.24086	0.01485
3992.31221	0.01498
3990.38355	0.01516
3988.45490	0.01517
3986.52625	0.01518
3984.59759	0.01525
3982.66894	0.01527
3980.74029	0.01521
3978.81163	0.01513
3976.88298	0.01505
3974.95433	0.01500
3973.02567	0.01500
3971.09702	0.01499
3969.16837	0.01496
3967.23972	0.01496
3965.31106	0.01499
3963.38241	0.01512
3961.45376	0.01533
3959.52510	0.01543
3957.59645	0.01530
3955.66780	0.01508
3953.73914	0.01499
3951.81049	0.01499
3949.88184	0.01493
3947.95318	0.01485
3946.02453	0.01479
3944.09588	0.01483
3942.16722	0.01501
3940.23857	0.01517
3938.30992	0.01507
3936.38126	0.01483
3934.45261	0.01472
3932.52396	0.01474
3930.59530	0.01481
3928.66665	0.01483
3926.73800	0.01472
3924.80934	0.01457
3922.88069	0.01454
3920.95204	0.01461
3919.02338	0.01469
3917.09473	0.01473
3915.16608	0.01479
3913.23742	0.01496
3911.30877	0.01512
3909.38012	0.01504
3907.45146	0.01483
3905.52281	0.01476
3903.59416	0.01484
3901.66550	0.01486
3899.73685	0.01467
3897.80820	0.01445
3895.87955	0.01440
3893.95089	0.01444
3892.02224	0.01447
3890.09359	0.01456
3888.16493	0.01470
3886.23628	0.01475
3884.30763	0.01461
3882.37897	0.01435
3880.45032	0.01415
3878.52167	0.01411
3876.59301	0.01418
3874.66436	0.01425
3872.73571	0.01431
3870.80705	0.01441
3868.87840	0.01455
3866.94975	0.01467
3865.02109	0.01472
3863.09244	0.01464
3861.16379	0.01441
3859.23513	0.01423
3857.30648	0.01431
3855.37783	0.01450
3853.44917	0.01452
3851.52052	0.01443
3849.59187	0.01436
3847.66321	0.01432
3845.73456	0.01438
3843.80591	0.01446
3841.87725	0.01439
3839.94860	0.01418
3838.01995	0.01403
3836.09129	0.01400
3834.16264	0.01402
3832.23399	0.01400
3830.30534	0.01401
3828.37668	0.01408
3826.44803	0.01414
3824.51938	0.01417
3822.59072	0.01420
3820.66207	0.01420
3818.73342	0.01416
3816.80476	0.01415
3814.87611	0.01419
3812.94746	0.01421
3811.01880	0.01414
3809.09015	0.01403
3807.16150	0.01397
3805.23284	0.01390
3803.30419	0.01380
3801.37554	0.01381
3799.44688	0.01397
3797.51823	0.01407
3795.58958	0.01403
3793.66092	0.01401
3791.73227	0.01409
3789.80362	0.01413
3787.87496	0.01398
3785.94631	0.01370
3784.01766	0.01346
3782.08900	0.01342
3780.16035	0.01351
3778.23170	0.01363
3776.30304	0.01374
3774.37439	0.01377
3772.44574	0.01373
3770.51708	0.01368
3768.58843	0.01368
3766.65978	0.01376
3764.73112	0.01376
3762.80247	0.01351
3760.87382	0.01323
3758.94517	0.01324
3757.01651	0.01344
3755.08786	0.01361
3753.15921	0.01373
3751.23055	0.01381
3749.30190	0.01377
3747.37325	0.01368
3745.44459	0.01358
3743.51594	0.01352
3741.58729	0.01349
3739.65863	0.01347
3737.72998	0.01345
3735.80133	0.01344
3733.87267	0.01344
3731.94402	0.01337
3730.01537	0.01327
3728.08671	0.01329
3726.15806	0.01340
3724.22941	0.01336
3722.30075	0.01318
3720.37210	0.01307
3718.44345	0.01310
3716.51479	0.01315
3714.58614	0.01314
3712.65749	0.01311
3710.72883	0.01316
3708.80018	0.01328
3706.87153	0.01337
3704.94287	0.01341
3703.01422	0.01342
3701.08557	0.01335
3699.15691	0.01317
3697.22826	0.01298
3695.29961	0.01292
3693.37095	0.01299
3691.44230	0.01311
3689.51365	0.01323
3687.58500	0.01326
3685.65634	0.01318
3683.72769	0.01310
3681.79904	0.01312
3679.87038	0.01323
3677.94173	0.01336
3676.01308	0.01346
3674.08442	0.01353
3672.15577	0.01364
3670.22712	0.01376
3668.29846	0.01375
3666.36981	0.01365
3664.44116	0.01371
3662.51250	0.01389
3660.58385	0.01399
3658.65520	0.01405
3656.72654	0.01413
3654.79789	0.01424
3652.86924	0.01441
3650.94058	0.01457
3649.01193	0.01468
3647.08328	0.01477
3645.15462	0.01487
3643.22597	0.01509
3641.29732	0.01540
3639.36866	0.01560
3637.44001	0.01564
3635.51136	0.01567
3633.58270	0.01572
3631.65405	0.01587
3629.72540	0.01617
3627.79674	0.01645
3625.86809	0.01661
3623.93944	0.01684
3622.01079	0.01718
3620.08213	0.01751
3618.15348	0.01779
3616.22483	0.01802
3614.29617	0.01824
3612.36752	0.01848
3610.43887	0.01870
3608.51021	0.01890
3606.58156	0.01910
3604.65291	0.01928
3602.72425	0.01951
3600.79560	0.01981
3598.86695	0.02010
3596.93829	0.02029
3595.00964	0.02040
3593.08099	0.02062
3591.15233	0.02097
3589.22368	0.02126
3587.29503	0.02142
3585.36637	0.02162
3583.43772	0.02195
3581.50907	0.02229
3579.58041	0.02252
3577.65176	0.02276
3575.72311	0.02316
3573.79445	0.02366
3571.86580	0.02405
3569.93715	0.02427
3568.00849	0.02444
3566.07984	0.02473
3564.15119	0.02506
3562.22253	0.02534
3560.29388	0.02560
3558.36523	0.02593
3556.43657	0.02636
3554.50792	0.02676
3552.57927	0.02702
3550.65062	0.02717
3548.72196	0.02731
3546.79331	0.02751
3544.86466	0.02790
3542.93600	0.02842
3541.00735	0.02887
3539.07870	0.02921
3537.15004	0.02953
3535.22139	0.02978
3533.29274	0.02994
3531.36408	0.03006
3529.43543	0.03025
3527.50678	0.03061
3525.57812	0.03117
3523.64947	0.03167
3521.72082	0.03192
3519.79216	0.03202
3517.86351	0.03223
3515.93486	0.03254
3514.00620	0.03282
3512.07755	0.03312
3510.14890	0.03355
3508.22024	0.03398
3506.29159	0.03417
3504.36294	0.03420
3502.43428	0.03434
3500.50563	0.03464
3498.57698	0.03498
3496.64832	0.03537
3494.71967	0.03585
3492.79102	0.03624
3490.86236	0.03639
3488.93371	0.03646
3487.00506	0.03659
3485.07641	0.03682
3483.14775	0.03717
3481.21910	0.03749
3479.29045	0.03762
3477.36179	0.03770
3475.43314	0.03794
3473.50449	0.03830
3471.57583	0.03864
3469.64718	0.03891
3467.71853	0.03910
3465.78987	0.03929
3463.86122	0.03959
3461.93257	0.03994
3460.00391	0.04021
3458.07526	0.04045
3456.14661	0.04072
3454.21795	0.04099
3452.28930	0.04122
3450.36065	0.04144
3448.43199	0.04177
3446.50334	0.04217
3444.57469	0.04249
3442.64603	0.04272
3440.71738	0.04298
3438.78873	0.04331
3436.86007	0.04362
3434.93142	0.04389
3433.00277	0.04422
3431.07411	0.04454
3429.14546	0.04476
3427.21681	0.04494
3425.28815	0.04521
3423.35950	0.04551
3421.43085	0.04580
3419.50219	0.04608
3417.57354	0.04629
3415.64489	0.04640
3413.71624	0.04654
3411.78758	0.04684
3409.85893	0.04728
3407.93028	0.04771
3406.00162	0.04802
3404.07297	0.04823
3402.14432	0.04841
3400.21566	0.04864
3398.28701	0.04891
3396.35836	0.04914
3394.42970	0.04942
3392.50105	0.04975
3390.57240	0.05005
3388.64374	0.05038
3386.71509	0.05082
3384.78644	0.05125
3382.85778	0.05163
3380.92913	0.05202
3379.00048	0.05236
3377.07182	0.05266
3375.14317	0.05297
3373.21452	0.05327
3371.28586	0.05352
3369.35721	0.05384
3367.42856	0.05430
3365.49990	0.05480
3363.57125	0.05526
3361.64260	0.05579
3359.71394	0.05637
3357.78529	0.05692
3355.85664	0.05744
3353.92798	0.05788
3351.99933	0.05820
3350.07068	0.05856
3348.14202	0.05915
3346.21337	0.05985
3344.28472	0.06039
3342.35607	0.06078
3340.42741	0.06112
3338.49876	0.06149
3336.57011	0.06187
3334.64145	0.06223
3332.71280	0.06257
3330.78415	0.06294
3328.85549	0.06336
3326.92684	0.06380
3324.99819	0.06422
3323.06953	0.06458
3321.14088	0.06484
3319.21223	0.06500
3317.28357	0.06518
3315.35492	0.06535
3313.42627	0.06552
3311.49761	0.06572
3309.56896	0.06595
3307.64031	0.06620
3305.71165	0.06641
3303.78300	0.06649
3301.85435	0.06651
3299.92569	0.06665
3297.99704	0.06684
3296.06839	0.06693
3294.13973	0.06695
3292.21108	0.06689
3290.28243	0.06678
3288.35377	0.06677
3286.42512	0.06694
3284.49647	0.06709
3282.56781	0.06710
3280.63916	0.06704
3278.71051	0.06698
3276.78186	0.06691
3274.85320	0.06681
3272.92455	0.06671
3270.99590	0.06663
3269.06724	0.06648
3267.13859	0.06624
3265.20994	0.06597
3263.28128	0.06572
3261.35263	0.06547
3259.42398	0.06518
3257.49532	0.06483
3255.56667	0.06447
3253.63802	0.06425
3251.70936	0.06421
3249.78071	0.06419
3247.85206	0.06414
3245.92340	0.06406
3243.99475	0.06391
3242.06610	0.06372
3240.13744	0.06346
3238.20879	0.06312
3236.28014	0.06289
3234.35148	0.06287
3232.42283	0.06288
3230.49418	0.06272
3228.56552	0.06243
3226.63687	0.06225
3224.70822	0.06218
3222.77956	0.06211
3220.85091	0.06199
3218.92226	0.06181
3216.99360	0.06152
3215.06495	0.06122
3213.13630	0.06113
3211.20764	0.06116
3209.27899	0.06102
3207.35034	0.06080
3205.42169	0.06069
3203.49303	0.06064
3201.56438	0.06053
3199.63573	0.06030
3197.70707	0.05997
3195.77842	0.05958
3193.84977	0.05928
3191.92111	0.05909
3189.99246	0.05893
3188.06381	0.05871
3186.13515	0.05842
3184.20650	0.05808
3182.27785	0.05778
3180.34919	0.05751
3178.42054	0.05720
3176.49189	0.05690
3174.56323	0.05665
3172.63458	0.05634
3170.70593	0.05591
3168.77727	0.05554
3166.84862	0.05532
3164.91997	0.05511
3162.99131	0.05473
3161.06266	0.05422
3159.13401	0.05380
3157.20535	0.05348
3155.27670	0.05314
3153.34805	0.05282
3151.41939	0.05259
3149.49074	0.05234
3147.56209	0.05202
3145.63343	0.05171
3143.70478	0.05146
3141.77613	0.05125
3139.84748	0.05099
3137.91882	0.05069
3135.99017	0.05042
3134.06152	0.05018
3132.13286	0.05002
3130.20421	0.04989
3128.27556	0.04967
3126.34690	0.04942
3124.41825	0.04926
3122.48960	0.04922
3120.56094	0.04927
3118.63229	0.04933
3116.70364	0.04933
3114.77498	0.04925
3112.84633	0.04922
3110.91768	0.04932
3108.98902	0.04937
3107.06037	0.04931
3105.13172	0.04934
3103.20306	0.04951
3101.27441	0.04963
3099.34576	0.04969
3097.41710	0.04979
3095.48845	0.04996
3093.55980	0.05014
3091.63114	0.05029
3089.70249	0.05044
3087.77384	0.05062
3085.84518	0.05080
3083.91653	0.05088
3081.98788	0.05094
3080.05922	0.05109
3078.13057	0.05128
3076.20192	0.05139
3074.27326	0.05140
3072.34461	0.05135
3070.41596	0.05126
3068.48731	0.05116
3066.55865	0.05105
3064.63000	0.05088
3062.70135	0.05072
3060.77269	0.05060
3058.84404	0.05052
3056.91539	0.05046
3054.98673	0.05032
3053.05808	0.05004
3051.12943	0.04970
3049.20077	0.04938
3047.27212	0.04907
3045.34347	0.04876
3043.41481	0.04845
3041.48616	0.04814
3039.55751	0.04786
3037.62885	0.04761
3035.70020	0.04737
3033.77155	0.04714
3031.84289	0.04688
3029.91424	0.04655
3027.98559	0.04620
3026.05693	0.04601
3024.12828	0.04590
3022.19963	0.04570
3020.27097	0.04543
3018.34232	0.04522
3016.41367	0.04513
3014.48501	0.04506
3012.55636	0.04492
3010.62771	0.04474
3008.69905	0.04466
3006.77040	0.04469
3004.84175	0.04470
3002.91309	0.04464
3000.98444	0.04459
2999.05579	0.04468
2997.12714	0.04486
2995.19848	0.04498
2993.26983	0.04506
2991.34118	0.04523
2989.41252	0.04547
2987.48387	0.04568
2985.55522	0.04583
2983.62656	0.04597
2981.69791	0.04619
2979.76926	0.04645
2977.84060	0.04671
2975.91195	0.04697
2973.98330	0.04727
2972.05464	0.04756
2970.12599	0.04785
2968.19734	0.04819
2966.26868	0.04863
2964.34003	0.04908
2962.41138	0.04944
2960.48272	0.04972
2958.55407	0.05001
2956.62542	0.05029
2954.69676	0.05045
2952.76811	0.05045
2950.83946	0.05043
2948.91080	0.05055
2946.98215	0.05079
2945.05350	0.05112
2943.12484	0.05149
2941.19619	0.05198
2939.26754	0.05261
2937.33888	0.05332
2935.41023	0.05402
2933.48158	0.05468
2931.55293	0.05527
2929.62427	0.05579
2927.69562	0.05624
2925.76697	0.05659
2923.83831	0.05681
2921.90966	0.05690
2919.98101	0.05680
2918.05235	0.05634
2916.12370	0.05538
2914.19505	0.05411
2912.26639	0.05279
2910.33774	0.05158
2908.40909	0.05064
2906.48043	0.04995
2904.55178	0.04933
2902.62313	0.04872
2900.69447	0.04815
2898.76582	0.04766
2896.83717	0.04727
2894.90851	0.04695
2892.97986	0.04666
2891.05121	0.04639
2889.12255	0.04617
2887.19390	0.04601
2885.26525	0.04591
2883.33659	0.04585
2881.40794	0.04582
2879.47929	0.04587
2877.55063	0.04598
2875.62198	0.04604
2873.69333	0.04599
2871.76467	0.04590
2869.83602	0.04582
2867.90737	0.04565
2865.97871	0.04538
2864.05006	0.04516
2862.12141	0.04512
2860.19276	0.04529
2858.26410	0.04563
2856.33545	0.04604
2854.40680	0.04644
2852.47814	0.04668
2850.54949	0.04651
2848.62084	0.04586
2846.69218	0.04483
2844.76353	0.04367
2842.83488	0.04260
2840.90622	0.04175
2838.97757	0.04111
2837.04892	0.04061
2835.12026	0.04019
2833.19161	0.03982
2831.26296	0.03953
2829.33430	0.03930
2827.40565	0.03905
2825.47700	0.03875
2823.54834	0.03854
2821.61969	0.03844
2819.69104	0.03831
2817.76238	0.03811
2815.83373	0.03794
2813.90508	0.03779
2811.97642	0.03765
2810.04777	0.03754
2808.11912	0.03741
2806.19046	0.03720
2804.26181	0.03700
2802.33316	0.03687
2800.40450	0.03675
2798.47585	0.03661
2796.54720	0.03648
2794.61855	0.03635
2792.68989	0.03619
2790.76124	0.03599
2788.83259	0.03589
2786.90393	0.03584
2784.97528	0.03573
2783.04663	0.03555
2781.11797	0.03534
2779.18932	0.03513
2777.26067	0.03498
2775.33201	0.03490
2773.40336	0.03480
2771.47471	0.03469
2769.54605	0.03459
2767.61740	0.03444
2765.68875	0.03426
2763.76009	0.03407
2761.83144	0.03389
2759.90279	0.03378
2757.97413	0.03376
2756.04548	0.03375
2754.11683	0.03370
2752.18817	0.03359
2750.25952	0.03349
2748.33087	0.03335
2746.40221	0.03313
2744.47356	0.03296
2742.54491	0.03288
2740.61625	0.03280
2738.68760	0.03271
2736.75895	0.03266
2734.83029	0.03260
2732.90164	0.03248
2730.97299	0.03234
2729.04433	0.03222
2727.11568	0.03211
2725.18703	0.03199
2723.25838	0.03187
2721.32972	0.03173
2719.40107	0.03159
2717.47242	0.03143
2715.54376	0.03129
2713.61511	0.03123
2711.68646	0.03121
2709.75780	0.03117
2707.82915	0.03110
2705.90050	0.03099
2703.97184	0.03085
2702.04319	0.03072
2700.11454	0.03063
2698.18588	0.03057
2696.25723	0.03053
2694.32858	0.03045
2692.39992	0.03032
2690.47127	0.03027
2688.54262	0.03031
2686.61396	0.03033
2684.68531	0.03026
2682.75666	0.03011
2680.82800	0.02997
2678.89935	0.02993
2676.97070	0.02991
2675.04204	0.02985
2673.11339	0.02979
2671.18474	0.02979
2669.25608	0.02979
2667.32743	0.02976
2665.39878	0.02971
2663.47012	0.02962
2661.54147	0.02952
2659.61282	0.02941
2657.68417	0.02930
2655.75551	0.02919
2653.82686	0.02909
2651.89821	0.02897
2649.96955	0.02882
2648.04090	0.02865
2646.11225	0.02851
2644.18359	0.02840
2642.25494	0.02824
2640.32629	0.02803
2638.39763	0.02783
2636.46898	0.02759
2634.54033	0.02734
2632.61167	0.02720
2630.68302	0.02709
2628.75437	0.02694
2626.82571	0.02682
2624.89706	0.02671
2622.96841	0.02653
2621.03975	0.02635
2619.11110	0.02617
2617.18245	0.02591
2615.25379	0.02559
2613.32514	0.02532
2611.39649	0.02518
2609.46783	0.02522
2607.53918	0.02532
2605.61053	0.02536
2603.68187	0.02529
2601.75322	0.02505
2599.82457	0.02471
2597.89591	0.02445
2595.96726	0.02430
2594.03861	0.02414
2592.10995	0.02402
2590.18130	0.02394
2588.25265	0.02386
2586.32400	0.02382
2584.39534	0.02380
2582.46669	0.02365
2580.53804	0.02342
2578.60938	0.02329
2576.68073	0.02319
2574.75208	0.02301
2572.82342	0.02280
2570.89477	0.02265
2568.96612	0.02255
2567.03746	0.02253
2565.10881	0.02262
2563.18016	0.02272
2561.25150	0.02269
2559.32285	0.02247
2557.39420	0.02218
2555.46554	0.02198
2553.53689	0.02194
2551.60824	0.02198
2549.67958	0.02201
2547.75093	0.02203
2545.82228	0.02206
2543.89362	0.02205
2541.96497	0.02197
2540.03632	0.02178
2538.10766	0.02164
2536.17901	0.02163
2534.25036	0.02160
2532.32170	0.02144
2530.39305	0.02130
2528.46440	0.02127
2526.53574	0.02135
2524.60709	0.02148
2522.67844	0.02151
2520.74978	0.02139
2518.82113	0.02124
2516.89248	0.02116
2514.96383	0.02116
2513.03517	0.02126
2511.10652	0.02132
2509.17787	0.02133
2507.24921	0.02140
2505.32056	0.02145
2503.39191	0.02137
2501.46325	0.02122
2499.53460	0.02107
2497.60595	0.02093
2495.67729	0.02083
2493.74864	0.02084
2491.81999	0.02089
2489.89133	0.02086
2487.96268	0.02082
2486.03403	0.02076
2484.10537	0.02066
2482.17672	0.02061
2480.24807	0.02057
2478.31941	0.02049
2476.39076	0.02044
2474.46211	0.02045
2472.53345	0.02052
2470.60480	0.02065
2468.67615	0.02078
2466.74749	0.02082
2464.81884	0.02077
2462.89019	0.02074
2460.96153	0.02079
2459.03288	0.02083
2457.10423	0.02079
2455.17557	0.02069
2453.24692	0.02056
2451.31827	0.02043
2449.38962	0.02036
2447.46096	0.02037
2445.53231	0.02036
2443.60366	0.02033
2441.67500	0.02031
2439.74635	0.02026
2437.81770	0.02022
2435.88904	0.02029
2433.96039	0.02038
2432.03174	0.02043
2430.10308	0.02047
2428.17443	0.02048
2426.24578	0.02045
2424.31712	0.02042
2422.38847	0.02031
2420.45982	0.02017
2418.53116	0.02018
2416.60251	0.02036
2414.67386	0.02054
2412.74520	0.02060
2410.81655	0.02053
2408.88790	0.02043
2406.95924	0.02038
2405.03059	0.02036
2403.10194	0.02041
2401.17328	0.02054
2399.24463	0.02060
2397.31598	0.02058
2395.38732	0.02055
2393.45867	0.02063
2391.53002	0.02078
2389.60136	0.02091
2387.67271	0.02095
2385.74406	0.02097
2383.81540	0.02097
2381.88675	0.02091
2379.95810	0.02086
2378.02945	0.02090
2376.10079	0.02095
2374.17214	0.02096
2372.24349	0.02102
2370.31483	0.02116
2368.38618	0.02131
2366.45753	0.02144
2364.52887	0.02156
2362.60022	0.02167
2360.67157	0.02172
2358.74291	0.02167
2356.81426	0.02163
2354.88561	0.02174
2352.95695	0.02188
2351.02830	0.02189
2349.09965	0.02184
2347.17099	0.02189
2345.24234	0.02196
2343.31369	0.02195
2341.38503	0.02190
2339.45638	0.02189
2337.52773	0.02190
2335.59907	0.02182
2333.67042	0.02166
2331.74177	0.02154
2329.81311	0.02152
2327.88446	0.02166
2325.95581	0.02193
2324.02715	0.02204
2322.09850	0.02184
2320.16985	0.02150
2318.24119	0.02120
2316.31254	0.02092
2314.38389	0.02060
2312.45524	0.02025
2310.52658	0.02000
2308.59793	0.01986
2306.66928	0.01974
2304.74062	0.01951
2302.81197	0.01922
2300.88332	0.01902
2298.95466	0.01896
2297.02601	0.01888
2295.09736	0.01869
2293.16870	0.01840
2291.24005	0.01810
2289.31140	0.01793
2287.38274	0.01786
2285.45409	0.01781
2283.52544	0.01770
2281.59678	0.01742
2279.66813	0.01706
2277.73948	0.01672
2275.81082	0.01633
2273.88217	0.01606
2271.95352	0.01608
2270.02486	0.01622
2268.09621	0.01614
2266.16756	0.01570
2264.23890	0.01510
2262.31025	0.01461
2260.38160	0.01437
2258.45294	0.01436
2256.52429	0.01447
2254.59564	0.01454
2252.66698	0.01438
2250.73833	0.01401
2248.80968	0.01375
2246.88102	0.01354
2244.95237	0.01340
2243.02372	0.01321
2241.09507	0.01295
2239.16641	0.01267
2237.23776	0.01238
2235.30911	0.01214
2233.38045	0.01202
2231.45180	0.01202
2229.52315	0.01226
2227.59449	0.01259
2225.66584	0.01254
2223.73719	0.01209
2221.80853	0.01167
2219.87988	0.01143
2217.95123	0.01128
2216.02257	0.01126
2214.09392	0.01134
2212.16527	0.01140
2210.23661	0.01131
2208.30796	0.01106
2206.37931	0.01092
2204.45065	0.01096
2202.52200	0.01088
2200.59335	0.01057
2198.66469	0.01038
2196.73604	0.01052
2194.80739	0.01077
2192.87873	0.01091
2190.95008	0.01071
2189.02143	0.01005
2187.09277	0.00950
2185.16412	0.00935
2183.23547	0.00916
2181.30681	0.00885
2179.37816	0.00870
2177.44951	0.00856
2175.52085	0.00836
2173.59220	0.00839
2171.66355	0.00854
2169.73490	0.00846
2167.80624	0.00807
2165.87759	0.00742
2163.94894	0.00684
2162.02028	0.00644
2160.09163	0.00574
2158.16298	0.00516
2156.23432	0.00560
2154.30567	0.00660
2152.37702	0.00725
2150.44836	0.00764
2148.51971	0.00802
2146.59106	0.00813
2144.66240	0.00796
2142.73375	0.00800
2140.80510	0.00845
2138.87644	0.00904
2136.94779	0.00937
2135.01914	0.00935
2133.09048	0.00932
2131.16183	0.00983
2129.23318	0.01081
2127.30452	0.01155
2125.37587	0.01177
2123.44722	0.01193
2121.51856	0.01216
2119.58991	0.01219
2117.66126	0.01220
2115.73260	0.01242
2113.80395	0.01260
2111.87530	0.01248
2109.94664	0.01226
2108.01799	0.01226
2106.08934	0.01227
2104.16069	0.01205
2102.23203	0.01189
2100.30338	0.01201
2098.37473	0.01209
2096.44607	0.01193
2094.51742	0.01170
2092.58877	0.01154
2090.66011	0.01145
2088.73146	0.01139
2086.80281	0.01136
2084.87415	0.01141
2082.94550	0.01151
2081.01685	0.01156
2079.08819	0.01148
2077.15954	0.01125
2075.23089	0.01102
2073.30223	0.01090
2071.37358	0.01082
2069.44493	0.01069
2067.51627	0.01061
2065.58762	0.01055
2063.65897	0.01032
2061.73031	0.00980
2059.80166	0.00920
2057.87301	0.00901
2055.94435	0.00931
2054.01570	0.00956
2052.08705	0.00932
2050.15839	0.00871
2048.22974	0.00810
2046.30109	0.00765
2044.37243	0.00723
2042.44378	0.00686
2040.51513	0.00672
2038.58647	0.00663
2036.65782	0.00644
2034.72917	0.00635
2032.80052	0.00640
2030.87186	0.00616
2028.94321	0.00562
2027.01456	0.00529
2025.08590	0.00546
2023.15725	0.00584
2021.22860	0.00591
2019.29994	0.00564
2017.37129	0.00556
2015.44264	0.00572
2013.51398	0.00583
2011.58533	0.00604
2009.65668	0.00636
2007.72802	0.00639
2005.79937	0.00617
2003.87072	0.00634
2001.94206	0.00711
2000.01341	0.00772
1998.08476	0.00757
1996.15610	0.00714
1994.22745	0.00712
1992.29880	0.00745
1990.37014	0.00766
1988.44149	0.00759
1986.51284	0.00746
1984.58418	0.00751
1982.65553	0.00769
1980.72688	0.00759
1978.79822	0.00694
1976.86957	0.00618
1974.94092	0.00593
1973.01226	0.00626
1971.08361	0.00669
1969.15496	0.00692
1967.22631	0.00707
1965.29765	0.00723
1963.36900	0.00737
1961.44035	0.00743
1959.51169	0.00755
1957.58304	0.00789
1955.65439	0.00829
1953.72573	0.00850
1951.79708	0.00853
1949.86843	0.00867
1947.93977	0.00905
1946.01112	0.00946
1944.08247	0.00969
1942.15381	0.00981
1940.22516	0.01004
1938.29651	0.01029
1936.36785	0.01035
1934.43920	0.01025
1932.51055	0.01001
1930.58189	0.00977
1928.65324	0.00983
1926.72459	0.01018
1924.79593	0.01051
1922.86728	0.01077
1920.93863	0.01104
1919.00997	0.01119
1917.08132	0.01113
1915.15267	0.01103
1913.22401	0.01106
1911.29536	0.01115
1909.36671	0.01126
1907.43805	0.01141
1905.50940	0.01155
1903.58075	0.01163
1901.65209	0.01170
1899.72344	0.01181
1897.79479	0.01198
1895.86614	0.01210
1893.93748	0.01209
1892.00883	0.01199
1890.08018	0.01193
1888.15152	0.01199
1886.22287	0.01208
1884.29422	0.01214
1882.36556	0.01216
1880.43691	0.01206
1878.50826	0.01194
1876.57960	0.01195
1874.65095	0.01207
1872.72230	0.01216
1870.79364	0.01223
1868.86499	0.01236
1866.93634	0.01246
1865.00768	0.01248
1863.07903	0.01249
1861.15038	0.01252
1859.22172	0.01251
1857.29307	0.01244
1855.36442	0.01242
1853.43576	0.01252
1851.50711	0.01265
1849.57846	0.01272
1847.64980	0.01277
1845.72115	0.01285
1843.79250	0.01298
1841.86384	0.01311
1839.93519	0.01320
1838.00654	0.01323
1836.07788	0.01318
1834.14923	0.01313
1832.22058	0.01317
1830.29192	0.01328
1828.36327	0.01333
1826.43462	0.01332
1824.50597	0.01336
1822.57731	0.01340
1820.64866	0.01338
1818.72001	0.01338
1816.79135	0.01347
1814.86270	0.01362
1812.93405	0.01374
1811.00539	0.01382
1809.07674	0.01388
1807.14809	0.01394
1805.21943	0.01404
1803.29078	0.01416
1801.36213	0.01420
1799.43347	0.01416
1797.50482	0.01417
1795.57617	0.01429
1793.64751	0.01442
1791.71886	0.01446
1789.79021	0.01440
1787.86155	0.01434
1785.93290	0.01438
1784.00425	0.01444
1782.07559	0.01448
1780.14694	0.01452
1778.21829	0.01459
1776.28963	0.01466
1774.36098	0.01469
1772.43233	0.01471
1770.50367	0.01472
1768.57502	0.01478
1766.64637	0.01487
1764.71771	0.01497
1762.78906	0.01510
1760.86041	0.01526
1758.93176	0.01544
1757.00310	0.01568
1755.07445	0.01600
1753.14580	0.01636
1751.21714	0.01676
1749.28849	0.01718
1747.35984	0.01761
1745.43118	0.01803
1743.50253	0.01855
1741.57388	0.01917
1739.64522	0.01981
1737.71657	0.02041
1735.78792	0.02103
1733.85926	0.02166
1731.93061	0.02222
1730.00196	0.02275
1728.07330	0.02338
1726.14465	0.02412
1724.21600	0.02488
1722.28734	0.02568
1720.35869	0.02658
1718.43004	0.02762
1716.50138	0.02881
1714.57273	0.03012
1712.64408	0.03146
1710.71542	0.03276
1708.78677	0.03408
1706.85812	0.03548
1704.92946	0.03701
1703.00081	0.03876
1701.07216	0.04083
1699.14350	0.04318
1697.21485	0.04566
1695.28620	0.04828
1693.35754	0.05107
1691.42889	0.05394
1689.50024	0.05692
1687.57159	0.06007
1685.64293	0.06346
1683.71428	0.06707
1681.78563	0.07078
1679.85697	0.07462
1677.92832	0.07875
1675.99967	0.08321
1674.07101	0.08784
1672.14236	0.09258
1670.21371	0.09748
1668.28505	0.10242
1666.35640	0.10721
1664.42775	0.11187
1662.49909	0.11647
1660.57044	0.12084
1658.64179	0.12480
1656.71313	0.12829
1654.78448	0.13147
1652.85583	0.13450
1650.92717	0.13719
1648.99852	0.13939
1647.06987	0.14135
1645.14121	0.14324
1643.21256	0.14493
1641.28391	0.14640
1639.35525	0.14777
1637.42660	0.14914
1635.49795	0.15040
1633.56929	0.15125
1631.64064	0.15150
1629.71199	0.15114
1627.78333	0.15008
1625.85468	0.14822
1623.92603	0.14554
1621.99738	0.14212
1620.06872	0.13812
1618.14007	0.13376
1616.21142	0.12911
1614.28276	0.12419
1612.35411	0.11911
1610.42546	0.11399
1608.49680	0.10895
1606.56815	0.10404
1604.63950	0.09937
1602.71084	0.09502
1600.78219	0.09096
1598.85354	0.08721
1596.92488	0.08392
1594.99623	0.08114
1593.06758	0.07882
1591.13892	0.07691
1589.21027	0.07536
1587.28162	0.07415
1585.35296	0.07334
1583.42431	0.07300
1581.49566	0.07319
1579.56700	0.07383
1577.63835	0.07488
1575.70970	0.07639
1573.78104	0.07829
1571.85239	0.08051
1569.92374	0.08305
1567.99508	0.08590
1566.06643	0.08894
1564.13778	0.09207
1562.20912	0.09522
1560.28047	0.09844
1558.35182	0.10171
1556.42316	0.10476
1554.49451	0.10743
1552.56586	0.10981
1550.63721	0.11196
1548.70855	0.11388
1546.77990	0.11551
1544.85125	0.11677
1542.92259	0.11768
1540.99394	0.11832
1539.06529	0.11868
1537.13663	0.11870
1535.20798	0.11842
1533.27933	0.11797
1531.35067	0.11734
1529.42202	0.11647
1527.49337	0.11539
1525.56471	0.11412
1523.63606	0.11271
1521.70741	0.11124
1519.77875	0.10975
1517.85010	0.10810
1515.92145	0.10611
1513.99279	0.10372
1512.06414	0.10102
1510.13549	0.09809
1508.20683	0.09499
1506.27818	0.09180
1504.34953	0.08856
1502.42087	0.08530
1500.49222	0.08212
1498.56357	0.07913
1496.63491	0.07628
1494.70626	0.07352
1492.77761	0.07089
1490.84895	0.06852
1488.92030	0.06649
1486.99165	0.06492
1485.06299	0.06388
1483.13434	0.06333
1481.20569	0.06323
1479.27704	0.06358
1477.34838	0.06441
1475.41973	0.06571
1473.49108	0.06747
1471.56242	0.06961
1469.63377	0.07185
1467.70512	0.07404
1465.77646	0.07619
1463.84781	0.07834
1461.91916	0.08048
1459.99050	0.08263
1458.06185	0.08487
1456.13320	0.08699
1454.20454	0.08867
1452.27589	0.08977
1450.34724	0.09037
1448.41858	0.09056
1446.48993	0.09037
1444.56128	0.08984
1442.63262	0.08908
1440.70397	0.08816
1438.77532	0.08701
1436.84666	0.08557
1434.91801	0.08392
1432.98936	0.08219
1431.06070	0.08058
1429.13205	0.07919
1427.20340	0.07805
1425.27474	0.07716
1423.34609	0.07657
1421.41744	0.07626
1419.48878	0.07618
1417.56013	0.07628
1415.63148	0.07653
1413.70283	0.07681
1411.77417	0.07704
1409.84552	0.07717
1407.91687	0.07714
1405.98821	0.07693
1404.05956	0.07655
1402.13091	0.07600
1400.20225	0.07531
1398.27360	0.07452
1396.34495	0.07369
1394.41629	0.07295
1392.48764	0.07236
1390.55899	0.07189
1388.63033	0.07150
1386.70168	0.07120
1384.77303	0.07095
1382.84437	0.07068
1380.91572	0.07039
1378.98707	0.07015
1377.05841	0.06985
1375.12976	0.06937
1373.20111	0.06877
1371.27245	0.06815
1369.34380	0.06743
1367.41515	0.06653
1365.48649	0.06558
1363.55784	0.06479
1361.62919	0.06424
1359.70053	0.06398
1357.77188	0.06398
1355.84323	0.06422
1353.91457	0.06476
1351.98592	0.06563
1350.05727	0.06677
1348.12861	0.06808
1346.19996	0.06943
1344.27131	0.07080
1342.34266	0.07209
1340.41400	0.07317
1338.48535	0.07394
1336.55670	0.07438
1334.62804	0.07445
1332.69939	0.07411
1330.77074	0.07349
1328.84208	0.07277
1326.91343	0.07202
1324.98478	0.07123
1323.05612	0.07049
1321.12747	0.06997
1319.19882	0.06965
1317.27016	0.06946
1315.34151	0.06930
1313.41286	0.06906
1311.48420	0.06877
1309.55555	0.06851
1307.62690	0.06836
1305.69824	0.06828
1303.76959	0.06826
1301.84094	0.06827
1299.91228	0.06835
1297.98363	0.06847
1296.05498	0.06868
1294.12632	0.06909
1292.19767	0.06979
1290.26902	0.07068
1288.34036	0.07159
1286.41171	0.07248
1284.48306	0.07336
1282.55440	0.07421
1280.62575	0.07493
1278.69710	0.07541
1276.76845	0.07569
1274.83979	0.07592
1272.91114	0.07626
1270.98249	0.07669
1269.05383	0.07718
1267.12518	0.07782
1265.19653	0.07864
1263.26787	0.07953
1261.33922	0.08045
1259.41057	0.08142
1257.48191	0.08249
1255.55326	0.08370
1253.62461	0.08508
1251.69595	0.08661
1249.76730	0.08824
1247.83865	0.08990
1245.90999	0.09154
1243.98134	0.09315
1242.05269	0.09471
1240.12403	0.09605
1238.19538	0.09704
1236.26673	0.09771
1234.33807	0.09804
1232.40942	0.09801
1230.48077	0.09760
1228.55211	0.09680
1226.62346	0.09565
1224.69481	0.09423
1222.76615	0.09260
1220.83750	0.09087
1218.90885	0.08928
1216.98019	0.08808
1215.05154	0.08734
1213.12289	0.08703
1211.19423	0.08706
1209.26558	0.08740
1207.33693	0.08797
1205.40828	0.08864
1203.47962	0.08917
1201.55097	0.08937
1199.62232	0.08912
1197.69366	0.08845
1195.76501	0.08748
1193.83636	0.08647
1191.90770	0.08555
1189.97905	0.08470
1188.05040	0.08392
1186.12174	0.08333
1184.19309	0.08298
1182.26444	0.08281
1180.33578	0.08278
1178.40713	0.08290
1176.47848	0.08317
1174.54982	0.08360
1172.62117	0.08416
1170.69252	0.08483
1168.76386	0.08564
1166.83521	0.08652
1164.90656	0.08731
1162.97790	0.08801
1161.04925	0.08866
1159.12060	0.08910
1157.19194	0.08924
1155.26329	0.08917
1153.33464	0.08902
1151.40598	0.08887
1149.47733	0.08869
1147.54868	0.08853
1145.62002	0.08853
1143.69137	0.08860
1141.76272	0.08858
1139.83406	0.08860
1137.90541	0.08883
1135.97676	0.08922
1134.04811	0.08969
1132.11945	0.09017
1130.19080	0.09062
1128.26215	0.09113
1126.33349	0.09165
1124.40484	0.09211
1122.47619	0.09257
1120.54753	0.09310
1118.61888	0.09370
1116.69023	0.09434
1114.76157	0.09499
1112.83292	0.09560
1110.90427	0.09622
1108.97561	0.09693
1107.04696	0.09772
1105.11831	0.09854
1103.18965	0.09945
1101.26100	0.10047
1099.33235	0.10152
1097.40369	0.10251
1095.47504	0.10357
1093.54639	0.10476
1091.61773	0.10609
1089.68908	0.10761
1087.76043	0.10931
1085.83177	0.11107
1083.90312	0.11276
1081.97447	0.11415
1080.04581	0.11498
1078.11716	0.11518
1076.18851	0.11491
1074.25985	0.11441
1072.33120	0.11378
1070.40255	0.11305
1068.47390	0.11228
1066.54524	0.11161
1064.61659	0.11110
1062.68794	0.11059
1060.75928	0.10981
1058.83063	0.10869
1056.90198	0.10744
1054.97332	0.10620
1053.04467	0.10492
1051.11602	0.10360
1049.18736	0.10234
1047.25871	0.10120
1045.33006	0.10019
1043.40140	0.09934
1041.47275	0.09874
1039.54410	0.09851
1037.61544	0.09861
1035.68679	0.09888
1033.75814	0.09921
1031.82948	0.09943
1029.90083	0.09931
1027.97218	0.09883
1026.04352	0.09807
1024.11487	0.09719
1022.18622	0.09645
1020.25756	0.09596
1018.32891	0.09562
1016.40026	0.09536
1014.47160	0.09509
1012.54295	0.09475
1010.61430	0.09418
1008.68564	0.09344
1006.75699	0.09278
1004.82834	0.09216
1002.89968	0.09133
1000.97103	0.09028
999.04238	0.08913
997.11373	0.08800
995.18507	0.08695
993.25642	0.08597
991.32777	0.08494
989.39911	0.08380
987.47046	0.08268
985.54181	0.08170
983.61315	0.08093
981.68450	0.08045
979.75585	0.08025
977.82719	0.08011
975.89854	0.07987
973.96989	0.07962
972.04123	0.07947
970.11258	0.07935
968.18393	0.07910
966.25527	0.07879
964.32662	0.07863
962.39797	0.07868
960.46931	0.07870
958.54066	0.07859
956.61201	0.07850
954.68335	0.07847
952.75470	0.07841
950.82605	0.07831
948.89739	0.07825
946.96874	0.07826
945.04009	0.07833
943.11143	0.07838
941.18278	0.07830
939.25413	0.07813
937.32547	0.07796
935.39682	0.07763
933.46817	0.07708
931.53952	0.07639
929.61086	0.07568
927.68221	0.07509
925.75356	0.07465
923.82490	0.07429
921.89625	0.07388
919.96760	0.07338
918.03894	0.07281
916.11029	0.07210
914.18164	0.07127
912.25298	0.07053
910.32433	0.07006
908.39568	0.06987
906.46702	0.06984
904.53837	0.06979
902.60972	0.06949
900.68106	0.06920
898.75241	0.06930
896.82376	0.06960
894.89510	0.06974
892.96645	0.06974
891.03780	0.06983
889.10914	0.07017
887.18049	0.07067
885.25184	0.07121
883.32318	0.07186
881.39453	0.07253
879.46588	0.07290
877.53722	0.07304
875.60857	0.07324
873.67992	0.07350
871.75126	0.07351
869.82261	0.07315
867.89396	0.07260
865.96530	0.07202
864.03665	0.07139
862.10800	0.07087
860.17935	0.07050
858.25069	0.07018
856.32204	0.06995
854.39339	0.06975
852.46473	0.06936
850.53608	0.06880
848.60743	0.06807
846.67877	0.06710
844.75012	0.06605
842.82147	0.06519
840.89281	0.06446
838.96416	0.06381
837.03551	0.06334
835.10685	0.06305
833.17820	0.06287
831.24955	0.06282
829.32089	0.06274
827.39224	0.06250
825.46359	0.06228
823.53493	0.06224
821.60628	0.06240
819.67763	0.06271
817.74897	0.06302
815.82032	0.06330
813.89167	0.06364
811.96301	0.06391
810.03436	0.06402
808.10571	0.06413
806.17705	0.06428
804.24840	0.06443
802.31975	0.06463
800.39109	0.06483
798.46244	0.06502
796.53379	0.06538
794.60513	0.06575
792.67648	0.06590
790.74783	0.06615
788.81918	0.06676
786.89052	0.06746
784.96187	0.06806
783.03322	0.06853
781.10456	0.06875
779.17591	0.06881
777.24726	0.06892
775.31860	0.06925
773.38995	0.06976
771.46130	0.07024
769.53264	0.07074
767.60399	0.07132
765.67534	0.07190
763.74668	0.07234
761.81803	0.07270
759.88938	0.07324
757.96072	0.07412
756.03207	0.07509
754.10342	0.07579
752.17476	0.07630
750.24611	0.07679
748.31746	0.07728
746.38880	0.07785
744.46015	0.07840
742.53150	0.07886
740.60284	0.07945
738.67419	0.08031
736.74554	0.08113
734.81688	0.08181
732.88823	0.08272
730.95958	0.08397
729.03092	0.08525
727.10227	0.08633
725.17362	0.08728
723.24497	0.08800
721.31631	0.08893
719.38766	0.08976
717.45901	0.09050
715.53035	0.09125
713.60170	0.09195
711.67305	0.09266
709.74439	0.09346
707.81574	0.09433
705.88709	0.09515
703.95843	0.09593
702.02978	0.09668
700.10113	0.09734
698.17247	0.09789
696.24382	0.09837
694.31517	0.09883
692.38651	0.09936
690.45786	0.10010
688.52921	0.10097
686.60055	0.10165
684.67190	0.10207
682.74325	0.10252
680.81459	0.10314
678.88594	0.10384
676.95729	0.10454
675.02863	0.10527
673.09998	0.10599
671.17133	0.10658
669.24267	0.10705
667.31402	0.10772
665.38537	0.10866
663.45671	0.10955
661.52806	0.11021
659.59941	0.11076
657.67075	0.11133
655.74210	0.11199
653.81345	0.11260
651.88480	0.11304
649.95614	0.11345
648.02749	0.11396
646.09884	0.11439
644.17018	0.11470
642.24153	0.11505
640.31288	0.11554
638.38422	0.11606
636.45557	0.11647
634.52692	0.11679
632.59826	0.11715
630.66961	0.11747
628.74096	0.11735
626.81230	0.11823
624.88365	0.11933
622.95500	0.12003
621.02634	0.11989
619.09769	0.11906
617.16904	0.11859
615.24038	0.11881
613.31173	0.11846
611.38308	0.11730
609.45442	0.11921
607.52577	0.12483
605.59712	0.12826
603.66846	0.12830
601.73981	0.12785
599.81116	0.12810
597.88250	0.12916
595.95385	0.13046
594.02520	0.13113
592.09654	0.13157
590.16789	0.13269
588.23924	0.13414
586.31059	0.13536
584.38193	0.13649
582.45328	0.13762
580.52463	0.13871
578.59597	0.13986
576.66732	0.14120
574.73867	0.14278
572.81001	0.14445
570.88136	0.14602
568.95271	0.14746
567.02405	0.14891
565.09540	0.15053
563.16675	0.15229
561.23809	0.15366
559.30944	0.15451
557.38079	0.15566
555.45213	0.15714
553.52348	0.15811
551.59483	0.15859
549.66617	0.15927
547.73752	0.16056
545.80887	0.16239
543.88021	0.16393
541.95156	0.16465
540.02291	0.16542
538.09425	0.16699
536.16560	0.16867
534.23695	0.16975
532.30829	0.17070
530.37964	0.17173
528.45099	0.17240
526.52233	0.17271
524.59368	0.17310
522.66503	0.17342
520.73637	0.17323
518.80772	0.17282
516.87907	0.17265
514.95042	0.17252
513.02176	0.17204
511.09311	0.17107
509.16446	0.17005
507.23580	0.16936
505.30715	0.16865
503.37850	0.16763
501.44984	0.16627
499.52119	0.16446
497.59254	0.16264
495.66388	0.16124
493.73523	0.16011
491.80658	0.15897
489.87792	0.15761
487.94927	0.15595
486.02062	0.15424
484.09196	0.15287
482.16331	0.15205
480.23466	0.15166
478.30600	0.15125
476.37735	0.15083
474.44870	0.15070
472.52004	0.15063
470.59139	0.15039
468.66274	0.15008
466.73408	0.14955
464.80543	0.14883
462.87678	0.14813
460.94812	0.14742
459.01947	0.14674
457.09082	0.14628
455.16216	0.14604
453.23351	0.14557
451.30486	0.14457
449.37620	0.14326
447.44755	0.14199
445.51890	0.14110
443.59025	0.14069
441.66159	0.14044
439.73294	0.14012
437.80429	0.13987
435.87563	0.13990
433.94698	0.13998
432.01833	0.13974
430.08967	0.13928
428.16102	0.13890
426.23237	0.13862
424.30371	0.13834
422.37506	0.13799
420.44641	0.13763
418.51775	0.13731
416.58910	0.13695
414.66045	0.13650
412.73179	0.13602
410.80314	0.13564
408.87449	0.13546
406.94583	0.13562
405.01718	0.13603
403.08853	0.13614
401.15987	0.13569
399.23122	0.13507
