3996.16951	0.01522
3994.24086	0.01509
3992.31221	0.01514
3990.38355	0.01532
3988.45490	0.01546
3986.52625	0.01548
3984.59759	0.01552
3982.66894	0.01562
3980.74029	0.01562
3978.81163	0.01547
3976.88298	0.01530
3974.95433	0.01527
3973.02567	0.01532
3971.09702	0.01529
3969.16837	0.01521
3967.23972	0.01520
3965.31106	0.01521
3963.38241	0.01523
3961.45376	0.01536
3959.52510	0.01547
3957.59645	0.01542
3955.66780	0.01536
3953.73914	0.01541
3951.81049	0.01550
3949.88184	0.01550
3947.95318	0.01539
3946.02453	0.01528
3944.09588	0.01531
3942.16722	0.01545
3940.23857	0.01557
3938.30992	0.01552
3936.38126	0.01531
3934.45261	0.01508
3932.52396	0.01497
3930.59530	0.01507
3928.66665	0.01518
3926.73800	0.01510
3924.80934	0.01489
3922.88069	0.01478
3920.95204	0.01485
3919.02338	0.01503
3917.09473	0.01516
3915.16608	0.01521
3913.23742	0.01533
3911.30877	0.01550
3909.38012	0.01550
3907.45146	0.01532
3905.52281	0.01518
3903.59416	0.01523
3901.66550	0.01524
3899.73685	0.01498
3897.80820	0.01474
3895.87955	0.01475
3893.95089	0.01484
3892.02224	0.01484
3890.09359	0.01483
3888.16493	0.01489
3886.23628	0.01490
3884.30763	0.01486
3882.37897	0.01480
3880.45032	0.01475
3878.52167	0.01476
3876.59301	0.01471
3874.66436	0.01468
3872.73571	0.01478
3870.80705	0.01485
3868.87840	0.01488
3866.94975	0.01495
3865.02109	0.01501
3863.09244	0.01504
3861.16379	0.01496
3859.23513	0.01484
3857.30648	0.01483
3855.37783	0.01484
3853.44917	0.01484
3851.52052	0.01482
3849.59187	0.01473
3847.66321	0.01472
3845.73456	0.01485
3843.80591	0.01489
3841.87725	0.01477
3839.94860	0.01460
3838.01995	0.01447
3836.09129	0.01440
3834.16264	0.01433
3832.23399	0.01429
3830.30534	0.01432
3828.37668	0.01439
3826.44803	0.01453
3824.51938	0.01469
3822.59072	0.01472
3820.66207	0.01467
3818.73342	0.01461
3816.80476	0.01446
3814.87611	0.01440
3812.94746	0.01442
3811.01880	0.01440
3809.09015	0.01435
3807.16150	0.01435
3805.23284	0.01446
3803.30419	0.01448
3801.37554	0.01445
3799.44688	0.01447
3797.51823	0.01435
3795.58958	0.01423
3793.66092	0.01425
3791.73227	0.01429
3789.80362	0.01429
3787.87496	0.01418
3785.94631	0.01405
3784.01766	0.01399
3782.08900	0.01397
3780.16035	0.01395
3778.23170	0.01394
3776.30304	0.01397
3774.37439	0.01404
3772.44574	0.01410
3770.51708	0.01402
3768.58843	0.01389
3766.65978	0.01389
3764.73112	0.01400
3762.80247	0.01405
3760.87382	0.01399
3758.94517	0.01393
3757.01651	0.01388
3755.08786	0.01387
3753.15921	0.01388
3751.23055	0.01394
3749.30190	0.01404
3747.37325	0.01413
3745.44459	0.01395
3743.51594	0.01373
3741.58729	0.01366
3739.65863	0.01368
3737.72998	0.01378
3735.80133	0.01386
3733.87267	0.01381
3731.94402	0.01358
3730.01537	0.01336
3728.08671	0.01331
3726.15806	0.01346
3724.22941	0.01359
3722.30075	0.01349
3720.37210	0.01333
3718.44345	0.01328
3716.51479	0.01337
3714.58614	0.01347
3712.65749	0.01344
3710.72883	0.01343
3708.80018	0.01350
3706.87153	0.01352
3704.94287	0.01337
3703.01422	0.01318
3701.08557	0.01317
3699.15691	0.01315
3697.22826	0.01298
3695.29961	0.01288
3693.37095	0.01308
3691.44230	0.01346
3689.51365	0.01372
3687.58500	0.01371
3685.65634	0.01353
3683.72769	0.01332
3681.79904	0.01322
3679.87038	0.01332
3677.94173	0.01358
3676.01308	0.01373
3674.08442	0.01373
3672.15577	0.01362
3670.22712	0.01358
3668.29846	0.01358
3666.36981	0.01348
3664.44116	0.01347
3662.51250	0.01358
3660.58385	0.01363
3658.65520	0.01366
3656.72654	0.01378
3654.79789	0.01402
3652.86924	0.01424
3650.94058	0.01429
3649.01193	0.01428
3647.08328	0.01440
3645.15462	0.01456
3643.22597	0.01464
3641.29732	0.01472
3639.36866	0.01485
3637.44001	0.01499
3635.51136	0.01510
3633.58270	0.01514
3631.65405	0.01514
3629.72540	0.01512
3627.79674	0.01521
3625.86809	0.01543
3623.93944	0.01574
3622.01079	0.01605
3620.08213	0.01626
3618.15348	0.01648
3616.22483	0.01664
3614.29617	0.01672
3612.36752	0.01679
3610.43887	0.01688
3608.51021	0.01700
3606.58156	0.01720
3604.65291	0.01744
3602.72425	0.01764
3600.79560	0.01774
3598.86695	0.01783
3596.93829	0.01792
3595.00964	0.01800
3593.08099	0.01818
3591.15233	0.01845
3589.22368	0.01860
3587.29503	0.01863
3585.36637	0.01876
3583.43772	0.01901
3581.50907	0.01927
3579.58041	0.01948
3577.65176	0.01973
3575.72311	0.02005
3573.79445	0.02033
3571.86580	0.02053
3569.93715	0.02073
3568.00849	0.02098
3566.07984	0.02127
3564.15119	0.02154
3562.22253	0.02166
3560.29388	0.02166
3558.36523	0.02171
3556.43657	0.02191
3554.50792	0.02223
3552.57927	0.02261
3550.65062	0.02292
3548.72196	0.02310
3546.79331	0.02317
3544.86466	0.02332
3542.93600	0.02369
3541.00735	0.02403
3539.07870	0.02421
3537.15004	0.02444
3535.22139	0.02470
3533.29274	0.02479
3531.36408	0.02482
3529.43543	0.02497
3527.50678	0.02525
3525.57812	0.02558
3523.64947	0.02588
3521.72082	0.02611
3519.79216	0.02630
3517.86351	0.02648
3515.93486	0.02669
3514.00620	0.02690
3512.07755	0.02708
3510.14890	0.02729
3508.22024	0.02753
3506.29159	0.02770
3504.36294	0.02775
3502.43428	0.02782
3500.50563	0.02795
3498.57698	0.02809
3496.64832	0.02835
3494.71967	0.02870
3492.79102	0.02894
3490.86236	0.02906
3488.93371	0.02919
3487.00506	0.02934
3485.07641	0.02958
3483.14775	0.02991
3481.21910	0.03015
3479.29045	0.03018
3477.36179	0.03014
3475.43314	0.03028
3473.50449	0.03058
3471.57583	0.03085
3469.64718	0.03102
3467.71853	0.03117
3465.78987	0.03137
3463.86122	0.03159
3461.93257	0.03172
3460.00391	0.03174
3458.07526	0.03185
3456.14661	0.03212
3454.21795	0.03243
3452.28930	0.03269
3450.36065	0.03288
3448.43199	0.03306
3446.50334	0.03334
3444.57469	0.03363
3442.64603	0.03373
3440.71738	0.03378
3438.78873	0.03395
3436.86007	0.03415
3434.93142	0.03436
3433.00277	0.03465
3431.07411	0.03496
3429.14546	0.03519
3427.21681	0.03543
3425.28815	0.03568
3423.35950	0.03587
3421.43085	0.03598
3419.50219	0.03606
3417.57354	0.03612
3415.64489	0.03617
3413.71624	0.03628
3411.78758	0.03653
3409.85893	0.03692
3407.93028	0.03729
3406.00162	0.03751
3404.07297	0.03758
3402.14432	0.03756
3400.21566	0.03760
3398.28701	0.03776
3396.35836	0.03804
3394.42970	0.03836
3392.50105	0.03858
3390.57240	0.03868
3388.64374	0.03885
3386.71509	0.03914
3384.78644	0.03948
3382.85778	0.03981
3380.92913	0.04008
3379.00048	0.04028
3377.07182	0.04051
3375.14317	0.04077
3373.21452	0.04098
3371.28586	0.04118
3369.35721	0.04137
3367.42856	0.04151
3365.49990	0.04169
3363.57125	0.04199
3361.64260	0.04236
3359.71394	0.04276
3357.78529	0.04318
3355.85664	0.04357
3353.92798	0.04385
3351.99933	0.04406
3350.07068	0.04438
3348.14202	0.04486
3346.21337	0.04536
3344.28472	0.04572
3342.35607	0.04594
3340.42741	0.04617
3338.49876	0.04646
3336.57011	0.04681
3334.64145	0.04709
3332.71280	0.04733
3330.78415	0.04771
3328.85549	0.04813
3326.92684	0.04837
3324.99819	0.04852
3323.06953	0.04870
3321.14088	0.04886
3319.21223	0.04900
3317.28357	0.04921
3315.35492	0.04947
3313.42627	0.04962
3311.49761	0.04969
3309.56896	0.04980
3307.64031	0.04993
3305.71165	0.04999
3303.78300	0.05002
3301.85435	0.05009
3299.92569	0.05021
3297.99704	0.05032
3296.06839	0.05043
3294.13973	0.05052
3292.21108	0.05049
3290.28243	0.05041
3288.35377	0.05045
3286.42512	0.05055
3284.49647	0.05057
3282.56781	0.05055
3280.63916	0.05060
3278.71051	0.05071
3276.78186	0.05077
3274.85320	0.05073
3272.92455	0.05067
3270.99590	0.05060
3269.06724	0.05042
3267.13859	0.05018
3265.20994	0.05006
3263.28128	0.05008
3261.35263	0.05003
3259.42398	0.04984
3257.49532	0.04956
3255.56667	0.04932
3253.63802	0.04922
3251.70936	0.04916
3249.78071	0.04903
3247.85206	0.04891
3245.92340	0.04880
3243.99475	0.04870
3242.06610	0.04866
3240.13744	0.04863
3238.20879	0.04850
3236.28014	0.04835
3234.35148	0.04823
3232.42283	0.04812
3230.49418	0.04799
3228.56552	0.04790
3226.63687	0.04788
3224.70822	0.04789
3222.77956	0.04789
3220.85091	0.04789
3218.92226	0.04787
3216.99360	0.04777
3215.06495	0.04761
3213.13630	0.04749
3211.20764	0.04741
3209.27899	0.04728
3207.35034	0.04710
3205.42169	0.04699
3203.49303	0.04700
3201.56438	0.04701
3199.63573	0.04691
3197.70707	0.04672
3195.77842	0.04656
3193.84977	0.04646
3191.92111	0.04635
3189.99246	0.04616
3188.06381	0.04588
3186.13515	0.04562
3184.20650	0.04545
3182.27785	0.04530
3180.34919	0.04516
3178.42054	0.04502
3176.49189	0.04490
3174.56323	0.04477
3172.63458	0.04457
3170.70593	0.04428
3168.77727	0.04396
3166.84862	0.04369
3164.91997	0.04348
3162.99131	0.04327
3161.06266	0.04296
3159.13401	0.04264
3157.20535	0.04243
3155.27670	0.04235
3153.34805	0.04230
3151.41939	0.04221
3149.49074	0.04204
3147.56209	0.04179
3145.63343	0.04152
3143.70478	0.04128
3141.77613	0.04108
3139.84748	0.04087
3137.91882	0.04066
3135.99017	0.04050
3134.06152	0.04038
3132.13286	0.04028
3130.20421	0.04018
3128.27556	0.04005
3126.34690	0.03988
3124.41825	0.03971
3122.48960	0.03958
3120.56094	0.03958
3118.63229	0.03970
3116.70364	0.03976
3114.77498	0.03968
3112.84633	0.03958
3110.91768	0.03962
3108.98902	0.03967
3107.06037	0.03963
3105.13172	0.03960
3103.20306	0.03966
3101.27441	0.03971
3099.34576	0.03971
3097.41710	0.03982
3095.48845	0.04008
3093.55980	0.04033
3091.63114	0.04046
3089.70249	0.04048
3087.77384	0.04045
3085.84518	0.04047
3083.91653	0.04052
3081.98788	0.04057
3080.05922	0.04070
3078.13057	0.04086
3076.20192	0.04095
3074.27326	0.04097
3072.34461	0.04095
3070.41596	0.04092
3068.48731	0.04089
3066.55865	0.04081
3064.63000	0.04071
3062.70135	0.04063
3060.77269	0.04063
3058.84404	0.04061
3056.91539	0.04051
3054.98673	0.04038
3053.05808	0.04026
3051.12943	0.04018
3049.20077	0.04005
3047.27212	0.03979
3045.34347	0.03947
3043.41481	0.03921
3041.48616	0.03901
3039.55751	0.03882
3037.62885	0.03865
3035.70020	0.03856
3033.77155	0.03850
3031.84289	0.03833
3029.91424	0.03799
3027.98559	0.03763
3026.05693	0.03740
3024.12828	0.03731
3022.19963	0.03722
3020.27097	0.03707
3018.34232	0.03693
3016.41367	0.03683
3014.48501	0.03674
3012.55636	0.03668
3010.62771	0.03669
3008.69905	0.03671
3006.77040	0.03671
3004.84175	0.03668
3002.91309	0.03666
3000.98444	0.03664
2999.05579	0.03666
2997.12714	0.03674
2995.19848	0.03685
2993.26983	0.03691
2991.34118	0.03695
2989.41252	0.03701
2987.48387	0.03711
2985.55522	0.03730
2983.62656	0.03748
2981.69791	0.03760
2979.76926	0.03773
2977.84060	0.03793
2975.91195	0.03818
2973.98330	0.03840
2972.05464	0.03854
2970.12599	0.03867
2968.19734	0.03884
2966.26868	0.03906
2964.34003	0.03928
2962.41138	0.03948
2960.48272	0.03962
2958.55407	0.03976
2956.62542	0.03988
2954.69676	0.03990
2952.76811	0.03989
2950.83946	0.03992
2948.91080	0.04003
2946.98215	0.04024
2945.05350	0.04040
2943.12484	0.04046
2941.19619	0.04062
2939.26754	0.04098
2937.33888	0.04142
2935.41023	0.04177
2933.48158	0.04205
2931.55293	0.04237
2929.62427	0.04263
2927.69562	0.04281
2925.76697	0.04296
2923.83831	0.04303
2921.90966	0.04295
2919.98101	0.04279
2918.05235	0.04255
2916.12370	0.04213
2914.19505	0.04151
2912.26639	0.04078
2910.33774	0.04015
2908.40909	0.03967
2906.48043	0.03926
2904.55178	0.03890
2902.62313	0.03858
2900.69447	0.03827
2898.76582	0.03800
2896.83717	0.03783
2894.90851	0.03773
2892.97986	0.03757
2891.05121	0.03741
2889.12255	0.03734
2887.19390	0.03730
2885.26525	0.03722
2883.33659	0.03708
2881.40794	0.03694
2879.47929	0.03690
2877.55063	0.03703
2875.62198	0.03718
2873.69333	0.03722
2871.76467	0.03714
2869.83602	0.03704
2867.90737	0.03696
2865.97871	0.03685
2864.05006	0.03670
2862.12141	0.03661
2860.19276	0.03662
2858.26410	0.03668
2856.33545	0.03673
2854.40680	0.03686
2852.47814	0.03697
2850.54949	0.03688
2848.62084	0.03654
2846.69218	0.03604
2844.76353	0.03548
2842.83488	0.03496
2840.90622	0.03453
2838.97757	0.03416
2837.04892	0.03382
2835.12026	0.03360
2833.19161	0.03347
2831.26296	0.03338
2829.33430	0.03331
2827.40565	0.03319
2825.47700	0.03299
2823.54834	0.03280
2821.61969	0.03264
2819.69104	0.03256
2817.76238	0.03253
2815.83373	0.03248
2813.90508	0.03237
2811.97642	0.03228
2810.04777	0.03223
2808.11912	0.03214
2806.19046	0.03201
2804.26181	0.03191
2802.33316	0.03183
2800.40450	0.03171
2798.47585	0.03156
2796.54720	0.03147
2794.61855	0.03144
2792.68989	0.03137
2790.76124	0.03129
2788.83259	0.03125
2786.90393	0.03123
2784.97528	0.03116
2783.04663	0.03103
2781.11797	0.03086
2779.18932	0.03071
2777.26067	0.03059
2775.33201	0.03048
2773.40336	0.03040
2771.47471	0.03037
2769.54605	0.03031
2767.61740	0.03019
2765.68875	0.03009
2763.76009	0.02998
2761.83144	0.02987
2759.90279	0.02980
2757.97413	0.02975
2756.04548	0.02968
2754.11683	0.02961
2752.18817	0.02956
2750.25952	0.02951
2748.33087	0.02947
2746.40221	0.02945
2744.47356	0.02944
2742.54491	0.02939
2740.61625	0.02932
2738.68760	0.02923
2736.75895	0.02912
2734.83029	0.02902
2732.90164	0.02897
2730.97299	0.02893
2729.04433	0.02882
2727.11568	0.02866
2725.18703	0.02854
2723.25838	0.02844
2721.32972	0.02832
2719.40107	0.02822
2717.47242	0.02818
2715.54376	0.02815
2713.61511	0.02814
2711.68646	0.02812
2709.75780	0.02804
2707.82915	0.02791
2705.90050	0.02780
2703.97184	0.02771
2702.04319	0.02767
2700.11454	0.02768
2698.18588	0.02769
2696.25723	0.02768
2694.32858	0.02761
2692.39992	0.02751
2690.47127	0.02743
2688.54262	0.02740
2686.61396	0.02740
2684.68531	0.02737
2682.75666	0.02730
2680.82800	0.02724
2678.89935	0.02718
2676.97070	0.02711
2675.04204	0.02705
2673.11339	0.02703
2671.18474	0.02703
2669.25608	0.02699
2667.32743	0.02695
2665.39878	0.02690
2663.47012	0.02682
2661.54147	0.02671
2659.61282	0.02661
2657.68417	0.02653
2655.75551	0.02643
2653.82686	0.02633
2651.89821	0.02623
2649.96955	0.02611
2648.04090	0.02594
2646.11225	0.02582
2644.18359	0.02575
2642.25494	0.02567
2640.32629	0.02555
2638.39763	0.02538
2636.46898	0.02514
2634.54033	0.02493
2632.61167	0.02484
2630.68302	0.02476
2628.75437	0.02464
2626.82571	0.02455
2624.89706	0.02445
2622.96841	0.02429
2621.03975	0.02410
2619.11110	0.02391
2617.18245	0.02369
2615.25379	0.02345
2613.32514	0.02327
2611.39649	0.02321
2609.46783	0.02329
2607.53918	0.02340
2605.61053	0.02336
2603.68187	0.02313
2601.75322	0.02284
2599.82457	0.02263
2597.89591	0.02255
2595.96726	0.02243
2594.03861	0.02224
2592.10995	0.02212
2590.18130	0.02208
2588.25265	0.02206
2586.32400	0.02201
2584.39534	0.02182
2582.46669	0.02156
2580.53804	0.02146
2578.60938	0.02163
2576.68073	0.02179
2574.75208	0.02170
2572.82342	0.02148
2570.89477	0.02124
2568.96612	0.02103
2567.03746	0.02092
2565.10881	0.02097
2563.18016	0.02103
2561.25150	0.02095
2559.32285	0.02078
2557.39420	0.02063
2555.46554	0.02056
2553.53689	0.02059
2551.60824	0.02071
2549.67958	0.02078
2547.75093	0.02075
2545.82228	0.02069
2543.89362	0.02062
2541.96497	0.02055
2540.03632	0.02051
2538.10766	0.02048
2536.17901	0.02045
2534.25036	0.02038
2532.32170	0.02026
2530.39305	0.02014
2528.46440	0.01999
2526.53574	0.01987
2524.60709	0.01981
2522.67844	0.01981
2520.74978	0.01988
2518.82113	0.02000
2516.89248	0.02006
2514.96383	0.02001
2513.03517	0.01992
2511.10652	0.01992
2509.17787	0.02003
2507.24921	0.02016
2505.32056	0.02020
2503.39191	0.02015
2501.46325	0.02005
2499.53460	0.01984
2497.60595	0.01962
2495.67729	0.01957
2493.74864	0.01965
2491.81999	0.01967
2489.89133	0.01960
2487.96268	0.01958
2486.03403	0.01961
2484.10537	0.01964
2482.17672	0.01963
2480.24807	0.01947
2478.31941	0.01933
2476.39076	0.01943
2474.46211	0.01961
2472.53345	0.01968
2470.60480	0.01969
2468.67615	0.01970
2466.74749	0.01968
2464.81884	0.01967
2462.89019	0.01971
2460.96153	0.01978
2459.03288	0.01977
2457.10423	0.01962
2455.17557	0.01944
2453.24692	0.01931
2451.31827	0.01922
2449.38962	0.01920
2447.46096	0.01925
2445.53231	0.01929
2443.60366	0.01928
2441.67500	0.01930
2439.74635	0.01939
2437.81770	0.01945
2435.88904	0.01939
2433.96039	0.01934
2432.03174	0.01939
2430.10308	0.01945
2428.17443	0.01944
2426.24578	0.01938
2424.31712	0.01937
2422.38847	0.01942
2420.45982	0.01941
2418.53116	0.01936
2416.60251	0.01944
2414.67386	0.01954
2412.74520	0.01948
2410.81655	0.01939
2408.88790	0.01937
2406.95924	0.01939
2405.03059	0.01948
2403.10194	0.01959
2401.17328	0.01963
2399.24463	0.01956
2397.31598	0.01946
2395.38732	0.01944
2393.45867	0.01965
2391.53002	0.01998
2389.60136	0.02015
2387.67271	0.02011
2385.74406	0.01999
2383.81540	0.01993
2381.88675	0.01997
2379.95810	0.02007
2378.02945	0.02016
2376.10079	0.02024
2374.17214	0.02029
2372.24349	0.02029
2370.31483	0.02030
2368.38618	0.02036
2366.45753	0.02049
2364.52887	0.02068
2362.60022	0.02087
2360.67157	0.02095
2358.74291	0.02092
2356.81426	0.02090
2354.88561	0.02096
2352.95695	0.02106
2351.02830	0.02113
2349.09965	0.02116
2347.17099	0.02117
2345.24234	0.02117
2343.31369	0.02115
2341.38503	0.02112
2339.45638	0.02105
2337.52773	0.02095
2335.59907	0.02085
2333.67042	0.02078
2331.74177	0.02077
2329.81311	0.02077
2327.88446	0.02086
2325.95581	0.02106
2324.02715	0.02115
2322.09850	0.02096
2320.16985	0.02066
2318.24119	0.02039
2316.31254	0.02015
2314.38389	0.01992
2312.45524	0.01970
2310.52658	0.01949
2308.59793	0.01927
2306.66928	0.01902
2304.74062	0.01878
2302.81197	0.01858
2300.88332	0.01842
2298.95466	0.01828
2297.02601	0.01815
2295.09736	0.01802
2293.16870	0.01783
2291.24005	0.01761
2289.31140	0.01746
2287.38274	0.01737
2285.45409	0.01720
2283.52544	0.01698
2281.59678	0.01682
2279.66813	0.01669
2277.73948	0.01648
2275.81082	0.01608
2273.88217	0.01560
2271.95352	0.01533
2270.02486	0.01530
2268.09621	0.01522
2266.16756	0.01499
2264.23890	0.01485
2262.31025	0.01481
2260.38160	0.01466
2258.45294	0.01436
2256.52429	0.01405
2254.59564	0.01376
2252.66698	0.01348
2250.73833	0.01325
2248.80968	0.01320
2246.88102	0.01328
2244.95237	0.01341
2243.02372	0.01331
2241.09507	0.01307
2239.16641	0.01286
2237.23776	0.01258
2235.30911	0.01240
2233.38045	0.01247
2231.45180	0.01251
2229.52315	0.01239
2227.59449	0.01224
2225.66584	0.01203
2223.73719	0.01171
2221.80853	0.01134
2219.87988	0.01110
2217.95123	0.01101
2216.02257	0.01094
2214.09392	0.01086
2212.16527	0.01078
2210.23661	0.01069
2208.30796	0.01061
2206.37931	0.01040
2204.45065	0.01010
2202.52200	0.00995
2200.59335	0.00998
2198.66469	0.01002
2196.73604	0.01003
2194.80739	0.00995
2192.87873	0.00984
2190.95008	0.00972
2189.02143	0.00943
2187.09277	0.00914
2185.16412	0.00917
2183.23547	0.00930
2181.30681	0.00929
2179.37816	0.00913
2177.44951	0.00882
2175.52085	0.00860
2173.59220	0.00861
2171.66355	0.00863
2169.73490	0.00855
2167.80624	0.00836
2165.87759	0.00782
2163.94894	0.00706
2162.02028	0.00635
2160.09163	0.00561
2158.16298	0.00516
2156.23432	0.00560
2154.30567	0.00667
2152.37702	0.00741
2150.44836	0.00770
2148.51971	0.00795
2146.59106	0.00819
2144.66240	0.00835
2142.73375	0.00845
2140.80510	0.00857
2138.87644	0.00882
2136.94779	0.00905
2135.01914	0.00923
2133.09048	0.00957
2131.16183	0.01010
2129.23318	0.01066
2127.30452	0.01112
2125.37587	0.01147
2123.44722	0.01185
2121.51856	0.01206
2119.58991	0.01191
2117.66126	0.01180
2115.73260	0.01202
2113.80395	0.01227
2111.87530	0.01220
2109.94664	0.01192
2108.01799	0.01181
2106.08934	0.01181
2104.16069	0.01168
2102.23203	0.01170
2100.30338	0.01195
2098.37473	0.01202
2096.44607	0.01180
2094.51742	0.01157
2092.58877	0.01145
2090.66011	0.01144
2088.73146	0.01154
2086.80281	0.01156
2084.87415	0.01146
2082.94550	0.01146
2081.01685	0.01155
2079.08819	0.01157
2077.15954	0.01142
2075.23089	0.01116
2073.30223	0.01091
2071.37358	0.01066
2069.44493	0.01043
2067.51627	0.01030
2065.58762	0.01020
2063.65897	0.01002
2061.73031	0.00973
2059.80166	0.00946
2057.87301	0.00944
2055.94435	0.00958
2054.01570	0.00958
2052.08705	0.00934
2050.15839	0.00893
2048.22974	0.00843
2046.30109	0.00807
2044.37243	0.00773
2042.44378	0.00731
2040.51513	0.00701
2038.58647	0.00678
2036.65782	0.00642
2034.72917	0.00624
2032.80052	0.00637
2030.87186	0.00641
2028.94321	0.00633
2027.01456	0.00641
2025.08590	0.00663
2023.15725	0.00675
2021.22860	0.00663
2019.29994	0.00637
2017.37129	0.00619
2015.44264	0.00616
2013.51398	0.00613
2011.58533	0.00620
2009.65668	0.00642
2007.72802	0.00653
2005.79937	0.00645
2003.87072	0.00656
2001.94206	0.00703
2000.01341	0.00743
1998.08476	0.00730
1996.15610	0.00700
1994.22745	0.00700
1992.29880	0.00728
1990.37014	0.00760
1988.44149	0.00781
1986.51284	0.00789
1984.58418	0.00796
1982.65553	0.00798
1980.72688	0.00775
1978.79822	0.00732
1976.86957	0.00702
1974.94092	0.00702
1973.01226	0.00719
1971.08361	0.00733
1969.15496	0.00743
1967.22631	0.00750
1965.29765	0.00744
1963.36900	0.00739
1961.44035	0.00763
1959.51169	0.00805
1957.58304	0.00818
1955.65439	0.00807
1953.72573	0.00816
1951.79708	0.00845
1949.86843	0.00863
1947.93977	0.00877
1946.01112	0.00919
1944.08247	0.00968
1942.15381	0.00984
1940.22516	0.00977
1938.29651	0.00990
1936.36785	0.01023
1934.43920	0.01041
1932.51055	0.01027
1930.58189	0.01008
1928.65324	0.01018
1926.72459	0.01038
1924.79593	0.01041
1922.86728	0.01043
1920.93863	0.01056
1919.00997	0.01070
1917.08132	0.01081
1915.15267	0.01098
1913.22401	0.01113
1911.29536	0.01121
1909.36671	0.01136
1907.43805	0.01161
1905.50940	0.01172
1903.58075	0.01165
1901.65209	0.01154
1899.72344	0.01152
1897.79479	0.01170
1895.86614	0.01193
1893.93748	0.01203
1892.00883	0.01195
1890.08018	0.01183
1888.15152	0.01183
1886.22287	0.01195
1884.29422	0.01200
1882.36556	0.01196
1880.43691	0.01192
1878.50826	0.01196
1876.57960	0.01202
1874.65095	0.01208
1872.72230	0.01216
1870.79364	0.01227
1868.86499	0.01240
1866.93634	0.01252
1865.00768	0.01254
1863.07903	0.01248
1861.15038	0.01241
1859.22172	0.01232
1857.29307	0.01219
1855.36442	0.01216
1853.43576	0.01234
1851.50711	0.01258
1849.57846	0.01264
1847.64980	0.01257
1845.72115	0.01257
1843.79250	0.01274
1841.86384	0.01294
1839.93519	0.01295
1838.00654	0.01283
1836.07788	0.01275
1834.14923	0.01281
1832.22058	0.01296
1830.29192	0.01305
1828.36327	0.01305
1826.43462	0.01305
1824.50597	0.01316
1822.57731	0.01332
1820.64866	0.01334
1818.72001	0.01327
1816.79135	0.01325
1814.86270	0.01327
1812.93405	0.01327
1811.00539	0.01326
1809.07674	0.01328
1807.14809	0.01328
1805.21943	0.01331
1803.29078	0.01336
1801.36213	0.01341
1799.43347	0.01346
1797.50482	0.01356
1795.57617	0.01366
1793.64751	0.01368
1791.71886	0.01362
1789.79021	0.01356
1787.86155	0.01354
1785.93290	0.01357
1784.00425	0.01361
1782.07559	0.01358
1780.14694	0.01355
1778.21829	0.01358
1776.28963	0.01364
1774.36098	0.01368
1772.43233	0.01369
1770.50367	0.01369
1768.57502	0.01363
1766.64637	0.01360
1764.71771	0.01366
1762.78906	0.01371
1760.86041	0.01377
1758.93176	0.01385
1757.00310	0.01396
1755.07445	0.01416
1753.14580	0.01437
1751.21714	0.01458
1749.28849	0.01479
1747.35984	0.01492
1745.43118	0.01509
1743.50253	0.01539
1741.57388	0.01577
1739.64522	0.01616
1737.71657	0.01662
1735.78792	0.01703
1733.85926	0.01734
1731.93061	0.01761
1730.00196	0.01784
1728.07330	0.01822
1726.14465	0.01872
1724.21600	0.01920
1722.28734	0.01967
1720.35869	0.02019
1718.43004	0.02074
1716.50138	0.02143
1714.57273	0.02218
1712.64408	0.02292
1710.71542	0.02376
1708.78677	0.02468
1706.85812	0.02567
1704.92946	0.02680
1703.00081	0.02816
1701.07216	0.02972
1699.14350	0.03158
1697.21485	0.03351
1695.28620	0.03543
1693.35754	0.03752
1691.42889	0.03961
1689.50024	0.04183
1687.57159	0.04424
1685.64293	0.04671
1683.71428	0.04933
1681.78563	0.05208
1679.85697	0.05486
1677.92832	0.05789
1675.99967	0.06119
1674.07101	0.06470
1672.14236	0.06822
1670.21371	0.07173
1668.28505	0.07530
1666.35640	0.07884
1664.42775	0.08223
1662.49909	0.08552
1660.57044	0.08865
1658.64179	0.09153
1656.71313	0.09417
1654.78448	0.09645
1652.85583	0.09847
1650.92717	0.10034
1648.99852	0.10183
1647.06987	0.10313
1645.14121	0.10442
1643.21256	0.10553
1641.28391	0.10646
1639.35525	0.10741
1637.42660	0.10829
1635.49795	0.10901
1633.56929	0.10952
1631.64064	0.10963
1629.71199	0.10929
1627.78333	0.10850
1625.85468	0.10721
1623.92603	0.10535
1621.99738	0.10304
1620.06872	0.10042
1618.14007	0.09749
1616.21142	0.09436
1614.28276	0.09111
1612.35411	0.08771
1610.42546	0.08429
1608.49680	0.08090
1606.56815	0.07756
1604.63950	0.07438
1602.71084	0.07143
1600.78219	0.06870
1598.85354	0.06621
1596.92488	0.06400
1594.99623	0.06212
1593.06758	0.06054
1591.13892	0.05921
1589.21027	0.05809
1587.28162	0.05718
1585.35296	0.05655
1583.42431	0.05628
1581.49566	0.05641
1579.56700	0.05689
1577.63835	0.05762
1575.70970	0.05864
1573.78104	0.05993
1571.85239	0.06134
1569.92374	0.06302
1567.99508	0.06503
1566.06643	0.06719
1564.13778	0.06946
1562.20912	0.07181
1560.28047	0.07411
1558.35182	0.07643
1556.42316	0.07859
1554.49451	0.08038
1552.56586	0.08203
1550.63721	0.08356
1548.70855	0.08492
1546.77990	0.08606
1544.85125	0.08695
1542.92259	0.08767
1540.99394	0.08818
1539.06529	0.08845
1537.13663	0.08847
1535.20798	0.08818
1533.27933	0.08779
1531.35067	0.08736
1529.42202	0.08674
1527.49337	0.08595
1525.56471	0.08510
1523.63606	0.08421
1521.70741	0.08321
1519.77875	0.08216
1517.85010	0.08092
1515.92145	0.07948
1513.99279	0.07791
1512.06414	0.07620
1510.13549	0.07437
1508.20683	0.07237
1506.27818	0.07026
1504.34953	0.06817
1502.42087	0.06604
1500.49222	0.06395
1498.56357	0.06201
1496.63491	0.06013
1494.70626	0.05832
1492.77761	0.05663
1490.84895	0.05509
1488.92030	0.05376
1486.99165	0.05267
1485.06299	0.05188
1483.13434	0.05142
1481.20569	0.05127
1479.27704	0.05141
1477.34838	0.05185
1475.41973	0.05264
1473.49108	0.05372
1471.56242	0.05501
1469.63377	0.05643
1467.70512	0.05783
1465.77646	0.05920
1463.84781	0.06059
1461.91916	0.06200
1459.99050	0.06347
1458.06185	0.06503
1456.13320	0.06660
1454.20454	0.06791
1452.27589	0.06875
1450.34724	0.06921
1448.41858	0.06937
1446.48993	0.06929
1444.56128	0.06899
1442.63262	0.06850
1440.70397	0.06787
1438.77532	0.06710
1436.84666	0.06615
1434.91801	0.06513
1432.98936	0.06403
1431.06070	0.06291
1429.13205	0.06194
1427.20340	0.06119
1425.27474	0.06067
1423.34609	0.06035
1421.41744	0.06018
1419.48878	0.06012
1417.56013	0.06021
1415.63148	0.06038
1413.70283	0.06055
1411.77417	0.06068
1409.84552	0.06077
1407.91687	0.06080
1405.98821	0.06069
1404.05956	0.06042
1402.13091	0.06005
1400.20225	0.05961
1398.27360	0.05912
1396.34495	0.05857
1394.41629	0.05798
1392.48764	0.05750
1390.55899	0.05714
1388.63033	0.05685
1386.70168	0.05658
1384.77303	0.05632
1382.84437	0.05606
1380.91572	0.05579
1378.98707	0.05552
1377.05841	0.05520
1375.12976	0.05479
1373.20111	0.05433
1371.27245	0.05387
1369.34380	0.05334
1367.41515	0.05271
1365.48649	0.05202
1363.55784	0.05142
1361.62919	0.05100
1359.70053	0.05076
1357.77188	0.05065
1355.84323	0.05071
1353.91457	0.05100
1351.98592	0.05152
1350.05727	0.05224
1348.12861	0.05310
1346.19996	0.05401
1344.27131	0.05496
1342.34266	0.05588
1340.41400	0.05666
1338.48535	0.05720
1336.55670	0.05751
1334.62804	0.05757
1332.69939	0.05736
1330.77074	0.05693
1328.84208	0.05640
1326.91343	0.05585
1324.98478	0.05529
1323.05612	0.05478
1321.12747	0.05438
1319.19882	0.05410
1317.27016	0.05391
1315.34151	0.05377
1313.41286	0.05359
1311.48420	0.05337
1309.55555	0.05315
1307.62690	0.05298
1305.69824	0.05287
1303.76959	0.05281
1301.84094	0.05276
1299.91228	0.05277
1297.98363	0.05283
1296.05498	0.05297
1294.12632	0.05322
1292.19767	0.05361
1290.26902	0.05412
1288.34036	0.05472
1286.41171	0.05534
1284.48306	0.05594
1282.55440	0.05651
1280.62575	0.05701
1278.69710	0.05734
1276.76845	0.05752
1274.83979	0.05769
1272.91114	0.05793
1270.98249	0.05823
1269.05383	0.05860
1267.12518	0.05912
1265.19653	0.05976
1263.26787	0.06041
1261.33922	0.06102
1259.41057	0.06164
1257.48191	0.06232
1255.55326	0.06306
1253.62461	0.06393
1251.69595	0.06497
1249.76730	0.06614
1247.83865	0.06733
1245.90999	0.06847
1243.98134	0.06958
1242.05269	0.07070
1240.12403	0.07173
1238.19538	0.07252
1236.26673	0.07301
1234.33807	0.07326
1232.40942	0.07325
1230.48077	0.07296
1228.55211	0.07236
1226.62346	0.07150
1224.69481	0.07045
1222.76615	0.06932
1220.83750	0.06820
1218.90885	0.06717
1216.98019	0.06635
1215.05154	0.06582
1213.12289	0.06556
1211.19423	0.06558
1209.26558	0.06584
1207.33693	0.06627
1205.40828	0.06680
1203.47962	0.06727
1201.55097	0.06747
1199.62232	0.06727
1197.69366	0.06692
1195.76501	0.06639
1193.83636	0.06575
1191.90770	0.06513
1189.97905	0.06454
1188.05040	0.06397
1186.12174	0.06354
1184.19309	0.06329
1182.26444	0.06317
1180.33578	0.06311
1178.40713	0.06319
1176.47848	0.06348
1174.54982	0.06393
1172.62117	0.06443
1170.69252	0.06491
1168.76386	0.06542
1166.83521	0.06599
1164.90656	0.06653
1162.97790	0.06708
1161.04925	0.06768
1159.12060	0.06821
1157.19194	0.06855
1155.26329	0.06876
1153.33464	0.06889
1151.40598	0.06896
1149.47733	0.06893
1147.54868	0.06890
1145.62002	0.06895
1143.69137	0.06896
1141.76272	0.06897
1139.83406	0.06912
1137.90541	0.06944
1135.97676	0.06988
1134.04811	0.07037
1132.11945	0.07083
1130.19080	0.07129
1128.26215	0.07181
1126.33349	0.07233
1124.40484	0.07279
1122.47619	0.07339
1120.54753	0.07415
1118.61888	0.07491
1116.69023	0.07554
1114.76157	0.07606
1112.83292	0.07659
1110.90427	0.07726
1108.97561	0.07810
1107.04696	0.07894
1105.11831	0.07964
1103.18965	0.08033
1101.26100	0.08113
1099.33235	0.08193
1097.40369	0.08273
1095.47504	0.08359
1093.54639	0.08449
1091.61773	0.08543
1089.68908	0.08651
1087.76043	0.08771
1085.83177	0.08891
1083.90312	0.09003
1081.97447	0.09098
1080.04581	0.09166
1078.11716	0.09199
1076.18851	0.09198
1074.25985	0.09180
1072.33120	0.09152
1070.40255	0.09115
1068.47390	0.09076
1066.54524	0.09048
1064.61659	0.09033
1062.68794	0.09013
1060.75928	0.08974
1058.83063	0.08925
1056.90198	0.08875
1054.97332	0.08824
1053.04467	0.08770
1051.11602	0.08709
1049.18736	0.08643
1047.25871	0.08582
1045.33006	0.08535
1043.40140	0.08505
1041.47275	0.08487
1039.54410	0.08487
1037.61544	0.08510
1035.68679	0.08553
1033.75814	0.08607
1031.82948	0.08657
1029.90083	0.08679
1027.97218	0.08671
1026.04352	0.08640
1024.11487	0.08594
1022.18622	0.08554
1020.25756	0.08534
1018.32891	0.08528
1016.40026	0.08518
1014.47160	0.08501
1012.54295	0.08474
1010.61430	0.08429
1008.68564	0.08373
1006.75699	0.08317
1004.82834	0.08252
1002.89968	0.08175
1000.97103	0.08094
999.04238	0.08003
997.11373	0.07897
995.18507	0.07792
993.25642	0.07697
991.32777	0.07602
989.39911	0.07496
987.47046	0.07389
985.54181	0.07296
983.61315	0.07221
981.68450	0.07169
979.75585	0.07133
977.82719	0.07091
975.89854	0.07044
973.96989	0.07017
972.04123	0.07012
970.11258	0.06995
968.18393	0.06951
966.25527	0.06907
964.32662	0.06890
962.39797	0.06894
960.46931	0.06894
958.54066	0.06884
956.61201	0.06868
954.68335	0.06847
952.75470	0.06832
950.82605	0.06824
948.89739	0.06806
946.96874	0.06776
945.04009	0.06751
943.11143	0.06725
941.18278	0.06688
939.25413	0.06654
937.32547	0.06636
935.39682	0.06610
933.46817	0.06561
931.53952	0.06503
929.61086	0.06452
927.68221	0.06400
925.75356	0.06346
923.82490	0.06309
921.89625	0.06281
919.96760	0.06237
918.03894	0.06180
916.11029	0.06123
914.18164	0.06058
912.25298	0.05994
910.32433	0.05966
908.39568	0.05968
906.46702	0.05965
904.53837	0.05959
902.60972	0.05958
900.68106	0.05955
898.75241	0.05943
896.82376	0.05926
894.89510	0.05921
892.96645	0.05929
891.03780	0.05935
889.10914	0.05946
887.18049	0.05969
885.25184	0.05998
883.32318	0.06041
881.39453	0.06095
879.46588	0.06147
877.53722	0.06190
875.60857	0.06224
873.67992	0.06247
871.75126	0.06249
869.82261	0.06230
867.89396	0.06203
865.96530	0.06168
864.03665	0.06114
862.10800	0.06055
860.17935	0.06007
858.25069	0.05970
856.32204	0.05943
854.39339	0.05918
852.46473	0.05884
850.53608	0.05832
848.60743	0.05767
846.67877	0.05699
844.75012	0.05637
842.82147	0.05582
840.89281	0.05530
838.96416	0.05492
837.03551	0.05467
835.10685	0.05432
833.17820	0.05390
831.24955	0.05366
829.32089	0.05364
827.39224	0.05365
825.46359	0.05355
823.53493	0.05338
821.60628	0.05327
819.67763	0.05329
817.74897	0.05349
815.82032	0.05376
813.89167	0.05404
811.96301	0.05426
810.03436	0.05430
808.10571	0.05424
806.17705	0.05428
804.24840	0.05435
802.31975	0.05441
800.39109	0.05448
798.46244	0.05462
796.53379	0.05487
794.60513	0.05516
792.67648	0.05531
790.74783	0.05539
788.81918	0.05552
786.89052	0.05577
784.96187	0.05608
783.03322	0.05640
781.10456	0.05667
779.17591	0.05687
777.24726	0.05694
775.31860	0.05694
773.38995	0.05698
771.46130	0.05711
769.53264	0.05741
767.60399	0.05797
765.67534	0.05862
763.74668	0.05902
761.81803	0.05921
759.88938	0.05950
757.96072	0.05993
756.03207	0.06027
754.10342	0.06055
752.17476	0.06090
750.24611	0.06130
748.31746	0.06170
746.38880	0.06213
744.46015	0.06245
742.53150	0.06274
740.60284	0.06328
738.67419	0.06402
736.74554	0.06454
734.81688	0.06482
732.88823	0.06534
730.95958	0.06621
729.03092	0.06707
727.10227	0.06784
725.17362	0.06864
723.24497	0.06906
721.31631	0.06938
719.38766	0.06967
717.45901	0.07023
715.53035	0.07099
713.60170	0.07162
711.67305	0.07210
709.74439	0.07270
707.81574	0.07339
705.88709	0.07394
703.95843	0.07442
702.02978	0.07495
700.10113	0.07547
698.17247	0.07593
696.24382	0.07636
694.31517	0.07679
692.38651	0.07724
690.45786	0.07770
688.52921	0.07813
686.60055	0.07841
684.67190	0.07860
682.74325	0.07900
680.81459	0.07965
678.88594	0.08026
676.95729	0.08071
675.02863	0.08112
673.09998	0.08159
671.17133	0.08204
669.24267	0.08246
667.31402	0.08292
665.38537	0.08344
663.45671	0.08394
661.52806	0.08435
659.59941	0.08470
657.67075	0.08508
655.74210	0.08555
653.81345	0.08602
651.88480	0.08641
649.95614	0.08677
648.02749	0.08713
646.09884	0.08741
644.17018	0.08762
642.24153	0.08779
640.31288	0.08809
638.38422	0.08860
636.45557	0.08917
634.52692	0.08963
632.59826	0.09008
630.66961	0.09000
628.74096	0.08824
626.81230	0.09044
624.88365	0.09335
622.95500	0.09549
621.02634	0.09744
619.09769	0.09827
617.16904	0.09652
615.24038	0.09356
613.31173	0.09153
611.38308	0.09162
609.45442	0.09429
607.52577	0.09747
605.59712	0.09966
603.66846	0.10220
601.73981	0.10471
599.81116	0.10551
597.88250	0.10546
595.95385	0.10557
594.02520	0.10554
592.09654	0.10569
590.16789	0.10663
588.23924	0.10787
586.31059	0.10885
584.38193	0.10978
582.45328	0.11077
580.52463	0.11155
578.59597	0.11220
576.66732	0.11324
574.73867	0.11489
572.81001	0.11671
570.88136	0.11820
568.95271	0.11962
567.02405	0.12143
565.09540	0.12339
563.16675	0.12503
561.23809	0.12596
559.30944	0.12635
557.38079	0.12709
555.45213	0.12826
553.52348	0.12889
551.59483	0.12895
549.66617	0.12922
547.73752	0.12993
545.80887	0.13088
543.88021	0.13169
541.95156	0.13217
540.02291	0.13272
538.09425	0.13348
536.16560	0.13422
534.23695	0.13511
532.30829	0.13636
530.37964	0.13754
528.45099	0.13816
526.52233	0.13811
524.59368	0.13778
522.66503	0.13761
520.73637	0.13755
518.80772	0.13716
516.87907	0.13641
514.95042	0.13565
513.02176	0.13485
511.09311	0.13387
509.16446	0.13307
507.23580	0.13248
505.30715	0.13168
503.37850	0.13058
501.44984	0.12938
499.52119	0.12826
497.59254	0.12738
495.66388	0.12656
493.73523	0.12550
491.80658	0.12416
489.87792	0.12272
487.94927	0.12138
486.02062	0.12020
484.09196	0.11924
482.16331	0.11848
480.23466	0.11796
478.30600	0.11783
476.37735	0.11791
474.44870	0.11787
472.52004	0.11751
470.59139	0.11701
468.66274	0.11657
466.73408	0.11604
464.80543	0.11548
462.87678	0.11507
460.94812	0.11469
459.01947	0.11417
457.09082	0.11363
455.16216	0.11311
453.23351	0.11255
451.30486	0.11189
449.37620	0.11113
447.44755	0.11041
445.51890	0.10983
443.59025	0.10931
441.66159	0.10898
439.73294	0.10897
437.80429	0.10905
435.87563	0.10896
433.94698	0.10867
432.01833	0.10822
430.08967	0.10779
428.16102	0.10745
426.23237	0.10702
424.30371	0.10645
422.37506	0.10604
420.44641	0.10594
418.51775	0.10593
416.58910	0.10583
414.66045	0.10557
412.73179	0.10506
410.80314	0.10439
408.87449	0.10388
406.94583	0.10384
405.01718	0.10426
403.08853	0.10462
401.15987	0.10454
399.23122	0.10410
