3996.16951	0.01182
3994.24086	0.01189
3992.31221	0.01198
3990.38355	0.01202
3988.45490	0.01209
3986.52625	0.01230
3984.59759	0.01250
3982.66894	0.01251
3980.74029	0.01242
3978.81163	0.01236
3976.88298	0.01227
3974.95433	0.01207
3973.02567	0.01192
3971.09702	0.01195
3969.16837	0.01202
3967.23972	0.01198
3965.31106	0.01194
3963.38241	0.01195
3961.45376	0.01195
3959.52510	0.01187
3957.59645	0.01178
3955.66780	0.01184
3953.73914	0.01204
3951.81049	0.01220
3949.88184	0.01216
3947.95318	0.01201
3946.02453	0.01190
3944.09588	0.01189
3942.16722	0.01191
3940.23857	0.01182
3938.30992	0.01163
3936.38126	0.01152
3934.45261	0.01160
3932.52396	0.01174
3930.59530	0.01182
3928.66665	0.01184
3926.73800	0.01175
3924.80934	0.01160
3922.88069	0.01152
3920.95204	0.01155
3919.02338	0.01166
3917.09473	0.01178
3915.16608	0.01184
3913.23742	0.01181
3911.30877	0.01176
3909.38012	0.01176
3907.45146	0.01176
3905.52281	0.01173
3903.59416	0.01173
3901.66550	0.01169
3899.73685	0.01160
3897.80820	0.01160
3895.87955	0.01176
3893.95089	0.01185
3892.02224	0.01168
3890.09359	0.01146
3888.16493	0.01143
3886.23628	0.01148
3884.30763	0.01152
3882.37897	0.01156
3880.45032	0.01150
3878.52167	0.01130
3876.59301	0.01120
3874.66436	0.01133
3872.73571	0.01146
3870.80705	0.01139
3868.87840	0.01120
3866.94975	0.01113
3865.02109	0.01123
3863.09244	0.01135
3861.16379	0.01142
3859.23513	0.01145
3857.30648	0.01141
3855.37783	0.01133
3853.44917	0.01130
3851.52052	0.01135
3849.59187	0.01133
3847.66321	0.01125
3845.73456	0.01129
3843.80591	0.01148
3841.87725	0.01159
3839.94860	0.01153
3838.01995	0.01146
3836.09129	0.01140
3834.16264	0.01127
3832.23399	0.01120
3830.30534	0.01125
3828.37668	0.01127
3826.44803	0.01120
3824.51938	0.01121
3822.59072	0.01134
3820.66207	0.01142
3818.73342	0.01131
3816.80476	0.01110
3814.87611	0.01105
3812.94746	0.01125
3811.01880	0.01147
3809.09015	0.01147
3807.16150	0.01124
3805.23284	0.01096
3803.30419	0.01084
3801.37554	0.01076
3799.44688	0.01068
3797.51823	0.01068
3795.58958	0.01082
3793.66092	0.01101
3791.73227	0.01112
3789.80362	0.01106
3787.87496	0.01093
3785.94631	0.01087
3784.01766	0.01096
3782.08900	0.01116
3780.16035	0.01128
3778.23170	0.01119
3776.30304	0.01100
3774.37439	0.01092
3772.44574	0.01097
3770.51708	0.01101
3768.58843	0.01089
3766.65978	0.01070
3764.73112	0.01064
3762.80247	0.01066
3760.87382	0.01061
3758.94517	0.01057
3757.01651	0.01059
3755.08786	0.01055
3753.15921	0.01050
3751.23055	0.01063
3749.30190	0.01089
3747.37325	0.01103
3745.44459	0.01099
3743.51594	0.01086
3741.58729	0.01075
3739.65863	0.01069
3737.72998	0.01066
3735.80133	0.01063
3733.87267	0.01055
3731.94402	0.01040
3730.01537	0.01031
3728.08671	0.01039
3726.15806	0.01052
3724.22941	0.01053
3722.30075	0.01046
3720.37210	0.01039
3718.44345	0.01030
3716.51479	0.01024
3714.58614	0.01035
3712.65749	0.01049
3710.72883	0.01042
3708.80018	0.01022
3706.87153	0.01006
3704.94287	0.01008
3703.01422	0.01028
3701.08557	0.01057
3699.15691	0.01073
3697.22826	0.01064
3695.29961	0.01042
3693.37095	0.01031
3691.44230	0.01026
3689.51365	0.01017
3687.58500	0.01016
3685.65634	0.01026
3683.72769	0.01033
3681.79904	0.01042
3679.87038	0.01065
3677.94173	0.01088
3676.01308	0.01088
3674.08442	0.01071
3672.15577	0.01055
3670.22712	0.01046
3668.29846	0.01052
3666.36981	0.01069
3664.44116	0.01081
3662.51250	0.01080
3660.58385	0.01083
3658.65520	0.01107
3656.72654	0.01139
3654.79789	0.01159
3652.86924	0.01164
3650.94058	0.01160
3649.01193	0.01156
3647.08328	0.01164
3645.15462	0.01183
3643.22597	0.01190
3641.29732	0.01189
3639.36866	0.01202
3637.44001	0.01223
3635.51136	0.01236
3633.58270	0.01246
3631.65405	0.01255
3629.72540	0.01256
3627.79674	0.01256
3625.86809	0.01267
3623.93944	0.01280
3622.01079	0.01282
3620.08213	0.01285
3618.15348	0.01306
3616.22483	0.01345
3614.29617	0.01377
3612.36752	0.01383
3610.43887	0.01373
3608.51021	0.01367
3606.58156	0.01373
3604.65291	0.01391
3602.72425	0.01415
3600.79560	0.01437
3598.86695	0.01455
3596.93829	0.01481
3595.00964	0.01511
3593.08099	0.01538
3591.15233	0.01557
3589.22368	0.01567
3587.29503	0.01565
3585.36637	0.01564
3583.43772	0.01581
3581.50907	0.01611
3579.58041	0.01637
3577.65176	0.01656
3575.72311	0.01677
3573.79445	0.01702
3571.86580	0.01729
3569.93715	0.01753
3568.00849	0.01775
3566.07984	0.01791
3564.15119	0.01801
3562.22253	0.01818
3560.29388	0.01848
3558.36523	0.01877
3556.43657	0.01891
3554.50792	0.01891
3552.57927	0.01893
3550.65062	0.01911
3548.72196	0.01941
3546.79331	0.01978
3544.86466	0.02024
3542.93600	0.02066
3541.00735	0.02086
3539.07870	0.02094
3537.15004	0.02107
3535.22139	0.02124
3533.29274	0.02140
3531.36408	0.02153
3529.43543	0.02167
3527.50678	0.02189
3525.57812	0.02218
3523.64947	0.02250
3521.72082	0.02280
3519.79216	0.02303
3517.86351	0.02318
3515.93486	0.02336
3514.00620	0.02358
3512.07755	0.02373
3510.14890	0.02383
3508.22024	0.02398
3506.29159	0.02426
3504.36294	0.02464
3502.43428	0.02492
3500.50563	0.02497
3498.57698	0.02492
3496.64832	0.02494
3494.71967	0.02502
3492.79102	0.02520
3490.86236	0.02551
3488.93371	0.02579
3487.00506	0.02590
3485.07641	0.02590
3483.14775	0.02594
3481.21910	0.02609
3479.29045	0.02635
3477.36179	0.02659
3475.43314	0.02679
3473.50449	0.02700
3471.57583	0.02729
3469.64718	0.02751
3467.71853	0.02755
3465.78987	0.02762
3463.86122	0.02792
3461.93257	0.02831
3460.00391	0.02852
3458.07526	0.02859
3456.14661	0.02872
3454.21795	0.02885
3452.28930	0.02891
3450.36065	0.02901
3448.43199	0.02926
3446.50334	0.02956
3444.57469	0.02976
3442.64603	0.02988
3440.71738	0.03000
3438.78873	0.03012
3436.86007	0.03025
3434.93142	0.03043
3433.00277	0.03060
3431.07411	0.03067
3429.14546	0.03073
3427.21681	0.03095
3425.28815	0.03120
3423.35950	0.03135
3421.43085	0.03147
3419.50219	0.03167
3417.57354	0.03187
3415.64489	0.03197
3413.71624	0.03206
3411.78758	0.03220
3409.85893	0.03236
3407.93028	0.03257
3406.00162	0.03279
3404.07297	0.03294
3402.14432	0.03306
3400.21566	0.03328
3398.28701	0.03352
3396.35836	0.03362
3394.42970	0.03363
3392.50105	0.03365
3390.57240	0.03374
3388.64374	0.03395
3386.71509	0.03424
3384.78644	0.03446
3382.85778	0.03455
3380.92913	0.03466
3379.00048	0.03486
3377.07182	0.03510
3375.14317	0.03537
3373.21452	0.03561
3371.28586	0.03579
3369.35721	0.03597
3367.42856	0.03620
3365.49990	0.03645
3363.57125	0.03673
3361.64260	0.03714
3359.71394	0.03766
3357.78529	0.03807
3355.85664	0.03830
3353.92798	0.03848
3351.99933	0.03873
3350.07068	0.03904
3348.14202	0.03943
3346.21337	0.03992
3344.28472	0.04041
3342.35607	0.04078
3340.42741	0.04103
3338.49876	0.04132
3336.57011	0.04167
3334.64145	0.04195
3332.71280	0.04216
3330.78415	0.04239
3328.85549	0.04265
3326.92684	0.04288
3324.99819	0.04305
3323.06953	0.04316
3321.14088	0.04335
3319.21223	0.04365
3317.28357	0.04391
3315.35492	0.04405
3313.42627	0.04411
3311.49761	0.04413
3309.56896	0.04412
3307.64031	0.04419
3305.71165	0.04442
3303.78300	0.04473
3301.85435	0.04498
3299.92569	0.04504
3297.99704	0.04494
3296.06839	0.04484
3294.13973	0.04487
3292.21108	0.04492
3290.28243	0.04495
3288.35377	0.04491
3286.42512	0.04479
3284.49647	0.04470
3282.56781	0.04469
3280.63916	0.04468
3278.71051	0.04460
3276.78186	0.04452
3274.85320	0.04443
3272.92455	0.04426
3270.99590	0.04399
3269.06724	0.04380
3267.13859	0.04381
3265.20994	0.04385
3263.28128	0.04373
3261.35263	0.04349
3259.42398	0.04334
3257.49532	0.04325
3255.56667	0.04309
3253.63802	0.04293
3251.70936	0.04286
3249.78071	0.04283
3247.85206	0.04275
3245.92340	0.04263
3243.99475	0.04249
3242.06610	0.04237
3240.13744	0.04227
3238.20879	0.04209
3236.28014	0.04190
3234.35148	0.04180
3232.42283	0.04169
3230.49418	0.04156
3228.56552	0.04153
3226.63687	0.04158
3224.70822	0.04156
3222.77956	0.04139
3220.85091	0.04110
3218.92226	0.04089
3216.99360	0.04083
3215.06495	0.04078
3213.13630	0.04066
3211.20764	0.04057
3209.27899	0.04054
3207.35034	0.04047
3205.42169	0.04031
3203.49303	0.04010
3201.56438	0.03989
3199.63573	0.03979
3197.70707	0.03980
3195.77842	0.03975
3193.84977	0.03951
3191.92111	0.03918
3189.99246	0.03896
3188.06381	0.03883
3186.13515	0.03858
3184.20650	0.03822
3182.27785	0.03796
3180.34919	0.03781
3178.42054	0.03765
3176.49189	0.03744
3174.56323	0.03719
3172.63458	0.03691
3170.70593	0.03669
3168.77727	0.03654
3166.84862	0.03638
3164.91997	0.03616
3162.99131	0.03580
3161.06266	0.03542
3159.13401	0.03518
3157.20535	0.03508
3155.27670	0.03494
3153.34805	0.03469
3151.41939	0.03440
3149.49074	0.03416
3147.56209	0.03397
3145.63343	0.03377
3143.70478	0.03356
3141.77613	0.03341
3139.84748	0.03329
3137.91882	0.03318
3135.99017	0.03303
3134.06152	0.03289
3132.13286	0.03279
3130.20421	0.03259
3128.27556	0.03230
3126.34690	0.03203
3124.41825	0.03190
3122.48960	0.03190
3120.56094	0.03193
3118.63229	0.03187
3116.70364	0.03175
3114.77498	0.03166
3112.84633	0.03170
3110.91768	0.03184
3108.98902	0.03189
3107.06037	0.03179
3105.13172	0.03165
3103.20306	0.03158
3101.27441	0.03163
3099.34576	0.03175
3097.41710	0.03191
3095.48845	0.03208
3093.55980	0.03223
3091.63114	0.03233
3089.70249	0.03241
3087.77384	0.03258
3085.84518	0.03279
3083.91653	0.03294
3081.98788	0.03307
3080.05922	0.03316
3078.13057	0.03313
3076.20192	0.03299
3074.27326	0.03288
3072.34461	0.03286
3070.41596	0.03293
3068.48731	0.03300
3066.55865	0.03300
3064.63000	0.03290
3062.70135	0.03277
3060.77269	0.03269
3058.84404	0.03266
3056.91539	0.03257
3054.98673	0.03236
3053.05808	0.03207
3051.12943	0.03177
3049.20077	0.03159
3047.27212	0.03152
3045.34347	0.03141
3043.41481	0.03116
3041.48616	0.03080
3039.55751	0.03054
3037.62885	0.03050
3035.70020	0.03052
3033.77155	0.03032
3031.84289	0.02990
3029.91424	0.02956
3027.98559	0.02942
3026.05693	0.02930
3024.12828	0.02913
3022.19963	0.02899
3020.27097	0.02888
3018.34232	0.02875
3016.41367	0.02862
3014.48501	0.02854
3012.55636	0.02854
3010.62771	0.02857
3008.69905	0.02851
3006.77040	0.02836
3004.84175	0.02820
3002.91309	0.02808
3000.98444	0.02800
2999.05579	0.02799
2997.12714	0.02805
2995.19848	0.02813
2993.26983	0.02824
2991.34118	0.02850
2989.41252	0.02882
2987.48387	0.02902
2985.55522	0.02904
2983.62656	0.02905
2981.69791	0.02915
2979.76926	0.02933
2977.84060	0.02959
2975.91195	0.02987
2973.98330	0.03010
2972.05464	0.03028
2970.12599	0.03049
2968.19734	0.03075
2966.26868	0.03100
2964.34003	0.03119
2962.41138	0.03135
2960.48272	0.03151
2958.55407	0.03164
2956.62542	0.03177
2954.69676	0.03191
2952.76811	0.03198
2950.83946	0.03198
2948.91080	0.03197
2946.98215	0.03206
2945.05350	0.03232
2943.12484	0.03266
2941.19619	0.03300
2939.26754	0.03340
2937.33888	0.03380
2935.41023	0.03417
2933.48158	0.03458
2931.55293	0.03502
2929.62427	0.03542
2927.69562	0.03572
2925.76697	0.03587
2923.83831	0.03590
2921.90966	0.03586
2919.98101	0.03568
2918.05235	0.03532
2916.12370	0.03475
2914.19505	0.03401
2912.26639	0.03320
2910.33774	0.03249
2908.40909	0.03200
2906.48043	0.03161
2904.55178	0.03115
2902.62313	0.03070
2900.69447	0.03039
2898.76582	0.03013
2896.83717	0.02986
2894.90851	0.02959
2892.97986	0.02934
2891.05121	0.02913
2889.12255	0.02905
2887.19390	0.02903
2885.26525	0.02894
2883.33659	0.02885
2881.40794	0.02886
2879.47929	0.02894
2877.55063	0.02900
2875.62198	0.02906
2873.69333	0.02912
2871.76467	0.02907
2869.83602	0.02890
2867.90737	0.02866
2865.97871	0.02845
2864.05006	0.02841
2862.12141	0.02856
2860.19276	0.02875
2858.26410	0.02889
2856.33545	0.02904
2854.40680	0.02927
2852.47814	0.02946
2850.54949	0.02933
2848.62084	0.02880
2846.69218	0.02809
2844.76353	0.02742
2842.83488	0.02686
2840.90622	0.02644
2838.97757	0.02614
2837.04892	0.02587
2835.12026	0.02554
2833.19161	0.02522
2831.26296	0.02498
2829.33430	0.02483
2827.40565	0.02476
2825.47700	0.02470
2823.54834	0.02454
2821.61969	0.02434
2819.69104	0.02424
2817.76238	0.02423
2815.83373	0.02424
2813.90508	0.02427
2811.97642	0.02431
2810.04777	0.02425
2808.11912	0.02406
2806.19046	0.02383
2804.26181	0.02367
2802.33316	0.02360
2800.40450	0.02353
2798.47585	0.02342
2796.54720	0.02332
2794.61855	0.02322
2792.68989	0.02313
2790.76124	0.02310
2788.83259	0.02314
2786.90393	0.02310
2784.97528	0.02295
2783.04663	0.02281
2781.11797	0.02279
2779.18932	0.02283
2777.26067	0.02281
2775.33201	0.02269
2773.40336	0.02253
2771.47471	0.02242
2769.54605	0.02237
2767.61740	0.02237
2765.68875	0.02237
2763.76009	0.02229
2761.83144	0.02212
2759.90279	0.02202
2757.97413	0.02204
2756.04548	0.02210
2754.11683	0.02210
2752.18817	0.02200
2750.25952	0.02187
2748.33087	0.02174
2746.40221	0.02165
2744.47356	0.02165
2742.54491	0.02169
2740.61625	0.02163
2738.68760	0.02151
2736.75895	0.02146
2734.83029	0.02147
2732.90164	0.02150
2730.97299	0.02147
2729.04433	0.02140
2727.11568	0.02134
2725.18703	0.02128
2723.25838	0.02118
2721.32972	0.02103
2719.40107	0.02092
2717.47242	0.02085
2715.54376	0.02082
2713.61511	0.02083
2711.68646	0.02083
2709.75780	0.02080
2707.82915	0.02072
2705.90050	0.02063
2703.97184	0.02059
2702.04319	0.02060
2700.11454	0.02063
2698.18588	0.02061
2696.25723	0.02055
2694.32858	0.02050
2692.39992	0.02048
2690.47127	0.02046
2688.54262	0.02038
2686.61396	0.02028
2684.68531	0.02021
2682.75666	0.02020
2680.82800	0.02023
2678.89935	0.02025
2676.97070	0.02025
2675.04204	0.02026
2673.11339	0.02027
2671.18474	0.02024
2669.25608	0.02023
2667.32743	0.02025
2665.39878	0.02025
2663.47012	0.02021
2661.54147	0.02021
2659.61282	0.02026
2657.68417	0.02026
2655.75551	0.02016
2653.82686	0.02001
2651.89821	0.01989
2649.96955	0.01980
2648.04090	0.01971
2646.11225	0.01965
2644.18359	0.01967
2642.25494	0.01971
2640.32629	0.01969
2638.39763	0.01958
2636.46898	0.01946
2634.54033	0.01940
2632.61167	0.01938
2630.68302	0.01930
2628.75437	0.01915
2626.82571	0.01908
2624.89706	0.01904
2622.96841	0.01890
2621.03975	0.01873
2619.11110	0.01864
2617.18245	0.01850
2615.25379	0.01835
2613.32514	0.01834
2611.39649	0.01845
2609.46783	0.01848
2607.53918	0.01838
2605.61053	0.01825
2603.68187	0.01816
2601.75322	0.01813
2599.82457	0.01809
2597.89591	0.01795
2595.96726	0.01777
2594.03861	0.01757
2592.10995	0.01743
2590.18130	0.01739
2588.25265	0.01733
2586.32400	0.01721
2584.39534	0.01713
2582.46669	0.01720
2580.53804	0.01732
2578.60938	0.01735
2576.68073	0.01731
2574.75208	0.01726
2572.82342	0.01722
2570.89477	0.01719
2568.96612	0.01714
2567.03746	0.01713
2565.10881	0.01718
2563.18016	0.01725
2561.25150	0.01723
2559.32285	0.01710
2557.39420	0.01698
2555.46554	0.01693
2553.53689	0.01694
2551.60824	0.01688
2549.67958	0.01678
2547.75093	0.01680
2545.82228	0.01684
2543.89362	0.01680
2541.96497	0.01671
2540.03632	0.01656
2538.10766	0.01635
2536.17901	0.01626
2534.25036	0.01633
2532.32170	0.01637
2530.39305	0.01634
2528.46440	0.01632
2526.53574	0.01637
2524.60709	0.01641
2522.67844	0.01637
2520.74978	0.01628
2518.82113	0.01621
2516.89248	0.01626
2514.96383	0.01641
2513.03517	0.01646
2511.10652	0.01627
2509.17787	0.01601
2507.24921	0.01590
2505.32056	0.01598
2503.39191	0.01602
2501.46325	0.01598
2499.53460	0.01603
2497.60595	0.01607
2495.67729	0.01601
2493.74864	0.01589
2491.81999	0.01579
2489.89133	0.01568
2487.96268	0.01555
2486.03403	0.01544
2484.10537	0.01536
2482.17672	0.01540
2480.24807	0.01552
2478.31941	0.01559
2476.39076	0.01557
2474.46211	0.01543
2472.53345	0.01524
2470.60480	0.01524
2468.67615	0.01539
2466.74749	0.01550
2464.81884	0.01555
2462.89019	0.01550
2460.96153	0.01539
2459.03288	0.01538
2457.10423	0.01543
2455.17557	0.01536
2453.24692	0.01530
2451.31827	0.01535
2449.38962	0.01532
2447.46096	0.01528
2445.53231	0.01528
2443.60366	0.01519
2441.67500	0.01499
2439.74635	0.01489
2437.81770	0.01495
2435.88904	0.01513
2433.96039	0.01536
2432.03174	0.01541
2430.10308	0.01517
2428.17443	0.01497
2426.24578	0.01500
2424.31712	0.01508
2422.38847	0.01518
2420.45982	0.01532
2418.53116	0.01531
2416.60251	0.01514
2414.67386	0.01496
2412.74520	0.01494
2410.81655	0.01509
2408.88790	0.01525
2406.95924	0.01528
2405.03059	0.01520
2403.10194	0.01509
2401.17328	0.01507
2399.24463	0.01516
2397.31598	0.01530
2395.38732	0.01535
2393.45867	0.01533
2391.53002	0.01522
2389.60136	0.01510
2387.67271	0.01503
2385.74406	0.01497
2383.81540	0.01492
2381.88675	0.01490
2379.95810	0.01499
2378.02945	0.01517
2376.10079	0.01533
2374.17214	0.01543
2372.24349	0.01547
2370.31483	0.01547
2368.38618	0.01539
2366.45753	0.01528
2364.52887	0.01523
2362.60022	0.01523
2360.67157	0.01525
2358.74291	0.01532
2356.81426	0.01546
2354.88561	0.01561
2352.95695	0.01572
2351.02830	0.01576
2349.09965	0.01572
2347.17099	0.01570
2345.24234	0.01571
2343.31369	0.01566
2341.38503	0.01546
2339.45638	0.01531
2337.52773	0.01533
2335.59907	0.01543
2333.67042	0.01549
2331.74177	0.01544
2329.81311	0.01530
2327.88446	0.01530
2325.95581	0.01561
2324.02715	0.01596
2322.09850	0.01599
2320.16985	0.01578
2318.24119	0.01559
2316.31254	0.01542
2314.38389	0.01521
2312.45524	0.01501
2310.52658	0.01490
2308.59793	0.01487
2306.66928	0.01476
2304.74062	0.01453
2302.81197	0.01435
2300.88332	0.01429
2298.95466	0.01432
2297.02601	0.01434
2295.09736	0.01433
2293.16870	0.01427
2291.24005	0.01418
2289.31140	0.01420
2287.38274	0.01427
2285.45409	0.01418
2283.52544	0.01398
2281.59678	0.01380
2279.66813	0.01361
2277.73948	0.01334
2275.81082	0.01299
2273.88217	0.01280
2271.95352	0.01294
2270.02486	0.01315
2268.09621	0.01309
2266.16756	0.01276
2264.23890	0.01234
2262.31025	0.01202
2260.38160	0.01198
2258.45294	0.01215
2256.52429	0.01218
2254.59564	0.01193
2252.66698	0.01170
2250.73833	0.01181
2248.80968	0.01211
2246.88102	0.01204
2244.95237	0.01197
2243.02372	0.01195
2241.09507	0.01189
2239.16641	0.01193
2237.23776	0.01203
2235.30911	0.01201
2233.38045	0.01179
2231.45180	0.01144
2229.52315	0.01132
2227.59449	0.01148
2225.66584	0.01159
2223.73719	0.01156
2221.80853	0.01146
2219.87988	0.01116
2217.95123	0.01089
2216.02257	0.01109
2214.09392	0.01124
2212.16527	0.01088
2210.23661	0.01066
2208.30796	0.01066
2206.37931	0.01031
2204.45065	0.00992
2202.52200	0.00996
2200.59335	0.01025
2198.66469	0.01056
2196.73604	0.01083
2194.80739	0.01092
2192.87873	0.01076
2190.95008	0.01055
2189.02143	0.01041
2187.09277	0.01033
2185.16412	0.01025
2183.23547	0.01020
2181.30681	0.01034
2179.37816	0.01066
2177.44951	0.01073
2175.52085	0.01019
2173.59220	0.00929
2171.66355	0.00887
2169.73490	0.00893
2167.80624	0.00890
2165.87759	0.00892
2163.94894	0.00890
2162.02028	0.00816
2160.09163	0.00692
2158.16298	0.00623
2156.23432	0.00665
2154.30567	0.00770
2152.37702	0.00853
2150.44836	0.00893
2148.51971	0.00904
2146.59106	0.00900
2144.66240	0.00917
2142.73375	0.00951
2140.80510	0.00972
2138.87644	0.00974
2136.94779	0.00950
2135.01914	0.00919
2133.09048	0.00926
2131.16183	0.00985
2129.23318	0.01063
2127.30452	0.01136
2125.37587	0.01182
2123.44722	0.01176
2121.51856	0.01148
2119.58991	0.01155
2117.66126	0.01187
2115.73260	0.01194
2113.80395	0.01172
2111.87530	0.01158
2109.94664	0.01156
2108.01799	0.01152
2106.08934	0.01141
2104.16069	0.01126
2102.23203	0.01127
2100.30338	0.01150
2098.37473	0.01164
2096.44607	0.01159
2094.51742	0.01152
2092.58877	0.01149
2090.66011	0.01147
2088.73146	0.01150
2086.80281	0.01158
2084.87415	0.01157
2082.94550	0.01141
2081.01685	0.01122
2079.08819	0.01112
2077.15954	0.01103
2075.23089	0.01088
2073.30223	0.01090
2071.37358	0.01103
2069.44493	0.01077
2067.51627	0.01027
2065.58762	0.01019
2063.65897	0.01042
2061.73031	0.01032
2059.80166	0.00990
2057.87301	0.00953
2055.94435	0.00936
2054.01570	0.00933
2052.08705	0.00933
2050.15839	0.00934
2048.22974	0.00942
2046.30109	0.00947
2044.37243	0.00943
2042.44378	0.00954
2040.51513	0.00961
2038.58647	0.00919
2036.65782	0.00851
2034.72917	0.00831
2032.80052	0.00849
2030.87186	0.00840
2028.94321	0.00816
2027.01456	0.00829
2025.08590	0.00874
2023.15725	0.00902
2021.22860	0.00897
2019.29994	0.00873
2017.37129	0.00825
2015.44264	0.00785
2013.51398	0.00811
2011.58533	0.00857
2009.65668	0.00840
2007.72802	0.00783
2005.79937	0.00759
2003.87072	0.00798
2001.94206	0.00865
2000.01341	0.00919
1998.08476	0.00947
1996.15610	0.00944
1994.22745	0.00911
1992.29880	0.00859
1990.37014	0.00819
1988.44149	0.00819
1986.51284	0.00842
1984.58418	0.00845
1982.65553	0.00825
1980.72688	0.00837
1978.79822	0.00906
1976.86957	0.00973
1974.94092	0.01005
1973.01226	0.00996
1971.08361	0.00943
1969.15496	0.00890
1967.22631	0.00854
1965.29765	0.00810
1963.36900	0.00779
1961.44035	0.00790
1959.51169	0.00823
1957.58304	0.00850
1955.65439	0.00869
1953.72573	0.00887
1951.79708	0.00899
1949.86843	0.00893
1947.93977	0.00895
1946.01112	0.00919
1944.08247	0.00942
1942.15381	0.00968
1940.22516	0.01012
1938.29651	0.01040
1936.36785	0.01025
1934.43920	0.01002
1932.51055	0.00995
1930.58189	0.00998
1928.65324	0.01015
1926.72459	0.01036
1924.79593	0.01030
1922.86728	0.01005
1920.93863	0.00992
1919.00997	0.00998
1917.08132	0.01009
1915.15267	0.01021
1913.22401	0.01032
1911.29536	0.01043
1909.36671	0.01055
1907.43805	0.01056
1905.50940	0.01055
1903.58075	0.01061
1901.65209	0.01066
1899.72344	0.01061
1897.79479	0.01058
1895.86614	0.01073
1893.93748	0.01098
1892.00883	0.01095
1890.08018	0.01059
1888.15152	0.01030
1886.22287	0.01039
1884.29422	0.01066
1882.36556	0.01080
1880.43691	0.01073
1878.50826	0.01058
1876.57960	0.01058
1874.65095	0.01081
1872.72230	0.01101
1870.79364	0.01092
1868.86499	0.01064
1866.93634	0.01042
1865.00768	0.01033
1863.07903	0.01034
1861.15038	0.01034
1859.22172	0.01034
1857.29307	0.01037
1855.36442	0.01048
1853.43576	0.01060
1851.50711	0.01066
1849.57846	0.01060
1847.64980	0.01048
1845.72115	0.01044
1843.79250	0.01043
1841.86384	0.01042
1839.93519	0.01040
1838.00654	0.01041
1836.07788	0.01045
1834.14923	0.01052
1832.22058	0.01056
1830.29192	0.01056
1828.36327	0.01055
1826.43462	0.01057
1824.50597	0.01058
1822.57731	0.01056
1820.64866	0.01055
1818.72001	0.01050
1816.79135	0.01039
1814.86270	0.01030
1812.93405	0.01029
1811.00539	0.01032
1809.07674	0.01039
1807.14809	0.01039
1805.21943	0.01032
1803.29078	0.01030
1801.36213	0.01037
1799.43347	0.01046
1797.50482	0.01056
1795.57617	0.01060
1793.64751	0.01052
1791.71886	0.01039
1789.79021	0.01039
1787.86155	0.01047
1785.93290	0.01046
1784.00425	0.01038
1782.07559	0.01035
1780.14694	0.01033
1778.21829	0.01028
1776.28963	0.01024
1774.36098	0.01022
1772.43233	0.01019
1770.50367	0.01012
1768.57502	0.01006
1766.64637	0.01006
1764.71771	0.01011
1762.78906	0.01017
1760.86041	0.01025
1758.93176	0.01039
1757.00310	0.01060
1755.07445	0.01081
1753.14580	0.01098
1751.21714	0.01115
1749.28849	0.01139
1747.35984	0.01166
1745.43118	0.01188
1743.50253	0.01212
1741.57388	0.01245
1739.64522	0.01287
1737.71657	0.01328
1735.78792	0.01370
1733.85926	0.01416
1731.93061	0.01459
1730.00196	0.01491
1728.07330	0.01523
1726.14465	0.01565
1724.21600	0.01617
1722.28734	0.01671
1720.35869	0.01727
1718.43004	0.01788
1716.50138	0.01851
1714.57273	0.01915
1712.64408	0.01981
1710.71542	0.02044
1708.78677	0.02103
1706.85812	0.02168
1704.92946	0.02249
1703.00081	0.02349
1701.07216	0.02472
1699.14350	0.02608
1697.21485	0.02753
1695.28620	0.02911
1693.35754	0.03076
1691.42889	0.03244
1689.50024	0.03422
1687.57159	0.03611
1685.64293	0.03818
1683.71428	0.04047
1681.78563	0.04298
1679.85697	0.04566
1677.92832	0.04851
1675.99967	0.05151
1674.07101	0.05464
1672.14236	0.05790
1670.21371	0.06128
1668.28505	0.06472
1666.35640	0.06807
1664.42775	0.07131
1662.49909	0.07445
1660.57044	0.07744
1658.64179	0.08019
1656.71313	0.08259
1654.78448	0.08461
1652.85583	0.08634
1650.92717	0.08782
1648.99852	0.08912
1647.06987	0.09029
1645.14121	0.09132
1643.21256	0.09228
1641.28391	0.09325
1639.35525	0.09419
1637.42660	0.09503
1635.49795	0.09581
1633.56929	0.09652
1631.64064	0.09697
1629.71199	0.09695
1627.78333	0.09637
1625.85468	0.09526
1623.92603	0.09365
1621.99738	0.09156
1620.06872	0.08911
1618.14007	0.08633
1616.21142	0.08328
1614.28276	0.08013
1612.35411	0.07704
1610.42546	0.07394
1608.49680	0.07079
1606.56815	0.06767
1604.63950	0.06470
1602.71084	0.06191
1600.78219	0.05927
1598.85354	0.05682
1596.92488	0.05464
1594.99623	0.05276
1593.06758	0.05114
1591.13892	0.04978
1589.21027	0.04868
1587.28162	0.04785
1585.35296	0.04730
1583.42431	0.04706
1581.49566	0.04711
1579.56700	0.04745
1577.63835	0.04816
1575.70970	0.04929
1573.78104	0.05074
1571.85239	0.05242
1569.92374	0.05436
1567.99508	0.05653
1566.06643	0.05886
1564.13778	0.06126
1562.20912	0.06367
1560.28047	0.06612
1558.35182	0.06852
1556.42316	0.07064
1554.49451	0.07247
1552.56586	0.07410
1550.63721	0.07550
1548.70855	0.07664
1546.77990	0.07753
1544.85125	0.07816
1542.92259	0.07854
1540.99394	0.07866
1539.06529	0.07848
1537.13663	0.07805
1535.20798	0.07744
1533.27933	0.07668
1531.35067	0.07579
1529.42202	0.07482
1527.49337	0.07383
1525.56471	0.07278
1523.63606	0.07160
1521.70741	0.07034
1519.77875	0.06907
1517.85010	0.06779
1515.92145	0.06639
1513.99279	0.06474
1512.06414	0.06286
1510.13549	0.06093
1508.20683	0.05901
1506.27818	0.05702
1504.34953	0.05500
1502.42087	0.05307
1500.49222	0.05126
1498.56357	0.04953
1496.63491	0.04786
1494.70626	0.04623
1492.77761	0.04475
1490.84895	0.04350
1488.92030	0.04241
1486.99165	0.04148
1485.06299	0.04085
1483.13434	0.04062
1481.20569	0.04075
1479.27704	0.04112
1477.34838	0.04169
1475.41973	0.04255
1473.49108	0.04371
1471.56242	0.04512
1469.63377	0.04664
1467.70512	0.04816
1465.77646	0.04964
1463.84781	0.05106
1461.91916	0.05249
1459.99050	0.05398
1458.06185	0.05552
1456.13320	0.05690
1454.20454	0.05794
1452.27589	0.05859
1450.34724	0.05887
1448.41858	0.05879
1446.48993	0.05847
1444.56128	0.05795
1442.63262	0.05726
1440.70397	0.05648
1438.77532	0.05561
1436.84666	0.05459
1434.91801	0.05344
1432.98936	0.05229
1431.06070	0.05128
1429.13205	0.05047
1427.20340	0.04990
1425.27474	0.04953
1423.34609	0.04931
1421.41744	0.04918
1419.48878	0.04910
1417.56013	0.04909
1415.63148	0.04917
1413.70283	0.04934
1411.77417	0.04955
1409.84552	0.04973
1407.91687	0.04987
1405.98821	0.04992
1404.05956	0.04982
1402.13091	0.04954
1400.20225	0.04910
1398.27360	0.04850
1396.34495	0.04789
1394.41629	0.04742
1392.48764	0.04710
1390.55899	0.04691
1388.63033	0.04680
1386.70168	0.04676
1384.77303	0.04674
1382.84437	0.04673
1380.91572	0.04673
1378.98707	0.04672
1377.05841	0.04666
1375.12976	0.04645
1373.20111	0.04607
1371.27245	0.04560
1369.34380	0.04507
1367.41515	0.04446
1365.48649	0.04381
1363.55784	0.04322
1361.62919	0.04275
1359.70053	0.04242
1357.77188	0.04232
1355.84323	0.04250
1353.91457	0.04292
1351.98592	0.04351
1350.05727	0.04423
1348.12861	0.04512
1346.19996	0.04614
1344.27131	0.04711
1342.34266	0.04790
1340.41400	0.04853
1338.48535	0.04904
1336.55670	0.04937
1334.62804	0.04939
1332.69939	0.04910
1330.77074	0.04854
1328.84208	0.04781
1326.91343	0.04704
1324.98478	0.04638
1323.05612	0.04590
1321.12747	0.04553
1319.19882	0.04521
1317.27016	0.04495
1315.34151	0.04480
1313.41286	0.04469
1311.48420	0.04452
1309.55555	0.04430
1307.62690	0.04414
1305.69824	0.04408
1303.76959	0.04406
1301.84094	0.04402
1299.91228	0.04398
1297.98363	0.04399
1296.05498	0.04416
1294.12632	0.04455
1292.19767	0.04514
1290.26902	0.04585
1288.34036	0.04661
1286.41171	0.04735
1284.48306	0.04802
1282.55440	0.04856
1280.62575	0.04887
1278.69710	0.04899
1276.76845	0.04904
1274.83979	0.04910
1272.91114	0.04920
1270.98249	0.04940
1269.05383	0.04971
1267.12518	0.05010
1265.19653	0.05057
1263.26787	0.05114
1261.33922	0.05180
1259.41057	0.05250
1257.48191	0.05325
1255.55326	0.05408
1253.62461	0.05501
1251.69595	0.05612
1249.76730	0.05741
1247.83865	0.05870
1245.90999	0.05996
1243.98134	0.06126
1242.05269	0.06255
1240.12403	0.06363
1238.19538	0.06440
1236.26673	0.06485
1234.33807	0.06496
1232.40942	0.06474
1230.48077	0.06421
1228.55211	0.06333
1226.62346	0.06212
1224.69481	0.06072
1222.76615	0.05931
1220.83750	0.05801
1218.90885	0.05689
1216.98019	0.05600
1215.05154	0.05543
1213.12289	0.05527
1211.19423	0.05545
1209.26558	0.05589
1207.33693	0.05644
1205.40828	0.05699
1203.47962	0.05742
1201.55097	0.05755
1199.62232	0.05723
1197.69366	0.05662
1195.76501	0.05579
1193.83636	0.05488
1191.90770	0.05400
1189.97905	0.05320
1188.05040	0.05248
1186.12174	0.05182
1184.19309	0.05124
1182.26444	0.05087
1180.33578	0.05074
1178.40713	0.05071
1176.47848	0.05063
1174.54982	0.05054
1172.62117	0.05049
1170.69252	0.05047
1168.76386	0.05049
1166.83521	0.05061
1164.90656	0.05077
1162.97790	0.05090
1161.04925	0.05095
1159.12060	0.05078
1157.19194	0.05041
1155.26329	0.05005
1153.33464	0.04966
1151.40598	0.04916
1149.47733	0.04860
1147.54868	0.04801
1145.62002	0.04744
1143.69137	0.04698
1141.76272	0.04660
1139.83406	0.04624
1137.90541	0.04589
1135.97676	0.04559
1134.04811	0.04538
1132.11945	0.04532
1130.19080	0.04543
1128.26215	0.04558
1126.33349	0.04563
1124.40484	0.04559
1122.47619	0.04556
1120.54753	0.04563
1118.61888	0.04583
1116.69023	0.04613
1114.76157	0.04633
1112.83292	0.04633
1110.90427	0.04632
1108.97561	0.04645
1107.04696	0.04669
1105.11831	0.04704
1103.18965	0.04750
1101.26100	0.04800
1099.33235	0.04842
1097.40369	0.04881
1095.47504	0.04925
1093.54639	0.04973
1091.61773	0.05027
1089.68908	0.05103
1087.76043	0.05206
1085.83177	0.05320
1083.90312	0.05423
1081.97447	0.05502
1080.04581	0.05546
1078.11716	0.05546
1076.18851	0.05520
1074.25985	0.05495
1072.33120	0.05470
1070.40255	0.05429
1068.47390	0.05389
1066.54524	0.05367
1064.61659	0.05363
1062.68794	0.05367
1060.75928	0.05364
1058.83063	0.05338
1056.90198	0.05298
1054.97332	0.05262
1053.04467	0.05233
1051.11602	0.05200
1049.18736	0.05168
1047.25871	0.05141
1045.33006	0.05116
1043.40140	0.05100
1041.47275	0.05102
1039.54410	0.05115
1037.61544	0.05141
1035.68679	0.05188
1033.75814	0.05240
1031.82948	0.05269
1029.90083	0.05253
1027.97218	0.05189
1026.04352	0.05099
1024.11487	0.05011
1022.18622	0.04938
1020.25756	0.04882
1018.32891	0.04842
1016.40026	0.04812
1014.47160	0.04775
1012.54295	0.04720
1010.61430	0.04652
1008.68564	0.04578
1006.75699	0.04501
1004.82834	0.04433
1002.89968	0.04383
1000.97103	0.04345
999.04238	0.04301
997.11373	0.04246
995.18507	0.04192
993.25642	0.04151
991.32777	0.04123
989.39911	0.04098
987.47046	0.04069
985.54181	0.04041
983.61315	0.04029
981.68450	0.04039
979.75585	0.04064
977.82719	0.04094
975.89854	0.04125
973.96989	0.04145
972.04123	0.04145
970.11258	0.04133
968.18393	0.04126
966.25527	0.04121
964.32662	0.04107
962.39797	0.04084
960.46931	0.04063
958.54066	0.04054
956.61201	0.04052
954.68335	0.04045
952.75470	0.04035
950.82605	0.04033
948.89739	0.04038
946.96874	0.04043
945.04009	0.04059
943.11143	0.04086
941.18278	0.04104
939.25413	0.04097
937.32547	0.04075
935.39682	0.04057
933.46817	0.04055
931.53952	0.04054
929.61086	0.04026
927.68221	0.03986
925.75356	0.03963
923.82490	0.03962
921.89625	0.03963
919.96760	0.03945
918.03894	0.03903
916.11029	0.03853
914.18164	0.03808
912.25298	0.03763
910.32433	0.03723
908.39568	0.03715
906.46702	0.03737
904.53837	0.03753
902.60972	0.03738
900.68106	0.03706
898.75241	0.03682
896.82376	0.03673
894.89510	0.03667
892.96645	0.03645
891.03780	0.03600
889.10914	0.03572
887.18049	0.03585
885.25184	0.03613
883.32318	0.03635
881.39453	0.03643
879.46588	0.03650
877.53722	0.03690
875.60857	0.03733
873.67992	0.03736
871.75126	0.03719
869.82261	0.03709
867.89396	0.03702
865.96530	0.03689
864.03665	0.03669
862.10800	0.03660
860.17935	0.03659
858.25069	0.03660
856.32204	0.03682
854.39339	0.03723
852.46473	0.03737
850.53608	0.03708
848.60743	0.03665
846.67877	0.03640
844.75012	0.03632
842.82147	0.03624
840.89281	0.03609
838.96416	0.03592
837.03551	0.03575
835.10685	0.03573
833.17820	0.03586
831.24955	0.03596
829.32089	0.03593
827.39224	0.03600
825.46359	0.03638
823.53493	0.03687
821.60628	0.03733
819.67763	0.03782
817.74897	0.03810
815.82032	0.03815
813.89167	0.03843
811.96301	0.03903
810.03436	0.03944
808.10571	0.03952
806.17705	0.03961
804.24840	0.03987
802.31975	0.04026
800.39109	0.04077
798.46244	0.04125
796.53379	0.04139
794.60513	0.04127
792.67648	0.04125
790.74783	0.04152
788.81918	0.04192
786.89052	0.04235
784.96187	0.04293
783.03322	0.04360
781.10456	0.04410
779.17591	0.04442
777.24726	0.04462
775.31860	0.04470
773.38995	0.04467
771.46130	0.04460
769.53264	0.04465
767.60399	0.04498
765.67534	0.04548
763.74668	0.04588
761.81803	0.04626
759.88938	0.04691
757.96072	0.04776
756.03207	0.04839
754.10342	0.04849
752.17476	0.04835
750.24611	0.04858
748.31746	0.04917
746.38880	0.04976
744.46015	0.05032
742.53150	0.05096
740.60284	0.05142
738.67419	0.05168
736.74554	0.05210
734.81688	0.05261
732.88823	0.05296
730.95958	0.05362
729.03092	0.05477
727.10227	0.05572
725.17362	0.05619
723.24497	0.05642
721.31631	0.05720
719.38766	0.05785
717.45901	0.05830
715.53035	0.05870
713.60170	0.05902
711.67305	0.05945
709.74439	0.06014
707.81574	0.06090
705.88709	0.06154
703.95843	0.06215
702.02978	0.06268
700.10113	0.06315
698.17247	0.06377
696.24382	0.06445
694.31517	0.06492
692.38651	0.06504
690.45786	0.06507
688.52921	0.06533
686.60055	0.06591
684.67190	0.06663
682.74325	0.06730
680.81459	0.06776
678.88594	0.06802
676.95729	0.06836
675.02863	0.06901
673.09998	0.06972
671.17133	0.07026
669.24267	0.07078
667.31402	0.07124
665.38537	0.07157
663.45671	0.07196
661.52806	0.07251
659.59941	0.07305
657.67075	0.07355
655.74210	0.07414
653.81345	0.07488
651.88480	0.07580
649.95614	0.07655
648.02749	0.07638
646.09884	0.07568
644.17018	0.07579
642.24153	0.07667
640.31288	0.07752
638.38422	0.07821
636.45557	0.07876
634.52692	0.07897
632.59826	0.07890
630.66961	0.07845
628.74096	0.07706
626.81230	0.07899
624.88365	0.08236
622.95500	0.08482
621.02634	0.08408
619.09769	0.08215
617.16904	0.07985
615.24038	0.07495
613.31173	0.07225
611.38308	0.07658
609.45442	0.08311
607.52577	0.08692
605.59712	0.08769
603.66846	0.08617
601.73981	0.08440
599.81116	0.08399
597.88250	0.08412
595.95385	0.08379
594.02520	0.08382
592.09654	0.08492
590.16789	0.08612
588.23924	0.08674
586.31059	0.08740
584.38193	0.08822
582.45328	0.08843
580.52463	0.08787
578.59597	0.08745
576.66732	0.08761
574.73867	0.08786
572.81001	0.08821
570.88136	0.08919
568.95271	0.09038
567.02405	0.09123
565.09540	0.09214
563.16675	0.09328
561.23809	0.09444
559.30944	0.09532
557.38079	0.09546
555.45213	0.09507
553.52348	0.09482
551.59483	0.09464
549.66617	0.09423
547.73752	0.09393
545.80887	0.09401
543.88021	0.09442
541.95156	0.09485
540.02291	0.09495
538.09425	0.09521
536.16560	0.09619
534.23695	0.09727
532.30829	0.09783
530.37964	0.09839
528.45099	0.09918
526.52233	0.09927
524.59368	0.09854
522.66503	0.09800
520.73637	0.09762
518.80772	0.09674
516.87907	0.09600
514.95042	0.09611
513.02176	0.09676
511.09311	0.09753
509.16446	0.09808
507.23580	0.09811
505.30715	0.09743
503.37850	0.09590
501.44984	0.09412
499.52119	0.09348
497.59254	0.09439
495.66388	0.09561
493.73523	0.09588
491.80658	0.09522
489.87792	0.09443
487.94927	0.09404
486.02062	0.09403
484.09196	0.09433
482.16331	0.09492
480.23466	0.09570
478.30600	0.09623
476.37735	0.09618
474.44870	0.09576
472.52004	0.09541
470.59139	0.09558
468.66274	0.09621
466.73408	0.09681
464.80543	0.09701
462.87678	0.09672
460.94812	0.09586
459.01947	0.09495
457.09082	0.09463
455.16216	0.09453
453.23351	0.09414
451.30486	0.09366
449.37620	0.09316
447.44755	0.09261
445.51890	0.09215
443.59025	0.09162
441.66159	0.09099
439.73294	0.09070
437.80429	0.09083
435.87563	0.09094
433.94698	0.09089
432.01833	0.09073
430.08967	0.09039
428.16102	0.08985
426.23237	0.08937
424.30371	0.08903
422.37506	0.08873
420.44641	0.08845
418.51775	0.08808
416.58910	0.08765
414.66045	0.08739
412.73179	0.08741
410.80314	0.08753
408.87449	0.08749
406.94583	0.08723
405.01718	0.08675
403.08853	0.08617
401.15987	0.08565
399.23122	0.08522
