3996.16951	0.01596
3994.24086	0.01596
3992.31221	0.01600
3990.38355	0.01609
3988.45490	0.01619
3986.52625	0.01621
3984.59759	0.01605
3982.66894	0.01587
3980.74029	0.01587
3978.81163	0.01602
3976.88298	0.01612
3974.95433	0.01609
3973.02567	0.01598
3971.09702	0.01581
3969.16837	0.01564
3967.23972	0.01560
3965.31106	0.01570
3963.38241	0.01592
3961.45376	0.01623
3959.52510	0.01639
3957.59645	0.01621
3955.66780	0.01596
3953.73914	0.01591
3951.81049	0.01595
3949.88184	0.01592
3947.95318	0.01586
3946.02453	0.01586
3944.09588	0.01595
3942.16722	0.01611
3940.23857	0.01619
3938.30992	0.01604
3936.38126	0.01581
3934.45261	0.01572
3932.52396	0.01578
3930.59530	0.01589
3928.66665	0.01595
3926.73800	0.01585
3924.80934	0.01563
3922.88069	0.01554
3920.95204	0.01564
3919.02338	0.01574
3917.09473	0.01575
3915.16608	0.01578
3913.23742	0.01586
3911.30877	0.01593
3909.38012	0.01596
3907.45146	0.01586
3905.52281	0.01570
3903.59416	0.01571
3901.66550	0.01583
3899.73685	0.01573
3897.80820	0.01548
3895.87955	0.01536
3893.95089	0.01538
3892.02224	0.01539
3890.09359	0.01552
3888.16493	0.01570
3886.23628	0.01569
3884.30763	0.01566
3882.37897	0.01559
3880.45032	0.01546
3878.52167	0.01539
3876.59301	0.01533
3874.66436	0.01536
3872.73571	0.01552
3870.80705	0.01556
3868.87840	0.01563
3866.94975	0.01578
3865.02109	0.01584
3863.09244	0.01579
3861.16379	0.01561
3859.23513	0.01557
3857.30648	0.01574
3855.37783	0.01573
3853.44917	0.01554
3851.52052	0.01549
3849.59187	0.01551
3847.66321	0.01556
3845.73456	0.01558
3843.80591	0.01550
3841.87725	0.01538
3839.94860	0.01527
3838.01995	0.01522
3836.09129	0.01531
3834.16264	0.01532
3832.23399	0.01519
3830.30534	0.01509
3828.37668	0.01511
3826.44803	0.01519
3824.51938	0.01521
3822.59072	0.01513
3820.66207	0.01515
3818.73342	0.01526
3816.80476	0.01517
3814.87611	0.01517
3812.94746	0.01527
3811.01880	0.01524
3809.09015	0.01512
3807.16150	0.01506
3805.23284	0.01521
3803.30419	0.01518
3801.37554	0.01501
3799.44688	0.01507
3797.51823	0.01499
3795.58958	0.01483
3793.66092	0.01482
3791.73227	0.01488
3789.80362	0.01490
3787.87496	0.01480
3785.94631	0.01460
3784.01766	0.01443
3782.08900	0.01448
3780.16035	0.01461
3778.23170	0.01468
3776.30304	0.01471
3774.37439	0.01476
3772.44574	0.01470
3770.51708	0.01445
3768.58843	0.01429
3766.65978	0.01432
3764.73112	0.01441
3762.80247	0.01445
3760.87382	0.01436
3758.94517	0.01431
3757.01651	0.01437
3755.08786	0.01452
3753.15921	0.01463
3751.23055	0.01475
3749.30190	0.01491
3747.37325	0.01501
3745.44459	0.01474
3743.51594	0.01458
3741.58729	0.01466
3739.65863	0.01468
3737.72998	0.01467
3735.80133	0.01463
3733.87267	0.01456
3731.94402	0.01440
3730.01537	0.01426
3728.08671	0.01420
3726.15806	0.01428
3724.22941	0.01440
3722.30075	0.01447
3720.37210	0.01452
3718.44345	0.01445
3716.51479	0.01434
3714.58614	0.01429
3712.65749	0.01427
3710.72883	0.01425
3708.80018	0.01419
3706.87153	0.01415
3704.94287	0.01413
3703.01422	0.01406
3701.08557	0.01403
3699.15691	0.01400
3697.22826	0.01382
3695.29961	0.01371
3693.37095	0.01385
3691.44230	0.01409
3689.51365	0.01417
3687.58500	0.01413
3685.65634	0.01403
3683.72769	0.01382
3681.79904	0.01372
3679.87038	0.01389
3677.94173	0.01418
3676.01308	0.01436
3674.08442	0.01449
3672.15577	0.01438
3670.22712	0.01417
3668.29846	0.01411
3666.36981	0.01402
3664.44116	0.01400
3662.51250	0.01409
3660.58385	0.01413
3658.65520	0.01412
3656.72654	0.01411
3654.79789	0.01428
3652.86924	0.01453
3650.94058	0.01462
3649.01193	0.01457
3647.08328	0.01453
3645.15462	0.01458
3643.22597	0.01473
3641.29732	0.01489
3639.36866	0.01498
3637.44001	0.01512
3635.51136	0.01524
3633.58270	0.01525
3631.65405	0.01525
3629.72540	0.01531
3627.79674	0.01550
3625.86809	0.01565
3623.93944	0.01573
3622.01079	0.01585
3620.08213	0.01599
3618.15348	0.01619
3616.22483	0.01635
3614.29617	0.01642
3612.36752	0.01656
3610.43887	0.01665
3608.51021	0.01662
3606.58156	0.01666
3604.65291	0.01680
3602.72425	0.01700
3600.79560	0.01718
3598.86695	0.01729
3596.93829	0.01735
3595.00964	0.01740
3593.08099	0.01755
3591.15233	0.01781
3589.22368	0.01802
3587.29503	0.01821
3585.36637	0.01843
3583.43772	0.01861
3581.50907	0.01872
3579.58041	0.01888
3577.65176	0.01913
3575.72311	0.01940
3573.79445	0.01962
3571.86580	0.01977
3569.93715	0.01986
3568.00849	0.01993
3566.07984	0.02013
3564.15119	0.02042
3562.22253	0.02063
3560.29388	0.02077
3558.36523	0.02097
3556.43657	0.02125
3554.50792	0.02151
3552.57927	0.02174
3550.65062	0.02193
3548.72196	0.02196
3546.79331	0.02192
3544.86466	0.02211
3542.93600	0.02258
3541.00735	0.02297
3539.07870	0.02311
3537.15004	0.02323
3535.22139	0.02343
3533.29274	0.02359
3531.36408	0.02368
3529.43543	0.02382
3527.50678	0.02404
3525.57812	0.02423
3523.64947	0.02438
3521.72082	0.02462
3519.79216	0.02492
3517.86351	0.02516
3515.93486	0.02532
3514.00620	0.02545
3512.07755	0.02563
3510.14890	0.02582
3508.22024	0.02596
3506.29159	0.02605
3504.36294	0.02610
3502.43428	0.02618
3500.50563	0.02630
3498.57698	0.02638
3496.64832	0.02650
3494.71967	0.02675
3492.79102	0.02705
3490.86236	0.02728
3488.93371	0.02743
3487.00506	0.02757
3485.07641	0.02776
3483.14775	0.02795
3481.21910	0.02808
3479.29045	0.02813
3477.36179	0.02810
3475.43314	0.02814
3473.50449	0.02839
3471.57583	0.02880
3469.64718	0.02910
3467.71853	0.02922
3465.78987	0.02929
3463.86122	0.02941
3461.93257	0.02946
3460.00391	0.02939
3458.07526	0.02937
3456.14661	0.02957
3454.21795	0.02989
3452.28930	0.03019
3450.36065	0.03045
3448.43199	0.03066
3446.50334	0.03087
3444.57469	0.03106
3442.64603	0.03115
3440.71738	0.03118
3438.78873	0.03124
3436.86007	0.03137
3434.93142	0.03157
3433.00277	0.03188
3431.07411	0.03222
3429.14546	0.03244
3427.21681	0.03263
3425.28815	0.03282
3423.35950	0.03290
3421.43085	0.03293
3419.50219	0.03304
3417.57354	0.03319
3415.64489	0.03332
3413.71624	0.03345
3411.78758	0.03364
3409.85893	0.03399
3407.93028	0.03440
3406.00162	0.03465
3404.07297	0.03469
3402.14432	0.03464
3400.21566	0.03465
3398.28701	0.03476
3396.35836	0.03498
3394.42970	0.03529
3392.50105	0.03559
3390.57240	0.03582
3388.64374	0.03601
3386.71509	0.03623
3384.78644	0.03648
3382.85778	0.03676
3380.92913	0.03705
3379.00048	0.03727
3377.07182	0.03738
3375.14317	0.03745
3373.21452	0.03758
3371.28586	0.03786
3369.35721	0.03818
3367.42856	0.03846
3365.49990	0.03882
3363.57125	0.03931
3361.64260	0.03976
3359.71394	0.04005
3357.78529	0.04031
3355.85664	0.04066
3353.92798	0.04097
3351.99933	0.04122
3350.07068	0.04165
3348.14202	0.04231
3346.21337	0.04290
3344.28472	0.04320
3342.35607	0.04335
3340.42741	0.04357
3338.49876	0.04388
3336.57011	0.04426
3334.64145	0.04459
3332.71280	0.04488
3330.78415	0.04522
3328.85549	0.04556
3326.92684	0.04586
3324.99819	0.04615
3323.06953	0.04640
3321.14088	0.04657
3319.21223	0.04670
3317.28357	0.04684
3315.35492	0.04702
3313.42627	0.04721
3311.49761	0.04738
3309.56896	0.04759
3307.64031	0.04784
3305.71165	0.04804
3303.78300	0.04813
3301.85435	0.04812
3299.92569	0.04812
3297.99704	0.04815
3296.06839	0.04822
3294.13973	0.04832
3292.21108	0.04833
3290.28243	0.04824
3288.35377	0.04822
3286.42512	0.04834
3284.49647	0.04848
3282.56781	0.04853
3280.63916	0.04854
3278.71051	0.04860
3276.78186	0.04858
3274.85320	0.04839
3272.92455	0.04820
3270.99590	0.04812
3269.06724	0.04805
3267.13859	0.04790
3265.20994	0.04778
3263.28128	0.04767
3261.35263	0.04747
3259.42398	0.04724
3257.49532	0.04702
3255.56667	0.04675
3253.63802	0.04648
3251.70936	0.04627
3249.78071	0.04610
3247.85206	0.04597
3245.92340	0.04591
3243.99475	0.04586
3242.06610	0.04580
3240.13744	0.04568
3238.20879	0.04550
3236.28014	0.04535
3234.35148	0.04530
3232.42283	0.04527
3230.49418	0.04515
3228.56552	0.04500
3226.63687	0.04490
3224.70822	0.04476
3222.77956	0.04458
3220.85091	0.04450
3218.92226	0.04451
3216.99360	0.04449
3215.06495	0.04438
3213.13630	0.04425
3211.20764	0.04416
3209.27899	0.04409
3207.35034	0.04402
3205.42169	0.04396
3203.49303	0.04388
3201.56438	0.04377
3199.63573	0.04361
3197.70707	0.04338
3195.77842	0.04317
3193.84977	0.04306
3191.92111	0.04299
3189.99246	0.04281
3188.06381	0.04260
3186.13515	0.04247
3184.20650	0.04232
3182.27785	0.04205
3180.34919	0.04172
3178.42054	0.04149
3176.49189	0.04136
3174.56323	0.04124
3172.63458	0.04109
3170.70593	0.04089
3168.77727	0.04065
3166.84862	0.04043
3164.91997	0.04026
3162.99131	0.04001
3161.06266	0.03967
3159.13401	0.03939
3157.20535	0.03917
3155.27670	0.03896
3153.34805	0.03881
3151.41939	0.03874
3149.49074	0.03863
3147.56209	0.03839
3145.63343	0.03810
3143.70478	0.03788
3141.77613	0.03772
3139.84748	0.03755
3137.91882	0.03735
3135.99017	0.03717
3134.06152	0.03704
3132.13286	0.03698
3130.20421	0.03693
3128.27556	0.03680
3126.34690	0.03658
3124.41825	0.03640
3122.48960	0.03629
3120.56094	0.03632
3118.63229	0.03650
3116.70364	0.03661
3114.77498	0.03648
3112.84633	0.03626
3110.91768	0.03619
3108.98902	0.03621
3107.06037	0.03624
3105.13172	0.03640
3103.20306	0.03666
3101.27441	0.03675
3099.34576	0.03676
3097.41710	0.03689
3095.48845	0.03708
3093.55980	0.03724
3091.63114	0.03735
3089.70249	0.03739
3087.77384	0.03741
3085.84518	0.03751
3083.91653	0.03762
3081.98788	0.03772
3080.05922	0.03784
3078.13057	0.03798
3076.20192	0.03804
3074.27326	0.03803
3072.34461	0.03807
3070.41596	0.03809
3068.48731	0.03806
3066.55865	0.03802
3064.63000	0.03795
3062.70135	0.03783
3060.77269	0.03772
3058.84404	0.03769
3056.91539	0.03769
3054.98673	0.03764
3053.05808	0.03752
3051.12943	0.03733
3049.20077	0.03709
3047.27212	0.03681
3045.34347	0.03652
3043.41481	0.03626
3041.48616	0.03604
3039.55751	0.03592
3037.62885	0.03586
3035.70020	0.03576
3033.77155	0.03554
3031.84289	0.03522
3029.91424	0.03494
3027.98559	0.03476
3026.05693	0.03463
3024.12828	0.03449
3022.19963	0.03431
3020.27097	0.03409
3018.34232	0.03392
3016.41367	0.03384
3014.48501	0.03381
3012.55636	0.03371
3010.62771	0.03360
3008.69905	0.03360
3006.77040	0.03369
3004.84175	0.03369
3002.91309	0.03362
3000.98444	0.03362
2999.05579	0.03374
2997.12714	0.03389
2995.19848	0.03398
2993.26983	0.03401
2991.34118	0.03405
2989.41252	0.03418
2987.48387	0.03436
2985.55522	0.03450
2983.62656	0.03463
2981.69791	0.03477
2979.76926	0.03493
2977.84060	0.03517
2975.91195	0.03546
2973.98330	0.03567
2972.05464	0.03581
2970.12599	0.03591
2968.19734	0.03604
2966.26868	0.03626
2964.34003	0.03653
2962.41138	0.03683
2960.48272	0.03707
2958.55407	0.03721
2956.62542	0.03734
2954.69676	0.03749
2952.76811	0.03761
2950.83946	0.03765
2948.91080	0.03770
2946.98215	0.03779
2945.05350	0.03792
2943.12484	0.03811
2941.19619	0.03842
2939.26754	0.03878
2937.33888	0.03911
2935.41023	0.03945
2933.48158	0.03980
2931.55293	0.04013
2929.62427	0.04040
2927.69562	0.04065
2925.76697	0.04085
2923.83831	0.04090
2921.90966	0.04075
2919.98101	0.04050
2918.05235	0.04021
2916.12370	0.03981
2914.19505	0.03922
2912.26639	0.03855
2910.33774	0.03788
2908.40909	0.03728
2906.48043	0.03682
2904.55178	0.03651
2902.62313	0.03625
2900.69447	0.03597
2898.76582	0.03570
2896.83717	0.03551
2894.90851	0.03538
2892.97986	0.03519
2891.05121	0.03500
2889.12255	0.03489
2887.19390	0.03486
2885.26525	0.03490
2883.33659	0.03490
2881.40794	0.03484
2879.47929	0.03484
2877.55063	0.03499
2875.62198	0.03508
2873.69333	0.03505
2871.76467	0.03502
2869.83602	0.03502
2867.90737	0.03492
2865.97871	0.03473
2864.05006	0.03456
2862.12141	0.03449
2860.19276	0.03452
2858.26410	0.03456
2856.33545	0.03455
2854.40680	0.03454
2852.47814	0.03455
2850.54949	0.03446
2848.62084	0.03417
2846.69218	0.03370
2844.76353	0.03317
2842.83488	0.03264
2840.90622	0.03219
2838.97757	0.03183
2837.04892	0.03148
2835.12026	0.03118
2833.19161	0.03100
2831.26296	0.03095
2829.33430	0.03093
2827.40565	0.03080
2825.47700	0.03060
2823.54834	0.03049
2821.61969	0.03047
2819.69104	0.03042
2817.76238	0.03034
2815.83373	0.03023
2813.90508	0.03014
2811.97642	0.03008
2810.04777	0.03003
2808.11912	0.02991
2806.19046	0.02976
2804.26181	0.02965
2802.33316	0.02961
2800.40450	0.02957
2798.47585	0.02951
2796.54720	0.02943
2794.61855	0.02933
2792.68989	0.02922
2790.76124	0.02915
2788.83259	0.02913
2786.90393	0.02908
2784.97528	0.02898
2783.04663	0.02887
2781.11797	0.02878
2779.18932	0.02870
2777.26067	0.02860
2775.33201	0.02852
2773.40336	0.02850
2771.47471	0.02844
2769.54605	0.02836
2767.61740	0.02828
2765.68875	0.02821
2763.76009	0.02809
2761.83144	0.02796
2759.90279	0.02788
2757.97413	0.02785
2756.04548	0.02782
2754.11683	0.02777
2752.18817	0.02774
2750.25952	0.02772
2748.33087	0.02770
2746.40221	0.02768
2744.47356	0.02764
2742.54491	0.02757
2740.61625	0.02751
2738.68760	0.02745
2736.75895	0.02736
2734.83029	0.02725
2732.90164	0.02713
2730.97299	0.02699
2729.04433	0.02686
2727.11568	0.02678
2725.18703	0.02675
2723.25838	0.02672
2721.32972	0.02669
2719.40107	0.02668
2717.47242	0.02661
2715.54376	0.02649
2713.61511	0.02646
2711.68646	0.02649
2709.75780	0.02645
2707.82915	0.02635
2705.90050	0.02626
2703.97184	0.02620
2702.04319	0.02616
2700.11454	0.02613
2698.18588	0.02612
2696.25723	0.02610
2694.32858	0.02604
2692.39992	0.02594
2690.47127	0.02588
2688.54262	0.02587
2686.61396	0.02588
2684.68531	0.02588
2682.75666	0.02587
2680.82800	0.02586
2678.89935	0.02587
2676.97070	0.02582
2675.04204	0.02573
2673.11339	0.02570
2671.18474	0.02569
2669.25608	0.02564
2667.32743	0.02557
2665.39878	0.02552
2663.47012	0.02549
2661.54147	0.02541
2659.61282	0.02530
2657.68417	0.02520
2655.75551	0.02515
2653.82686	0.02510
2651.89821	0.02503
2649.96955	0.02492
2648.04090	0.02475
2646.11225	0.02463
2644.18359	0.02458
2642.25494	0.02454
2640.32629	0.02444
2638.39763	0.02429
2636.46898	0.02409
2634.54033	0.02388
2632.61167	0.02376
2630.68302	0.02369
2628.75437	0.02355
2626.82571	0.02337
2624.89706	0.02319
2622.96841	0.02304
2621.03975	0.02297
2619.11110	0.02286
2617.18245	0.02264
2615.25379	0.02243
2613.32514	0.02229
2611.39649	0.02219
2609.46783	0.02217
2607.53918	0.02228
2605.61053	0.02234
2603.68187	0.02224
2601.75322	0.02197
2599.82457	0.02172
2597.89591	0.02165
2595.96726	0.02160
2594.03861	0.02136
2592.10995	0.02108
2590.18130	0.02095
2588.25265	0.02094
2586.32400	0.02092
2584.39534	0.02091
2582.46669	0.02090
2580.53804	0.02081
2578.60938	0.02073
2576.68073	0.02071
2574.75208	0.02064
2572.82342	0.02047
2570.89477	0.02021
2568.96612	0.01999
2567.03746	0.02000
2565.10881	0.02021
2563.18016	0.02029
2561.25150	0.02013
2559.32285	0.01984
2557.39420	0.01960
2555.46554	0.01953
2553.53689	0.01968
2551.60824	0.01995
2549.67958	0.02007
2547.75093	0.01999
2545.82228	0.01987
2543.89362	0.01971
2541.96497	0.01951
2540.03632	0.01942
2538.10766	0.01949
2536.17901	0.01956
2534.25036	0.01948
2532.32170	0.01935
2530.39305	0.01924
2528.46440	0.01917
2526.53574	0.01917
2524.60709	0.01919
2522.67844	0.01918
2520.74978	0.01913
2518.82113	0.01908
2516.89248	0.01902
2514.96383	0.01897
2513.03517	0.01898
2511.10652	0.01904
2509.17787	0.01916
2507.24921	0.01924
2505.32056	0.01923
2503.39191	0.01918
2501.46325	0.01910
2499.53460	0.01889
2497.60595	0.01875
2495.67729	0.01878
2493.74864	0.01875
2491.81999	0.01859
2489.89133	0.01844
2487.96268	0.01840
2486.03403	0.01840
2484.10537	0.01841
2482.17672	0.01850
2480.24807	0.01855
2478.31941	0.01847
2476.39076	0.01833
2474.46211	0.01825
2472.53345	0.01827
2470.60480	0.01830
2468.67615	0.01836
2466.74749	0.01841
2464.81884	0.01838
2462.89019	0.01837
2460.96153	0.01848
2459.03288	0.01858
2457.10423	0.01854
2455.17557	0.01837
2453.24692	0.01819
2451.31827	0.01817
2449.38962	0.01827
2447.46096	0.01830
2445.53231	0.01820
2443.60366	0.01813
2441.67500	0.01814
2439.74635	0.01817
2437.81770	0.01819
2435.88904	0.01824
2433.96039	0.01828
2432.03174	0.01826
2430.10308	0.01817
2428.17443	0.01814
2426.24578	0.01818
2424.31712	0.01819
2422.38847	0.01816
2420.45982	0.01814
2418.53116	0.01811
2416.60251	0.01808
2414.67386	0.01810
2412.74520	0.01814
2410.81655	0.01817
2408.88790	0.01812
2406.95924	0.01798
2405.03059	0.01792
2403.10194	0.01802
2401.17328	0.01816
2399.24463	0.01823
2397.31598	0.01826
2395.38732	0.01831
2393.45867	0.01846
2391.53002	0.01867
2389.60136	0.01880
2387.67271	0.01878
2385.74406	0.01869
2383.81540	0.01867
2381.88675	0.01876
2379.95810	0.01881
2378.02945	0.01877
2376.10079	0.01879
2374.17214	0.01886
2372.24349	0.01886
2370.31483	0.01886
2368.38618	0.01889
2366.45753	0.01899
2364.52887	0.01907
2362.60022	0.01922
2360.67157	0.01939
2358.74291	0.01935
2356.81426	0.01937
2354.88561	0.01943
2352.95695	0.01949
2351.02830	0.01957
2349.09965	0.01964
2347.17099	0.01964
2345.24234	0.01967
2343.31369	0.01962
2341.38503	0.01943
2339.45638	0.01941
2337.52773	0.01946
2335.59907	0.01953
2333.67042	0.01958
2331.74177	0.01959
2329.81311	0.01966
2327.88446	0.01978
2325.95581	0.02001
2324.02715	0.02006
2322.09850	0.01984
2320.16985	0.01954
2318.24119	0.01931
2316.31254	0.01902
2314.38389	0.01869
2312.45524	0.01834
2310.52658	0.01801
2308.59793	0.01789
2306.66928	0.01786
2304.74062	0.01769
2302.81197	0.01742
2300.88332	0.01726
2298.95466	0.01718
2297.02601	0.01706
2295.09736	0.01690
2293.16870	0.01675
2291.24005	0.01652
2289.31140	0.01622
2287.38274	0.01601
2285.45409	0.01600
2283.52544	0.01602
2281.59678	0.01590
2279.66813	0.01573
2277.73948	0.01547
2275.81082	0.01505
2273.88217	0.01467
2271.95352	0.01452
2270.02486	0.01440
2268.09621	0.01418
2266.16756	0.01386
2264.23890	0.01354
2262.31025	0.01331
2260.38160	0.01323
2258.45294	0.01328
2256.52429	0.01328
2254.59564	0.01312
2252.66698	0.01294
2250.73833	0.01287
2248.80968	0.01282
2246.88102	0.01262
2244.95237	0.01254
2243.02372	0.01247
2241.09507	0.01236
2239.16641	0.01227
2237.23776	0.01204
2235.30911	0.01168
2233.38045	0.01150
2231.45180	0.01157
2229.52315	0.01172
2227.59449	0.01170
2225.66584	0.01136
2223.73719	0.01086
2221.80853	0.01043
2219.87988	0.01023
2217.95123	0.01022
2216.02257	0.01013
2214.09392	0.00992
2212.16527	0.00979
2210.23661	0.00971
2208.30796	0.00969
2206.37931	0.00987
2204.45065	0.01006
2202.52200	0.00989
2200.59335	0.00959
2198.66469	0.00958
2196.73604	0.00972
2194.80739	0.00969
2192.87873	0.00952
2190.95008	0.00926
2189.02143	0.00882
2187.09277	0.00844
2185.16412	0.00834
2183.23547	0.00832
2181.30681	0.00830
2179.37816	0.00855
2177.44951	0.00884
2175.52085	0.00878
2173.59220	0.00855
2171.66355	0.00834
2169.73490	0.00819
2167.80624	0.00806
2165.87759	0.00771
2163.94894	0.00709
2162.02028	0.00616
2160.09163	0.00510
2158.16298	0.00473
2156.23432	0.00539
2154.30567	0.00646
2152.37702	0.00736
2150.44836	0.00802
2148.51971	0.00833
2146.59106	0.00822
2144.66240	0.00803
2142.73375	0.00796
2140.80510	0.00807
2138.87644	0.00843
2136.94779	0.00889
2135.01914	0.00929
2133.09048	0.00963
2131.16183	0.01004
2129.23318	0.01055
2127.30452	0.01098
2125.37587	0.01121
2123.44722	0.01143
2121.51856	0.01163
2119.58991	0.01157
2117.66126	0.01148
2115.73260	0.01159
2113.80395	0.01165
2111.87530	0.01155
2109.94664	0.01165
2108.01799	0.01196
2106.08934	0.01198
2104.16069	0.01162
2102.23203	0.01131
2100.30338	0.01127
2098.37473	0.01136
2096.44607	0.01138
2094.51742	0.01141
2092.58877	0.01144
2090.66011	0.01140
2088.73146	0.01131
2086.80281	0.01119
2084.87415	0.01107
2082.94550	0.01110
2081.01685	0.01120
2079.08819	0.01121
2077.15954	0.01103
2075.23089	0.01073
2073.30223	0.01044
2071.37358	0.01019
2069.44493	0.01000
2067.51627	0.00999
2065.58762	0.01006
2063.65897	0.00997
2061.73031	0.00972
2059.80166	0.00944
2057.87301	0.00909
2055.94435	0.00878
2054.01570	0.00870
2052.08705	0.00875
2050.15839	0.00859
2048.22974	0.00805
2046.30109	0.00739
2044.37243	0.00696
2042.44378	0.00682
2040.51513	0.00686
2038.58647	0.00691
2036.65782	0.00675
2034.72917	0.00650
2032.80052	0.00649
2030.87186	0.00670
2028.94321	0.00671
2027.01456	0.00643
2025.08590	0.00613
2023.15725	0.00602
2021.22860	0.00624
2019.29994	0.00663
2017.37129	0.00668
2015.44264	0.00635
2013.51398	0.00603
2011.58533	0.00603
2009.65668	0.00636
2007.72802	0.00670
2005.79937	0.00676
2003.87072	0.00676
2001.94206	0.00701
2000.01341	0.00735
1998.08476	0.00740
1996.15610	0.00722
1994.22745	0.00700
1992.29880	0.00678
1990.37014	0.00674
1988.44149	0.00695
1986.51284	0.00718
1984.58418	0.00733
1982.65553	0.00746
1980.72688	0.00745
1978.79822	0.00716
1976.86957	0.00676
1974.94092	0.00665
1973.01226	0.00692
1971.08361	0.00725
1969.15496	0.00733
1967.22631	0.00723
1965.29765	0.00733
1963.36900	0.00765
1961.44035	0.00781
1959.51169	0.00778
1957.58304	0.00773
1955.65439	0.00766
1953.72573	0.00769
1951.79708	0.00795
1949.86843	0.00819
1947.93977	0.00836
1946.01112	0.00874
1944.08247	0.00926
1942.15381	0.00957
1940.22516	0.00967
1938.29651	0.00968
1936.36785	0.00968
1934.43920	0.00969
1932.51055	0.00965
1930.58189	0.00961
1928.65324	0.00974
1926.72459	0.00998
1924.79593	0.01013
1922.86728	0.01021
1920.93863	0.01030
1919.00997	0.01034
1917.08132	0.01035
1915.15267	0.01035
1913.22401	0.01028
1911.29536	0.01029
1909.36671	0.01053
1907.43805	0.01081
1905.50940	0.01092
1903.58075	0.01095
1901.65209	0.01102
1899.72344	0.01104
1897.79479	0.01104
1895.86614	0.01110
1893.93748	0.01117
1892.00883	0.01118
1890.08018	0.01119
1888.15152	0.01129
1886.22287	0.01136
1884.29422	0.01129
1882.36556	0.01113
1880.43691	0.01100
1878.50826	0.01105
1876.57960	0.01126
1874.65095	0.01144
1872.72230	0.01150
1870.79364	0.01154
1868.86499	0.01163
1866.93634	0.01171
1865.00768	0.01171
1863.07903	0.01168
1861.15038	0.01163
1859.22172	0.01154
1857.29307	0.01149
1855.36442	0.01152
1853.43576	0.01165
1851.50711	0.01185
1849.57846	0.01197
1847.64980	0.01195
1845.72115	0.01184
1843.79250	0.01178
1841.86384	0.01182
1839.93519	0.01178
1838.00654	0.01166
1836.07788	0.01159
1834.14923	0.01162
1832.22058	0.01171
1830.29192	0.01177
1828.36327	0.01186
1826.43462	0.01192
1824.50597	0.01197
1822.57731	0.01206
1820.64866	0.01209
1818.72001	0.01203
1816.79135	0.01197
1814.86270	0.01197
1812.93405	0.01198
1811.00539	0.01197
1809.07674	0.01199
1807.14809	0.01202
1805.21943	0.01201
1803.29078	0.01199
1801.36213	0.01203
1799.43347	0.01214
1797.50482	0.01228
1795.57617	0.01241
1793.64751	0.01243
1791.71886	0.01236
1789.79021	0.01227
1787.86155	0.01218
1785.93290	0.01212
1784.00425	0.01205
1782.07559	0.01197
1780.14694	0.01193
1778.21829	0.01196
1776.28963	0.01199
1774.36098	0.01197
1772.43233	0.01195
1770.50367	0.01198
1768.57502	0.01194
1766.64637	0.01191
1764.71771	0.01189
1762.78906	0.01182
1760.86041	0.01185
1758.93176	0.01190
1757.00310	0.01190
1755.07445	0.01196
1753.14580	0.01204
1751.21714	0.01214
1749.28849	0.01234
1747.35984	0.01244
1745.43118	0.01249
1743.50253	0.01265
1741.57388	0.01292
1739.64522	0.01321
1737.71657	0.01357
1735.78792	0.01385
1733.85926	0.01415
1731.93061	0.01455
1730.00196	0.01477
1728.07330	0.01495
1726.14465	0.01521
1724.21600	0.01548
1722.28734	0.01589
1720.35869	0.01642
1718.43004	0.01688
1716.50138	0.01746
1714.57273	0.01817
1712.64408	0.01894
1710.71542	0.01985
1708.78677	0.02088
1706.85812	0.02200
1704.92946	0.02335
1703.00081	0.02496
1701.07216	0.02660
1699.14350	0.02851
1697.21485	0.03042
1695.28620	0.03228
1693.35754	0.03442
1691.42889	0.03647
1689.50024	0.03862
1687.57159	0.04103
1685.64293	0.04346
1683.71428	0.04603
1681.78563	0.04872
1679.85697	0.05144
1677.92832	0.05447
1675.99967	0.05771
1674.07101	0.06111
1672.14236	0.06459
1670.21371	0.06808
1668.28505	0.07171
1666.35640	0.07534
1664.42775	0.07879
1662.49909	0.08210
1660.57044	0.08528
1658.64179	0.08817
1656.71313	0.09085
1654.78448	0.09317
1652.85583	0.09528
1650.92717	0.09738
1648.99852	0.09895
1647.06987	0.10023
1645.14121	0.10163
1643.21256	0.10293
1641.28391	0.10404
1639.35525	0.10518
1637.42660	0.10623
1635.49795	0.10711
1633.56929	0.10790
1631.64064	0.10825
1629.71199	0.10806
1627.78333	0.10738
1625.85468	0.10615
1623.92603	0.10421
1621.99738	0.10181
1620.06872	0.09909
1618.14007	0.09600
1616.21142	0.09275
1614.28276	0.08949
1612.35411	0.08603
1610.42546	0.08253
1608.49680	0.07912
1606.56815	0.07584
1604.63950	0.07275
1602.71084	0.06991
1600.78219	0.06730
1598.85354	0.06492
1596.92488	0.06280
1594.99623	0.06102
1593.06758	0.05956
1591.13892	0.05836
1589.21027	0.05737
1587.28162	0.05663
1585.35296	0.05612
1583.42431	0.05592
1581.49566	0.05611
1579.56700	0.05669
1577.63835	0.05745
1575.70970	0.05851
1573.78104	0.05998
1571.85239	0.06154
1569.92374	0.06333
1567.99508	0.06547
1566.06643	0.06774
1564.13778	0.07016
1562.20912	0.07269
1560.28047	0.07510
1558.35182	0.07757
1556.42316	0.07997
1554.49451	0.08193
1552.56586	0.08369
1550.63721	0.08527
1548.70855	0.08670
1546.77990	0.08796
1544.85125	0.08903
1542.92259	0.08986
1540.99394	0.09033
1539.06529	0.09060
1537.13663	0.09077
1535.20798	0.09059
1533.27933	0.09028
1531.35067	0.08999
1529.42202	0.08948
1527.49337	0.08881
1525.56471	0.08815
1523.63606	0.08745
1521.70741	0.08661
1519.77875	0.08577
1517.85010	0.08471
1515.92145	0.08338
1513.99279	0.08189
1512.06414	0.08021
1510.13549	0.07839
1508.20683	0.07633
1506.27818	0.07414
1504.34953	0.07202
1502.42087	0.06976
1500.49222	0.06745
1498.56357	0.06527
1496.63491	0.06315
1494.70626	0.06111
1492.77761	0.05909
1490.84895	0.05711
1488.92030	0.05539
1486.99165	0.05398
1485.06299	0.05294
1483.13434	0.05222
1481.20569	0.05184
1479.27704	0.05184
1477.34838	0.05219
1475.41973	0.05287
1473.49108	0.05386
1471.56242	0.05514
1469.63377	0.05660
1467.70512	0.05801
1465.77646	0.05936
1463.84781	0.06077
1461.91916	0.06230
1459.99050	0.06390
1458.06185	0.06555
1456.13320	0.06728
1454.20454	0.06879
1452.27589	0.06973
1450.34724	0.07034
1448.41858	0.07066
1446.48993	0.07068
1444.56128	0.07041
1442.63262	0.06992
1440.70397	0.06930
1438.77532	0.06850
1436.84666	0.06745
1434.91801	0.06629
1432.98936	0.06499
1431.06070	0.06371
1429.13205	0.06266
1427.20340	0.06183
1425.27474	0.06118
1423.34609	0.06079
1421.41744	0.06059
1419.48878	0.06046
1417.56013	0.06052
1415.63148	0.06065
1413.70283	0.06081
1411.77417	0.06105
1409.84552	0.06131
1407.91687	0.06152
1405.98821	0.06163
1404.05956	0.06168
1402.13091	0.06165
1400.20225	0.06149
1398.27360	0.06123
1396.34495	0.06087
1394.41629	0.06040
1392.48764	0.05999
1390.55899	0.05965
1388.63033	0.05932
1386.70168	0.05903
1384.77303	0.05879
1382.84437	0.05852
1380.91572	0.05824
1378.98707	0.05796
1377.05841	0.05760
1375.12976	0.05709
1373.20111	0.05653
1371.27245	0.05599
1369.34380	0.05537
1367.41515	0.05462
1365.48649	0.05379
1363.55784	0.05302
1361.62919	0.05243
1359.70053	0.05206
1357.77188	0.05186
1355.84323	0.05185
1353.91457	0.05207
1351.98592	0.05255
1350.05727	0.05325
1348.12861	0.05410
1346.19996	0.05503
1344.27131	0.05602
1342.34266	0.05695
1340.41400	0.05772
1338.48535	0.05827
1336.55670	0.05863
1334.62804	0.05875
1332.69939	0.05856
1330.77074	0.05811
1328.84208	0.05755
1326.91343	0.05695
1324.98478	0.05632
1323.05612	0.05576
1321.12747	0.05534
1319.19882	0.05505
1317.27016	0.05483
1315.34151	0.05459
1313.41286	0.05431
1311.48420	0.05403
1309.55555	0.05379
1307.62690	0.05354
1305.69824	0.05327
1303.76959	0.05303
1301.84094	0.05289
1299.91228	0.05282
1297.98363	0.05278
1296.05498	0.05278
1294.12632	0.05292
1292.19767	0.05328
1290.26902	0.05383
1288.34036	0.05451
1286.41171	0.05523
1284.48306	0.05588
1282.55440	0.05641
1280.62575	0.05681
1278.69710	0.05704
1276.76845	0.05712
1274.83979	0.05718
1272.91114	0.05733
1270.98249	0.05750
1269.05383	0.05768
1267.12518	0.05797
1265.19653	0.05844
1263.26787	0.05902
1261.33922	0.05965
1259.41057	0.06036
1257.48191	0.06119
1255.55326	0.06208
1253.62461	0.06305
1251.69595	0.06418
1249.76730	0.06542
1247.83865	0.06667
1245.90999	0.06788
1243.98134	0.06911
1242.05269	0.07033
1240.12403	0.07140
1238.19538	0.07224
1236.26673	0.07285
1234.33807	0.07320
1232.40942	0.07321
1230.48077	0.07284
1228.55211	0.07215
1226.62346	0.07119
1224.69481	0.07001
1222.76615	0.06869
1220.83750	0.06730
1218.90885	0.06600
1216.98019	0.06494
1215.05154	0.06423
1213.12289	0.06384
1211.19423	0.06374
1209.26558	0.06395
1207.33693	0.06438
1205.40828	0.06488
1203.47962	0.06529
1201.55097	0.06534
1199.62232	0.06488
1197.69366	0.06418
1195.76501	0.06328
1193.83636	0.06226
1191.90770	0.06128
1189.97905	0.06034
1188.05040	0.05946
1186.12174	0.05868
1184.19309	0.05803
1182.26444	0.05749
1180.33578	0.05708
1178.40713	0.05682
1176.47848	0.05674
1174.54982	0.05682
1172.62117	0.05694
1170.69252	0.05703
1168.76386	0.05721
1166.83521	0.05745
1164.90656	0.05771
1162.97790	0.05801
1161.04925	0.05826
1159.12060	0.05823
1157.19194	0.05791
1155.26329	0.05746
1153.33464	0.05699
1151.40598	0.05652
1149.47733	0.05604
1147.54868	0.05556
1145.62002	0.05513
1143.69137	0.05469
1141.76272	0.05419
1139.83406	0.05371
1137.90541	0.05342
1135.97676	0.05331
1134.04811	0.05321
1132.11945	0.05307
1130.19080	0.05303
1128.26215	0.05315
1126.33349	0.05324
1124.40484	0.05323
1122.47619	0.05321
1120.54753	0.05334
1118.61888	0.05362
1116.69023	0.05387
1114.76157	0.05401
1112.83292	0.05412
1110.90427	0.05434
1108.97561	0.05471
1107.04696	0.05512
1105.11831	0.05546
1103.18965	0.05581
1101.26100	0.05626
1099.33235	0.05679
1097.40369	0.05738
1095.47504	0.05801
1093.54639	0.05865
1091.61773	0.05940
1089.68908	0.06036
1087.76043	0.06152
1085.83177	0.06280
1083.90312	0.06401
1081.97447	0.06500
1080.04581	0.06563
1078.11716	0.06589
1076.18851	0.06595
1074.25985	0.06585
1072.33120	0.06561
1070.40255	0.06534
1068.47390	0.06515
1066.54524	0.06515
1064.61659	0.06531
1062.68794	0.06541
1060.75928	0.06530
1058.83063	0.06507
1056.90198	0.06483
1054.97332	0.06458
1053.04467	0.06425
1051.11602	0.06384
1049.18736	0.06342
1047.25871	0.06311
1045.33006	0.06291
1043.40140	0.06274
1041.47275	0.06266
1039.54410	0.06278
1037.61544	0.06319
1035.68679	0.06384
1033.75814	0.06453
1031.82948	0.06505
1029.90083	0.06520
1027.97218	0.06499
1026.04352	0.06449
1024.11487	0.06378
1022.18622	0.06302
1020.25756	0.06240
1018.32891	0.06196
1016.40026	0.06163
1014.47160	0.06132
1012.54295	0.06085
1010.61430	0.06019
1008.68564	0.05958
1006.75699	0.05908
1004.82834	0.05851
1002.89968	0.05785
1000.97103	0.05718
999.04238	0.05645
997.11373	0.05564
995.18507	0.05492
993.25642	0.05435
991.32777	0.05382
989.39911	0.05333
987.47046	0.05288
985.54181	0.05243
983.61315	0.05200
981.68450	0.05183
979.75585	0.05193
977.82719	0.05201
975.89854	0.05204
973.96989	0.05214
972.04123	0.05219
970.11258	0.05199
968.18393	0.05165
966.25527	0.05138
964.32662	0.05124
962.39797	0.05116
960.46931	0.05103
958.54066	0.05086
956.61201	0.05079
954.68335	0.05076
952.75470	0.05069
950.82605	0.05062
948.89739	0.05062
946.96874	0.05073
945.04009	0.05093
943.11143	0.05106
941.18278	0.05108
939.25413	0.05110
937.32547	0.05125
935.39682	0.05139
933.46817	0.05136
931.53952	0.05112
929.61086	0.05076
927.68221	0.05047
925.75356	0.05033
923.82490	0.05031
921.89625	0.05022
919.96760	0.04996
918.03894	0.04961
916.11029	0.04914
914.18164	0.04849
912.25298	0.04784
910.32433	0.04747
908.39568	0.04726
906.46702	0.04704
904.53837	0.04697
902.60972	0.04688
900.68106	0.04657
898.75241	0.04620
896.82376	0.04590
894.89510	0.04567
892.96645	0.04546
891.03780	0.04528
889.10914	0.04522
887.18049	0.04539
885.25184	0.04575
883.32318	0.04617
881.39453	0.04647
879.46588	0.04668
877.53722	0.04692
875.60857	0.04722
873.67992	0.04752
871.75126	0.04767
869.82261	0.04756
867.89396	0.04734
865.96530	0.04710
864.03665	0.04687
862.10800	0.04669
860.17935	0.04658
858.25069	0.04651
856.32204	0.04646
854.39339	0.04647
852.46473	0.04653
850.53608	0.04639
848.60743	0.04599
846.67877	0.04551
844.75012	0.04509
842.82147	0.04474
840.89281	0.04445
838.96416	0.04433
837.03551	0.04436
835.10685	0.04432
833.17820	0.04416
831.24955	0.04402
829.32089	0.04399
827.39224	0.04398
825.46359	0.04391
823.53493	0.04378
821.60628	0.04383
819.67763	0.04422
817.74897	0.04471
815.82032	0.04506
813.89167	0.04534
811.96301	0.04558
810.03436	0.04570
808.10571	0.04579
806.17705	0.04597
804.24840	0.04631
802.31975	0.04666
800.39109	0.04687
798.46244	0.04705
796.53379	0.04732
794.60513	0.04755
792.67648	0.04774
790.74783	0.04809
788.81918	0.04862
786.89052	0.04912
784.96187	0.04948
783.03322	0.04979
781.10456	0.05019
779.17591	0.05052
777.24726	0.05062
775.31860	0.05075
773.38995	0.05108
771.46130	0.05142
769.53264	0.05175
767.60399	0.05218
765.67534	0.05263
763.74668	0.05297
761.81803	0.05320
759.88938	0.05355
757.96072	0.05414
756.03207	0.05470
754.10342	0.05503
752.17476	0.05524
750.24611	0.05547
748.31746	0.05584
746.38880	0.05631
744.46015	0.05673
742.53150	0.05718
740.60284	0.05788
738.67419	0.05852
736.74554	0.05882
734.81688	0.05911
732.88823	0.05960
730.95958	0.06030
729.03092	0.06123
727.10227	0.06225
725.17362	0.06302
723.24497	0.06337
721.31631	0.06381
719.38766	0.06419
717.45901	0.06465
715.53035	0.06531
713.60170	0.06595
711.67305	0.06648
709.74439	0.06710
707.81574	0.06783
705.88709	0.06844
703.95843	0.06896
702.02978	0.06953
700.10113	0.07006
698.17247	0.07048
696.24382	0.07086
694.31517	0.07128
692.38651	0.07179
690.45786	0.07234
688.52921	0.07280
686.60055	0.07307
684.67190	0.07323
682.74325	0.07346
680.81459	0.07388
678.88594	0.07443
676.95729	0.07498
675.02863	0.07546
673.09998	0.07580
671.17133	0.07621
669.24267	0.07691
667.31402	0.07741
665.38537	0.07813
663.45671	0.07854
661.52806	0.07887
659.59941	0.07931
657.67075	0.07976
655.74210	0.08014
653.81345	0.08046
651.88480	0.08078
649.95614	0.08119
648.02749	0.08167
646.09884	0.08208
644.17018	0.08234
642.24153	0.08242
640.31288	0.08247
638.38422	0.08277
636.45557	0.08323
634.52692	0.08362
632.59826	0.08409
630.66961	0.08401
628.74096	0.08182
626.81230	0.08413
624.88365	0.08821
622.95500	0.09256
621.02634	0.09531
619.09769	0.09549
617.16904	0.09431
615.24038	0.09242
613.31173	0.09101
611.38308	0.09114
609.45442	0.09199
607.52577	0.09195
605.59712	0.09107
603.66846	0.09130
601.73981	0.09275
599.81116	0.09374
597.88250	0.09396
595.95385	0.09385
594.02520	0.09366
592.09654	0.09370
590.16789	0.09416
588.23924	0.09464
586.31059	0.09488
584.38193	0.09515
582.45328	0.09556
580.52463	0.09611
578.59597	0.09691
576.66732	0.09788
574.73867	0.09880
572.81001	0.09959
570.88136	0.10038
568.95271	0.10145
567.02405	0.10277
565.09540	0.10387
563.16675	0.10455
561.23809	0.10496
559.30944	0.10520
557.38079	0.10552
555.45213	0.10602
553.52348	0.10626
551.59483	0.10624
549.66617	0.10637
547.73752	0.10672
545.80887	0.10715
543.88021	0.10755
541.95156	0.10780
540.02291	0.10795
538.09425	0.10818
536.16560	0.10840
534.23695	0.10871
532.30829	0.10946
530.37964	0.11040
528.45099	0.11102
526.52233	0.11121
524.59368	0.11108
522.66503	0.11084
520.73637	0.11072
518.80772	0.11069
516.87907	0.11057
514.95042	0.11054
513.02176	0.11066
511.09311	0.11047
509.16446	0.10990
507.23580	0.10931
505.30715	0.10878
503.37850	0.10829
501.44984	0.10783
499.52119	0.10736
497.59254	0.10700
495.66388	0.10676
493.73523	0.10637
491.80658	0.10582
489.87792	0.10527
487.94927	0.10468
486.02062	0.10399
484.09196	0.10337
482.16331	0.10302
480.23466	0.10285
478.30600	0.10256
476.37735	0.10222
474.44870	0.10221
472.52004	0.10227
470.59139	0.10187
468.66274	0.10126
466.73408	0.10093
464.80543	0.10085
462.87678	0.10071
460.94812	0.10029
459.01947	0.09958
457.09082	0.09906
455.16216	0.09886
453.23351	0.09854
451.30486	0.09815
449.37620	0.09775
447.44755	0.09712
445.51890	0.09642
443.59025	0.09591
441.66159	0.09546
439.73294	0.09487
437.80429	0.09419
435.87563	0.09384
433.94698	0.09385
432.01833	0.09379
430.08967	0.09359
428.16102	0.09326
426.23237	0.09276
424.30371	0.09229
422.37506	0.09210
420.44641	0.09197
418.51775	0.09187
416.58910	0.09182
414.66045	0.09139
412.73179	0.09067
410.80314	0.09020
408.87449	0.09015
406.94583	0.09027
405.01718	0.09047
403.08853	0.09076
401.15987	0.09095
399.23122	0.09093
