3996.16951	0.01081
3994.24086	0.01058
3992.31221	0.01058
3990.38355	0.01071
3988.45490	0.01079
3986.52625	0.01085
3984.59759	0.01097
3982.66894	0.01105
3980.74029	0.01099
3978.81163	0.01081
3976.88298	0.01065
3974.95433	0.01061
3973.02567	0.01063
3971.09702	0.01069
3969.16837	0.01081
3967.23972	0.01095
3965.31106	0.01098
3963.38241	0.01092
3961.45376	0.01089
3959.52510	0.01085
3957.59645	0.01074
3955.66780	0.01071
3953.73914	0.01083
3951.81049	0.01096
3949.88184	0.01098
3947.95318	0.01091
3946.02453	0.01084
3944.09588	0.01080
3942.16722	0.01084
3940.23857	0.01085
3938.30992	0.01075
3936.38126	0.01060
3934.45261	0.01045
3932.52396	0.01039
3930.59530	0.01051
3928.66665	0.01064
3926.73800	0.01053
3924.80934	0.01027
3922.88069	0.01016
3920.95204	0.01027
3919.02338	0.01046
3917.09473	0.01053
3915.16608	0.01056
3913.23742	0.01067
3911.30877	0.01084
3909.38012	0.01089
3907.45146	0.01075
3905.52281	0.01060
3903.59416	0.01061
3901.66550	0.01066
3899.73685	0.01063
3897.80820	0.01058
3895.87955	0.01060
3893.95089	0.01063
3892.02224	0.01058
3890.09359	0.01055
3888.16493	0.01053
3886.23628	0.01047
3884.30763	0.01050
3882.37897	0.01047
3880.45032	0.01033
3878.52167	0.01031
3876.59301	0.01036
3874.66436	0.01044
3872.73571	0.01052
3870.80705	0.01045
3868.87840	0.01050
3866.94975	0.01063
3865.02109	0.01058
3863.09244	0.01048
3861.16379	0.01036
3859.23513	0.01035
3857.30648	0.01054
3855.37783	0.01064
3853.44917	0.01056
3851.52052	0.01051
3849.59187	0.01047
3847.66321	0.01049
3845.73456	0.01057
3843.80591	0.01055
3841.87725	0.01043
3839.94860	0.01021
3838.01995	0.00999
3836.09129	0.01001
3834.16264	0.01012
3832.23399	0.01013
3830.30534	0.01017
3828.37668	0.01024
3826.44803	0.01024
3824.51938	0.01022
3822.59072	0.01016
3820.66207	0.01018
3818.73342	0.01025
3816.80476	0.01018
3814.87611	0.01020
3812.94746	0.01027
3811.01880	0.01026
3809.09015	0.01021
3807.16150	0.01014
3805.23284	0.01016
3803.30419	0.01006
3801.37554	0.01000
3799.44688	0.01019
3797.51823	0.01022
3795.58958	0.01014
3793.66092	0.01017
3791.73227	0.01024
3789.80362	0.01024
3787.87496	0.01008
3785.94631	0.00987
3784.01766	0.00977
3782.08900	0.00987
3780.16035	0.01003
3778.23170	0.01014
3776.30304	0.01015
3774.37439	0.01010
3772.44574	0.01006
3770.51708	0.01006
3768.58843	0.01015
3766.65978	0.01021
3764.73112	0.01015
3762.80247	0.00998
3760.87382	0.00973
3758.94517	0.00963
3757.01651	0.00978
3755.08786	0.01001
3753.15921	0.01007
3751.23055	0.01003
3749.30190	0.01016
3747.37325	0.01039
3745.44459	0.01027
3743.51594	0.01009
3741.58729	0.00999
3739.65863	0.00984
3737.72998	0.00983
3735.80133	0.00994
3733.87267	0.01007
3731.94402	0.01000
3730.01537	0.00980
3728.08671	0.00957
3726.15806	0.00946
3724.22941	0.00947
3722.30075	0.00950
3720.37210	0.00962
3718.44345	0.00977
3716.51479	0.00988
3714.58614	0.00987
3712.65749	0.00973
3710.72883	0.00964
3708.80018	0.00962
3706.87153	0.00960
3704.94287	0.00952
3703.01422	0.00941
3701.08557	0.00943
3699.15691	0.00947
3697.22826	0.00937
3695.29961	0.00932
3693.37095	0.00941
3691.44230	0.00960
3689.51365	0.00973
3687.58500	0.00977
3685.65634	0.00974
3683.72769	0.00958
3681.79904	0.00944
3679.87038	0.00947
3677.94173	0.00958
3676.01308	0.00962
3674.08442	0.00984
3672.15577	0.00999
3670.22712	0.00987
3668.29846	0.00964
3666.36981	0.00942
3664.44116	0.00944
3662.51250	0.00958
3660.58385	0.00963
3658.65520	0.00963
3656.72654	0.00969
3654.79789	0.00990
3652.86924	0.01008
3650.94058	0.01004
3649.01193	0.00997
3647.08328	0.01002
3645.15462	0.01007
3643.22597	0.01014
3641.29732	0.01028
3639.36866	0.01034
3637.44001	0.01027
3635.51136	0.01019
3633.58270	0.01020
3631.65405	0.01028
3629.72540	0.01034
3627.79674	0.01053
3625.86809	0.01071
3623.93944	0.01077
3622.01079	0.01084
3620.08213	0.01099
3618.15348	0.01120
3616.22483	0.01132
3614.29617	0.01138
3612.36752	0.01154
3610.43887	0.01162
3608.51021	0.01152
3606.58156	0.01142
3604.65291	0.01141
3602.72425	0.01153
3600.79560	0.01171
3598.86695	0.01183
3596.93829	0.01178
3595.00964	0.01173
3593.08099	0.01191
3591.15233	0.01220
3589.22368	0.01237
3587.29503	0.01244
3585.36637	0.01249
3583.43772	0.01256
3581.50907	0.01270
3579.58041	0.01287
3577.65176	0.01303
3575.72311	0.01318
3573.79445	0.01333
3571.86580	0.01354
3569.93715	0.01375
3568.00849	0.01381
3566.07984	0.01387
3564.15119	0.01404
3562.22253	0.01418
3560.29388	0.01422
3558.36523	0.01428
3556.43657	0.01438
3554.50792	0.01442
3552.57927	0.01449
3550.65062	0.01470
3548.72196	0.01486
3546.79331	0.01492
3544.86466	0.01507
3542.93600	0.01530
3541.00735	0.01548
3539.07870	0.01562
3537.15004	0.01582
3535.22139	0.01600
3533.29274	0.01603
3531.36408	0.01602
3529.43543	0.01608
3527.50678	0.01620
3525.57812	0.01635
3523.64947	0.01650
3521.72082	0.01656
3519.79216	0.01656
3517.86351	0.01663
3515.93486	0.01675
3514.00620	0.01690
3512.07755	0.01708
3510.14890	0.01733
3508.22024	0.01756
3506.29159	0.01763
3504.36294	0.01757
3502.43428	0.01760
3500.50563	0.01772
3498.57698	0.01780
3496.64832	0.01787
3494.71967	0.01801
3492.79102	0.01810
3490.86236	0.01809
3488.93371	0.01813
3487.00506	0.01833
3485.07641	0.01865
3483.14775	0.01893
3481.21910	0.01903
3479.29045	0.01895
3477.36179	0.01885
3475.43314	0.01889
3473.50449	0.01912
3471.57583	0.01937
3469.64718	0.01947
3467.71853	0.01948
3465.78987	0.01961
3463.86122	0.01981
3461.93257	0.01989
3460.00391	0.01975
3458.07526	0.01956
3456.14661	0.01962
3454.21795	0.01988
3452.28930	0.02008
3450.36065	0.02019
3448.43199	0.02038
3446.50334	0.02064
3444.57469	0.02080
3442.64603	0.02080
3440.71738	0.02079
3438.78873	0.02087
3436.86007	0.02098
3434.93142	0.02105
3433.00277	0.02124
3431.07411	0.02155
3429.14546	0.02178
3427.21681	0.02191
3425.28815	0.02204
3423.35950	0.02214
3421.43085	0.02219
3419.50219	0.02224
3417.57354	0.02224
3415.64489	0.02221
3413.71624	0.02225
3411.78758	0.02243
3409.85893	0.02277
3407.93028	0.02314
3406.00162	0.02331
3404.07297	0.02329
3402.14432	0.02324
3400.21566	0.02329
3398.28701	0.02333
3396.35836	0.02335
3394.42970	0.02344
3392.50105	0.02360
3390.57240	0.02382
3388.64374	0.02408
3386.71509	0.02432
3384.78644	0.02449
3382.85778	0.02464
3380.92913	0.02477
3379.00048	0.02489
3377.07182	0.02504
3375.14317	0.02526
3373.21452	0.02548
3371.28586	0.02562
3369.35721	0.02566
3367.42856	0.02566
3365.49990	0.02575
3363.57125	0.02595
3361.64260	0.02625
3359.71394	0.02658
3357.78529	0.02689
3355.85664	0.02715
3353.92798	0.02728
3351.99933	0.02738
3350.07068	0.02766
3348.14202	0.02808
3346.21337	0.02844
3344.28472	0.02873
3342.35607	0.02892
3340.42741	0.02899
3338.49876	0.02910
3336.57011	0.02930
3334.64145	0.02945
3332.71280	0.02957
3330.78415	0.02981
3328.85549	0.03010
3326.92684	0.03035
3324.99819	0.03057
3323.06953	0.03075
3321.14088	0.03081
3319.21223	0.03077
3317.28357	0.03080
3315.35492	0.03092
3313.42627	0.03104
3311.49761	0.03119
3309.56896	0.03139
3307.64031	0.03151
3305.71165	0.03152
3303.78300	0.03152
3301.85435	0.03161
3299.92569	0.03181
3297.99704	0.03197
3296.06839	0.03203
3294.13973	0.03198
3292.21108	0.03187
3290.28243	0.03181
3288.35377	0.03185
3286.42512	0.03194
3284.49647	0.03206
3282.56781	0.03215
3280.63916	0.03214
3278.71051	0.03205
3276.78186	0.03202
3274.85320	0.03206
3272.92455	0.03211
3270.99590	0.03209
3269.06724	0.03198
3267.13859	0.03186
3265.20994	0.03173
3263.28128	0.03155
3261.35263	0.03133
3259.42398	0.03117
3257.49532	0.03109
3255.56667	0.03100
3253.63802	0.03087
3251.70936	0.03080
3249.78071	0.03081
3247.85206	0.03084
3245.92340	0.03076
3243.99475	0.03061
3242.06610	0.03053
3240.13744	0.03049
3238.20879	0.03037
3236.28014	0.03019
3234.35148	0.03013
3232.42283	0.03021
3230.49418	0.03022
3228.56552	0.03011
3226.63687	0.03003
3224.70822	0.03001
3222.77956	0.02998
3220.85091	0.02990
3218.92226	0.02977
3216.99360	0.02962
3215.06495	0.02950
3213.13630	0.02950
3211.20764	0.02953
3209.27899	0.02946
3207.35034	0.02939
3205.42169	0.02940
3203.49303	0.02946
3201.56438	0.02946
3199.63573	0.02930
3197.70707	0.02906
3195.77842	0.02889
3193.84977	0.02883
3191.92111	0.02880
3189.99246	0.02869
3188.06381	0.02854
3186.13515	0.02842
3184.20650	0.02833
3182.27785	0.02821
3180.34919	0.02805
3178.42054	0.02793
3176.49189	0.02783
3174.56323	0.02776
3172.63458	0.02772
3170.70593	0.02767
3168.77727	0.02753
3166.84862	0.02736
3164.91997	0.02717
3162.99131	0.02695
3161.06266	0.02673
3159.13401	0.02665
3157.20535	0.02663
3155.27670	0.02652
3153.34805	0.02633
3151.41939	0.02614
3149.49074	0.02598
3147.56209	0.02582
3145.63343	0.02572
3143.70478	0.02573
3141.77613	0.02572
3139.84748	0.02556
3137.91882	0.02532
3135.99017	0.02515
3134.06152	0.02510
3132.13286	0.02513
3130.20421	0.02515
3128.27556	0.02509
3126.34690	0.02500
3124.41825	0.02494
3122.48960	0.02488
3120.56094	0.02485
3118.63229	0.02488
3116.70364	0.02490
3114.77498	0.02483
3112.84633	0.02476
3110.91768	0.02483
3108.98902	0.02493
3107.06037	0.02493
3105.13172	0.02488
3103.20306	0.02487
3101.27441	0.02484
3099.34576	0.02485
3097.41710	0.02492
3095.48845	0.02501
3093.55980	0.02511
3091.63114	0.02525
3089.70249	0.02535
3087.77384	0.02538
3085.84518	0.02548
3083.91653	0.02566
3081.98788	0.02582
3080.05922	0.02590
3078.13057	0.02590
3076.20192	0.02588
3074.27326	0.02585
3072.34461	0.02582
3070.41596	0.02580
3068.48731	0.02577
3066.55865	0.02565
3064.63000	0.02548
3062.70135	0.02544
3060.77269	0.02554
3058.84404	0.02565
3056.91539	0.02567
3054.98673	0.02557
3053.05808	0.02537
3051.12943	0.02515
3049.20077	0.02500
3047.27212	0.02489
3045.34347	0.02477
3043.41481	0.02467
3041.48616	0.02452
3039.55751	0.02436
3037.62885	0.02425
3035.70020	0.02416
3033.77155	0.02406
3031.84289	0.02398
3029.91424	0.02389
3027.98559	0.02374
3026.05693	0.02358
3024.12828	0.02347
3022.19963	0.02338
3020.27097	0.02329
3018.34232	0.02328
3016.41367	0.02331
3014.48501	0.02327
3012.55636	0.02313
3010.62771	0.02299
3008.69905	0.02295
3006.77040	0.02301
3004.84175	0.02306
3002.91309	0.02307
3000.98444	0.02304
2999.05579	0.02301
2997.12714	0.02305
2995.19848	0.02308
2993.26983	0.02306
2991.34118	0.02309
2989.41252	0.02321
2987.48387	0.02334
2985.55522	0.02345
2983.62656	0.02356
2981.69791	0.02369
2979.76926	0.02380
2977.84060	0.02388
2975.91195	0.02401
2973.98330	0.02422
2972.05464	0.02439
2970.12599	0.02444
2968.19734	0.02445
2966.26868	0.02447
2964.34003	0.02454
2962.41138	0.02472
2960.48272	0.02492
2958.55407	0.02508
2956.62542	0.02523
2954.69676	0.02530
2952.76811	0.02530
2950.83946	0.02529
2948.91080	0.02534
2946.98215	0.02540
2945.05350	0.02544
2943.12484	0.02550
2941.19619	0.02567
2939.26754	0.02597
2937.33888	0.02629
2935.41023	0.02650
2933.48158	0.02663
2931.55293	0.02675
2929.62427	0.02687
2927.69562	0.02693
2925.76697	0.02695
2923.83831	0.02701
2921.90966	0.02709
2919.98101	0.02712
2918.05235	0.02703
2916.12370	0.02678
2914.19505	0.02634
2912.26639	0.02582
2910.33774	0.02531
2908.40909	0.02489
2906.48043	0.02462
2904.55178	0.02449
2902.62313	0.02440
2900.69447	0.02426
2898.76582	0.02410
2896.83717	0.02401
2894.90851	0.02396
2892.97986	0.02388
2891.05121	0.02380
2889.12255	0.02375
2887.19390	0.02366
2885.26525	0.02357
2883.33659	0.02354
2881.40794	0.02347
2879.47929	0.02338
2877.55063	0.02341
2875.62198	0.02352
2873.69333	0.02357
2871.76467	0.02356
2869.83602	0.02358
2867.90737	0.02356
2865.97871	0.02347
2864.05006	0.02336
2862.12141	0.02329
2860.19276	0.02322
2858.26410	0.02317
2856.33545	0.02320
2854.40680	0.02331
2852.47814	0.02338
2850.54949	0.02331
2848.62084	0.02312
2846.69218	0.02283
2844.76353	0.02246
2842.83488	0.02210
2840.90622	0.02181
2838.97757	0.02163
2837.04892	0.02147
2835.12026	0.02130
2833.19161	0.02117
2831.26296	0.02114
2829.33430	0.02118
2827.40565	0.02108
2825.47700	0.02085
2823.54834	0.02071
2821.61969	0.02069
2819.69104	0.02069
2817.76238	0.02066
2815.83373	0.02058
2813.90508	0.02051
2811.97642	0.02051
2810.04777	0.02056
2808.11912	0.02051
2806.19046	0.02035
2804.26181	0.02021
2802.33316	0.02017
2800.40450	0.02021
2798.47585	0.02022
2796.54720	0.02013
2794.61855	0.01999
2792.68989	0.01989
2790.76124	0.01987
2788.83259	0.01992
2786.90393	0.01991
2784.97528	0.01977
2783.04663	0.01961
2781.11797	0.01956
2779.18932	0.01955
2777.26067	0.01949
2775.33201	0.01939
2773.40336	0.01932
2771.47471	0.01933
2769.54605	0.01936
2767.61740	0.01933
2765.68875	0.01927
2763.76009	0.01916
2761.83144	0.01901
2759.90279	0.01894
2757.97413	0.01898
2756.04548	0.01899
2754.11683	0.01892
2752.18817	0.01885
2750.25952	0.01888
2748.33087	0.01894
2746.40221	0.01891
2744.47356	0.01884
2742.54491	0.01881
2740.61625	0.01882
2738.68760	0.01881
2736.75895	0.01875
2734.83029	0.01872
2732.90164	0.01869
2730.97299	0.01863
2729.04433	0.01849
2727.11568	0.01836
2725.18703	0.01829
2723.25838	0.01821
2721.32972	0.01812
2719.40107	0.01810
2717.47242	0.01812
2715.54376	0.01806
2713.61511	0.01796
2711.68646	0.01794
2709.75780	0.01795
2707.82915	0.01793
2705.90050	0.01791
2703.97184	0.01788
2702.04319	0.01783
2700.11454	0.01779
2698.18588	0.01779
2696.25723	0.01778
2694.32858	0.01771
2692.39992	0.01764
2690.47127	0.01765
2688.54262	0.01770
2686.61396	0.01774
2684.68531	0.01772
2682.75666	0.01765
2680.82800	0.01757
2678.89935	0.01754
2676.97070	0.01751
2675.04204	0.01748
2673.11339	0.01744
2671.18474	0.01744
2669.25608	0.01743
2667.32743	0.01737
2665.39878	0.01733
2663.47012	0.01731
2661.54147	0.01729
2659.61282	0.01725
2657.68417	0.01721
2655.75551	0.01719
2653.82686	0.01716
2651.89821	0.01709
2649.96955	0.01702
2648.04090	0.01698
2646.11225	0.01696
2644.18359	0.01691
2642.25494	0.01685
2640.32629	0.01681
2638.39763	0.01672
2636.46898	0.01656
2634.54033	0.01646
2632.61167	0.01644
2630.68302	0.01636
2628.75437	0.01625
2626.82571	0.01617
2624.89706	0.01604
2622.96841	0.01587
2621.03975	0.01580
2619.11110	0.01580
2617.18245	0.01570
2615.25379	0.01548
2613.32514	0.01526
2611.39649	0.01513
2609.46783	0.01511
2607.53918	0.01514
2605.61053	0.01511
2603.68187	0.01501
2601.75322	0.01492
2599.82457	0.01489
2597.89591	0.01486
2595.96726	0.01482
2594.03861	0.01476
2592.10995	0.01466
2590.18130	0.01455
2588.25265	0.01451
2586.32400	0.01446
2584.39534	0.01434
2582.46669	0.01423
2580.53804	0.01420
2578.60938	0.01425
2576.68073	0.01430
2574.75208	0.01423
2572.82342	0.01404
2570.89477	0.01382
2568.96612	0.01367
2567.03746	0.01374
2565.10881	0.01399
2563.18016	0.01415
2561.25150	0.01401
2559.32285	0.01367
2557.39420	0.01346
2555.46554	0.01346
2553.53689	0.01358
2551.60824	0.01374
2549.67958	0.01381
2547.75093	0.01376
2545.82228	0.01367
2543.89362	0.01353
2541.96497	0.01336
2540.03632	0.01326
2538.10766	0.01331
2536.17901	0.01338
2534.25036	0.01328
2532.32170	0.01309
2530.39305	0.01301
2528.46440	0.01300
2526.53574	0.01299
2524.60709	0.01296
2522.67844	0.01295
2520.74978	0.01299
2518.82113	0.01299
2516.89248	0.01292
2514.96383	0.01286
2513.03517	0.01285
2511.10652	0.01287
2509.17787	0.01299
2507.24921	0.01315
2505.32056	0.01320
2503.39191	0.01320
2501.46325	0.01322
2499.53460	0.01319
2497.60595	0.01312
2495.67729	0.01310
2493.74864	0.01308
2491.81999	0.01299
2489.89133	0.01284
2487.96268	0.01275
2486.03403	0.01273
2484.10537	0.01270
2482.17672	0.01270
2480.24807	0.01272
2478.31941	0.01264
2476.39076	0.01254
2474.46211	0.01256
2472.53345	0.01267
2470.60480	0.01280
2468.67615	0.01286
2466.74749	0.01279
2464.81884	0.01268
2462.89019	0.01274
2460.96153	0.01293
2459.03288	0.01296
2457.10423	0.01280
2455.17557	0.01264
2453.24692	0.01255
2451.31827	0.01252
2449.38962	0.01253
2447.46096	0.01254
2445.53231	0.01258
2443.60366	0.01258
2441.67500	0.01246
2439.74635	0.01234
2437.81770	0.01240
2435.88904	0.01255
2433.96039	0.01260
2432.03174	0.01253
2430.10308	0.01244
2428.17443	0.01242
2426.24578	0.01246
2424.31712	0.01246
2422.38847	0.01236
2420.45982	0.01229
2418.53116	0.01232
2416.60251	0.01243
2414.67386	0.01250
2412.74520	0.01246
2410.81655	0.01240
2408.88790	0.01235
2406.95924	0.01233
2405.03059	0.01241
2403.10194	0.01252
2401.17328	0.01256
2399.24463	0.01249
2397.31598	0.01240
2395.38732	0.01242
2393.45867	0.01261
2391.53002	0.01282
2389.60136	0.01290
2387.67271	0.01284
2385.74406	0.01274
2383.81540	0.01267
2381.88675	0.01267
2379.95810	0.01274
2378.02945	0.01284
2376.10079	0.01295
2374.17214	0.01302
2372.24349	0.01302
2370.31483	0.01299
2368.38618	0.01302
2366.45753	0.01311
2364.52887	0.01315
2362.60022	0.01318
2360.67157	0.01323
2358.74291	0.01322
2356.81426	0.01321
2354.88561	0.01331
2352.95695	0.01344
2351.02830	0.01348
2349.09965	0.01351
2347.17099	0.01356
2345.24234	0.01355
2343.31369	0.01350
2341.38503	0.01349
2339.45638	0.01353
2337.52773	0.01353
2335.59907	0.01344
2333.67042	0.01335
2331.74177	0.01332
2329.81311	0.01335
2327.88446	0.01354
2325.95581	0.01385
2324.02715	0.01400
2322.09850	0.01387
2320.16985	0.01362
2318.24119	0.01342
2316.31254	0.01327
2314.38389	0.01311
2312.45524	0.01285
2310.52658	0.01257
2308.59793	0.01244
2306.66928	0.01237
2304.74062	0.01223
2302.81197	0.01208
2300.88332	0.01207
2298.95466	0.01211
2297.02601	0.01208
2295.09736	0.01200
2293.16870	0.01181
2291.24005	0.01148
2289.31140	0.01124
2287.38274	0.01131
2285.45409	0.01155
2283.52544	0.01160
2281.59678	0.01129
2279.66813	0.01094
2277.73948	0.01068
2275.81082	0.01032
2273.88217	0.00990
2271.95352	0.00978
2270.02486	0.00993
2268.09621	0.01004
2266.16756	0.00995
2264.23890	0.00977
2262.31025	0.00965
2260.38160	0.00957
2258.45294	0.00943
2256.52429	0.00923
2254.59564	0.00906
2252.66698	0.00886
2250.73833	0.00857
2248.80968	0.00844
2246.88102	0.00854
2244.95237	0.00873
2243.02372	0.00874
2241.09507	0.00857
2239.16641	0.00835
2237.23776	0.00810
2235.30911	0.00787
2233.38045	0.00775
2231.45180	0.00776
2229.52315	0.00781
2227.59449	0.00783
2225.66584	0.00781
2223.73719	0.00778
2221.80853	0.00773
2219.87988	0.00756
2217.95123	0.00735
2216.02257	0.00732
2214.09392	0.00735
2212.16527	0.00715
2210.23661	0.00701
2208.30796	0.00722
2206.37931	0.00740
2204.45065	0.00721
2202.52200	0.00691
2200.59335	0.00686
2198.66469	0.00698
2196.73604	0.00710
2194.80739	0.00718
2192.87873	0.00724
2190.95008	0.00717
2189.02143	0.00675
2187.09277	0.00629
2185.16412	0.00613
2183.23547	0.00587
2181.30681	0.00552
2179.37816	0.00557
2177.44951	0.00575
2175.52085	0.00568
2173.59220	0.00562
2171.66355	0.00568
2169.73490	0.00581
2167.80624	0.00588
2165.87759	0.00556
2163.94894	0.00500
2162.02028	0.00461
2160.09163	0.00419
2158.16298	0.00362
2156.23432	0.00348
2154.30567	0.00385
2152.37702	0.00422
2150.44836	0.00466
2148.51971	0.00524
2146.59106	0.00550
2144.66240	0.00548
2142.73375	0.00556
2140.80510	0.00573
2138.87644	0.00585
2136.94779	0.00595
2135.01914	0.00600
2133.09048	0.00606
2131.16183	0.00635
2129.23318	0.00694
2127.30452	0.00748
2125.37587	0.00772
2123.44722	0.00784
2121.51856	0.00796
2119.58991	0.00807
2117.66126	0.00822
2115.73260	0.00829
2113.80395	0.00815
2111.87530	0.00792
2109.94664	0.00790
2108.01799	0.00816
2106.08934	0.00831
2104.16069	0.00823
2102.23203	0.00812
2100.30338	0.00805
2098.37473	0.00797
2096.44607	0.00778
2094.51742	0.00759
2092.58877	0.00754
2090.66011	0.00758
2088.73146	0.00762
2086.80281	0.00766
2084.87415	0.00770
2082.94550	0.00778
2081.01685	0.00790
2079.08819	0.00808
2077.15954	0.00822
2075.23089	0.00817
2073.30223	0.00794
2071.37358	0.00761
2069.44493	0.00730
2067.51627	0.00713
2065.58762	0.00702
2063.65897	0.00687
2061.73031	0.00666
2059.80166	0.00645
2057.87301	0.00636
2055.94435	0.00645
2054.01570	0.00655
2052.08705	0.00651
2050.15839	0.00629
2048.22974	0.00593
2046.30109	0.00556
2044.37243	0.00528
2042.44378	0.00494
2040.51513	0.00458
2038.58647	0.00446
2036.65782	0.00449
2034.72917	0.00454
2032.80052	0.00473
2030.87186	0.00480
2028.94321	0.00453
2027.01456	0.00417
2025.08590	0.00400
2023.15725	0.00405
2021.22860	0.00416
2019.29994	0.00427
2017.37129	0.00443
2015.44264	0.00453
2013.51398	0.00447
2011.58533	0.00448
2009.65668	0.00465
2007.72802	0.00477
2005.79937	0.00471
2003.87072	0.00473
2001.94206	0.00497
2000.01341	0.00507
1998.08476	0.00489
1996.15610	0.00473
1994.22745	0.00475
1992.29880	0.00491
1990.37014	0.00515
1988.44149	0.00519
1986.51284	0.00492
1984.58418	0.00473
1982.65553	0.00495
1980.72688	0.00526
1978.79822	0.00516
1976.86957	0.00474
1974.94092	0.00445
1973.01226	0.00449
1971.08361	0.00476
1969.15496	0.00518
1967.22631	0.00554
1965.29765	0.00556
1963.36900	0.00534
1961.44035	0.00525
1959.51169	0.00530
1957.58304	0.00519
1955.65439	0.00489
1953.72573	0.00472
1951.79708	0.00485
1949.86843	0.00521
1947.93977	0.00563
1946.01112	0.00596
1944.08247	0.00616
1942.15381	0.00634
1940.22516	0.00663
1938.29651	0.00683
1936.36785	0.00684
1934.43920	0.00687
1932.51055	0.00696
1930.58189	0.00700
1928.65324	0.00700
1926.72459	0.00694
1924.79593	0.00692
1922.86728	0.00710
1920.93863	0.00733
1919.00997	0.00731
1917.08132	0.00710
1915.15267	0.00701
1913.22401	0.00712
1911.29536	0.00737
1909.36671	0.00761
1907.43805	0.00773
1905.50940	0.00772
1903.58075	0.00771
1901.65209	0.00767
1899.72344	0.00758
1897.79479	0.00758
1895.86614	0.00777
1893.93748	0.00798
1892.00883	0.00805
1890.08018	0.00802
1888.15152	0.00800
1886.22287	0.00794
1884.29422	0.00788
1882.36556	0.00789
1880.43691	0.00789
1878.50826	0.00786
1876.57960	0.00790
1874.65095	0.00801
1872.72230	0.00813
1870.79364	0.00821
1868.86499	0.00824
1866.93634	0.00822
1865.00768	0.00820
1863.07903	0.00825
1861.15038	0.00830
1859.22172	0.00829
1857.29307	0.00819
1855.36442	0.00808
1853.43576	0.00807
1851.50711	0.00813
1849.57846	0.00813
1847.64980	0.00813
1845.72115	0.00820
1843.79250	0.00835
1841.86384	0.00850
1839.93519	0.00844
1838.00654	0.00830
1836.07788	0.00826
1834.14923	0.00834
1832.22058	0.00844
1830.29192	0.00856
1828.36327	0.00869
1826.43462	0.00875
1824.50597	0.00879
1822.57731	0.00881
1820.64866	0.00876
1818.72001	0.00871
1816.79135	0.00867
1814.86270	0.00861
1812.93405	0.00851
1811.00539	0.00841
1809.07674	0.00833
1807.14809	0.00830
1805.21943	0.00837
1803.29078	0.00850
1801.36213	0.00856
1799.43347	0.00858
1797.50482	0.00863
1795.57617	0.00874
1793.64751	0.00884
1791.71886	0.00887
1789.79021	0.00884
1787.86155	0.00876
1785.93290	0.00868
1784.00425	0.00864
1782.07559	0.00861
1780.14694	0.00859
1778.21829	0.00863
1776.28963	0.00870
1774.36098	0.00871
1772.43233	0.00867
1770.50367	0.00865
1768.57502	0.00859
1766.64637	0.00856
1764.71771	0.00851
1762.78906	0.00840
1760.86041	0.00841
1758.93176	0.00848
1757.00310	0.00849
1755.07445	0.00854
1753.14580	0.00858
1751.21714	0.00863
1749.28849	0.00876
1747.35984	0.00880
1745.43118	0.00879
1743.50253	0.00889
1741.57388	0.00903
1739.64522	0.00918
1737.71657	0.00948
1735.78792	0.00973
1733.85926	0.00990
1731.93061	0.01013
1730.00196	0.01026
1728.07330	0.01040
1726.14465	0.01061
1724.21600	0.01079
1722.28734	0.01102
1720.35869	0.01132
1718.43004	0.01160
1716.50138	0.01203
1714.57273	0.01253
1712.64408	0.01298
1710.71542	0.01354
1708.78677	0.01425
1706.85812	0.01504
1704.92946	0.01598
1703.00081	0.01710
1701.07216	0.01823
1699.14350	0.01960
1697.21485	0.02089
1695.28620	0.02204
1693.35754	0.02344
1691.42889	0.02475
1689.50024	0.02615
1687.57159	0.02775
1685.64293	0.02927
1683.71428	0.03090
1681.78563	0.03263
1679.85697	0.03429
1677.92832	0.03612
1675.99967	0.03810
1674.07101	0.04023
1672.14236	0.04242
1670.21371	0.04454
1668.28505	0.04671
1666.35640	0.04888
1664.42775	0.05094
1662.49909	0.05292
1660.57044	0.05482
1658.64179	0.05657
1656.71313	0.05824
1654.78448	0.05963
1652.85583	0.06086
1650.92717	0.06219
1648.99852	0.06318
1647.06987	0.06393
1645.14121	0.06474
1643.21256	0.06545
1641.28391	0.06603
1639.35525	0.06664
1637.42660	0.06719
1635.49795	0.06765
1633.56929	0.06805
1631.64064	0.06812
1629.71199	0.06784
1627.78333	0.06734
1625.85468	0.06656
1623.92603	0.06539
1621.99738	0.06393
1620.06872	0.06231
1618.14007	0.06045
1616.21142	0.05852
1614.28276	0.05663
1612.35411	0.05454
1610.42546	0.05242
1608.49680	0.05040
1606.56815	0.04848
1604.63950	0.04666
1602.71084	0.04499
1600.78219	0.04345
1598.85354	0.04204
1596.92488	0.04079
1594.99623	0.03971
1593.06758	0.03881
1591.13892	0.03811
1589.21027	0.03761
1587.28162	0.03722
1585.35296	0.03693
1583.42431	0.03684
1581.49566	0.03702
1579.56700	0.03745
1577.63835	0.03791
1575.70970	0.03849
1573.78104	0.03937
1571.85239	0.04026
1569.92374	0.04127
1567.99508	0.04253
1566.06643	0.04387
1564.13778	0.04531
1562.20912	0.04684
1560.28047	0.04821
1558.35182	0.04965
1556.42316	0.05104
1554.49451	0.05206
1552.56586	0.05303
1550.63721	0.05400
1548.70855	0.05491
1546.77990	0.05573
1544.85125	0.05642
1542.92259	0.05704
1540.99394	0.05745
1539.06529	0.05772
1537.13663	0.05789
1535.20798	0.05775
1533.27933	0.05751
1531.35067	0.05740
1529.42202	0.05720
1527.49337	0.05689
1525.56471	0.05658
1523.63606	0.05623
1521.70741	0.05575
1519.77875	0.05528
1517.85010	0.05467
1515.92145	0.05387
1513.99279	0.05300
1512.06414	0.05206
1510.13549	0.05115
1508.20683	0.05010
1506.27818	0.04887
1504.34953	0.04763
1502.42087	0.04624
1500.49222	0.04488
1498.56357	0.04366
1496.63491	0.04244
1494.70626	0.04124
1492.77761	0.04006
1490.84895	0.03890
1488.92030	0.03786
1486.99165	0.03696
1485.06299	0.03626
1483.13434	0.03580
1481.20569	0.03559
1479.27704	0.03562
1477.34838	0.03585
1475.41973	0.03628
1473.49108	0.03686
1471.56242	0.03760
1469.63377	0.03842
1467.70512	0.03923
1465.77646	0.04006
1463.84781	0.04096
1461.91916	0.04189
1459.99050	0.04289
1458.06185	0.04390
1456.13320	0.04497
1454.20454	0.04593
1452.27589	0.04654
1450.34724	0.04696
1448.41858	0.04723
1446.48993	0.04731
1444.56128	0.04718
1442.63262	0.04694
1440.70397	0.04668
1438.77532	0.04626
1436.84666	0.04562
1434.91801	0.04498
1432.98936	0.04429
1431.06070	0.04354
1429.13205	0.04291
1427.20340	0.04243
1425.27474	0.04205
1423.34609	0.04182
1421.41744	0.04171
1419.48878	0.04168
1417.56013	0.04185
1415.63148	0.04204
1413.70283	0.04217
1411.77417	0.04228
1409.84552	0.04242
1407.91687	0.04252
1405.98821	0.04257
1404.05956	0.04261
1402.13091	0.04258
1400.20225	0.04241
1398.27360	0.04220
1396.34495	0.04194
1394.41629	0.04161
1392.48764	0.04129
1390.55899	0.04097
1388.63033	0.04063
1386.70168	0.04036
1384.77303	0.04013
1382.84437	0.03984
1380.91572	0.03948
1378.98707	0.03912
1377.05841	0.03878
1375.12976	0.03839
1373.20111	0.03797
1371.27245	0.03755
1369.34380	0.03706
1367.41515	0.03649
1365.48649	0.03590
1363.55784	0.03535
1361.62919	0.03495
1359.70053	0.03471
1357.77188	0.03457
1355.84323	0.03452
1353.91457	0.03461
1351.98592	0.03484
1350.05727	0.03520
1348.12861	0.03565
1346.19996	0.03615
1344.27131	0.03670
1342.34266	0.03724
1340.41400	0.03767
1338.48535	0.03798
1336.55670	0.03822
1334.62804	0.03830
1332.69939	0.03818
1330.77074	0.03791
1328.84208	0.03757
1326.91343	0.03722
1324.98478	0.03687
1323.05612	0.03653
1321.12747	0.03625
1319.19882	0.03607
1317.27016	0.03595
1315.34151	0.03582
1313.41286	0.03568
1311.48420	0.03556
1309.55555	0.03547
1307.62690	0.03534
1305.69824	0.03514
1303.76959	0.03495
1301.84094	0.03483
1299.91228	0.03473
1297.98363	0.03464
1296.05498	0.03459
1294.12632	0.03470
1292.19767	0.03493
1290.26902	0.03521
1288.34036	0.03551
1286.41171	0.03581
1284.48306	0.03608
1282.55440	0.03636
1280.62575	0.03664
1278.69710	0.03686
1276.76845	0.03697
1274.83979	0.03702
1272.91114	0.03704
1270.98249	0.03708
1269.05383	0.03719
1267.12518	0.03744
1265.19653	0.03781
1263.26787	0.03818
1261.33922	0.03849
1259.41057	0.03881
1257.48191	0.03922
1255.55326	0.03971
1253.62461	0.04028
1251.69595	0.04091
1249.76730	0.04159
1247.83865	0.04225
1245.90999	0.04286
1243.98134	0.04352
1242.05269	0.04427
1240.12403	0.04495
1238.19538	0.04541
1236.26673	0.04566
1234.33807	0.04577
1232.40942	0.04574
1230.48077	0.04549
1228.55211	0.04508
1226.62346	0.04457
1224.69481	0.04393
1222.76615	0.04318
1220.83750	0.04238
1218.90885	0.04160
1216.98019	0.04098
1215.05154	0.04061
1213.12289	0.04044
1211.19423	0.04037
1209.26558	0.04039
1207.33693	0.04053
1205.40828	0.04080
1203.47962	0.04103
1201.55097	0.04101
1199.62232	0.04064
1197.69366	0.04026
1195.76501	0.03978
1193.83636	0.03924
1191.90770	0.03872
1189.97905	0.03821
1188.05040	0.03771
1186.12174	0.03728
1184.19309	0.03695
1182.26444	0.03671
1180.33578	0.03652
1178.40713	0.03639
1176.47848	0.03634
1174.54982	0.03639
1172.62117	0.03650
1170.69252	0.03660
1168.76386	0.03676
1166.83521	0.03700
1164.90656	0.03724
1162.97790	0.03747
1161.04925	0.03768
1159.12060	0.03780
1157.19194	0.03784
1155.26329	0.03778
1153.33464	0.03755
1151.40598	0.03725
1149.47733	0.03701
1147.54868	0.03681
1145.62002	0.03666
1143.69137	0.03660
1141.76272	0.03654
1139.83406	0.03642
1137.90541	0.03638
1135.97676	0.03652
1134.04811	0.03674
1132.11945	0.03693
1130.19080	0.03723
1128.26215	0.03761
1126.33349	0.03785
1124.40484	0.03803
1122.47619	0.03837
1120.54753	0.03890
1118.61888	0.03943
1116.69023	0.03983
1114.76157	0.04017
1112.83292	0.04059
1110.90427	0.04118
1108.97561	0.04187
1107.04696	0.04241
1105.11831	0.04280
1103.18965	0.04328
1101.26100	0.04394
1099.33235	0.04460
1097.40369	0.04515
1095.47504	0.04568
1093.54639	0.04623
1091.61773	0.04681
1089.68908	0.04751
1087.76043	0.04834
1085.83177	0.04915
1083.90312	0.04982
1081.97447	0.05043
1080.04581	0.05097
1078.11716	0.05131
1076.18851	0.05143
1074.25985	0.05152
1072.33120	0.05165
1070.40255	0.05170
1068.47390	0.05168
1066.54524	0.05172
1064.61659	0.05190
1062.68794	0.05214
1060.75928	0.05234
1058.83063	0.05245
1056.90198	0.05246
1054.97332	0.05245
1053.04467	0.05249
1051.11602	0.05258
1049.18736	0.05269
1047.25871	0.05284
1045.33006	0.05301
1043.40140	0.05322
1041.47275	0.05358
1039.54410	0.05415
1037.61544	0.05479
1035.68679	0.05539
1033.75814	0.05604
1031.82948	0.05670
1029.90083	0.05717
1027.97218	0.05738
1026.04352	0.05744
1024.11487	0.05742
1022.18622	0.05742
1020.25756	0.05748
1018.32891	0.05753
1016.40026	0.05752
1014.47160	0.05746
1012.54295	0.05733
1010.61430	0.05705
1008.68564	0.05676
1006.75699	0.05660
1004.82834	0.05631
1002.89968	0.05576
1000.97103	0.05515
999.04238	0.05456
997.11373	0.05393
995.18507	0.05330
993.25642	0.05272
991.32777	0.05214
989.39911	0.05155
987.47046	0.05104
985.54181	0.05049
983.61315	0.04985
981.68450	0.04929
979.75585	0.04891
977.82719	0.04856
975.89854	0.04816
973.96989	0.04776
972.04123	0.04749
970.11258	0.04719
968.18393	0.04668
966.25527	0.04620
964.32662	0.04601
962.39797	0.04593
960.46931	0.04583
958.54066	0.04569
956.61201	0.04553
954.68335	0.04541
952.75470	0.04524
950.82605	0.04489
948.89739	0.04453
946.96874	0.04430
945.04009	0.04416
943.11143	0.04396
941.18278	0.04364
939.25413	0.04330
937.32547	0.04306
935.39682	0.04279
933.46817	0.04242
931.53952	0.04199
929.61086	0.04160
927.68221	0.04133
925.75356	0.04115
923.82490	0.04100
921.89625	0.04074
919.96760	0.04034
918.03894	0.04004
916.11029	0.03976
914.18164	0.03921
912.25298	0.03866
910.32433	0.03863
908.39568	0.03884
906.46702	0.03885
904.53837	0.03867
902.60972	0.03835
900.68106	0.03804
898.75241	0.03794
896.82376	0.03794
894.89510	0.03789
892.96645	0.03776
891.03780	0.03753
889.10914	0.03743
887.18049	0.03762
885.25184	0.03791
883.32318	0.03829
881.39453	0.03876
879.46588	0.03913
877.53722	0.03937
875.60857	0.03968
873.67992	0.04007
871.75126	0.04033
869.82261	0.04027
867.89396	0.04002
865.96530	0.03977
864.03665	0.03951
862.10800	0.03922
860.17935	0.03897
858.25069	0.03873
856.32204	0.03846
854.39339	0.03827
852.46473	0.03822
850.53608	0.03813
848.60743	0.03779
846.67877	0.03731
844.75012	0.03697
842.82147	0.03678
840.89281	0.03654
838.96416	0.03619
837.03551	0.03587
835.10685	0.03568
833.17820	0.03562
831.24955	0.03562
829.32089	0.03563
827.39224	0.03557
825.46359	0.03536
823.53493	0.03517
821.60628	0.03517
819.67763	0.03534
817.74897	0.03546
815.82032	0.03545
813.89167	0.03558
811.96301	0.03588
810.03436	0.03605
808.10571	0.03604
806.17705	0.03595
804.24840	0.03591
802.31975	0.03598
800.39109	0.03611
798.46244	0.03625
796.53379	0.03638
794.60513	0.03641
792.67648	0.03653
790.74783	0.03688
788.81918	0.03719
786.89052	0.03725
784.96187	0.03723
783.03322	0.03733
781.10456	0.03750
779.17591	0.03759
777.24726	0.03760
775.31860	0.03762
773.38995	0.03771
771.46130	0.03783
769.53264	0.03806
767.60399	0.03854
765.67534	0.03908
763.74668	0.03935
761.81803	0.03936
759.88938	0.03944
757.96072	0.03974
756.03207	0.04010
754.10342	0.04038
752.17476	0.04066
750.24611	0.04092
748.31746	0.04095
746.38880	0.04096
744.46015	0.04118
742.53150	0.04146
740.60284	0.04174
738.67419	0.04200
736.74554	0.04217
734.81688	0.04242
732.88823	0.04283
730.95958	0.04319
729.03092	0.04353
727.10227	0.04411
725.17362	0.04485
723.24497	0.04517
721.31631	0.04535
719.38766	0.04559
717.45901	0.04599
715.53035	0.04636
713.60170	0.04658
711.67305	0.04674
709.74439	0.04707
707.81574	0.04754
705.88709	0.04793
703.95843	0.04816
702.02978	0.04831
700.10113	0.04852
698.17247	0.04880
696.24382	0.04902
694.31517	0.04922
692.38651	0.04950
690.45786	0.04989
688.52921	0.05027
686.60055	0.05041
684.67190	0.05036
682.74325	0.05044
680.81459	0.05075
678.88594	0.05111
676.95729	0.05146
675.02863	0.05184
673.09998	0.05215
671.17133	0.05235
669.24267	0.05254
667.31402	0.05278
665.38537	0.05298
663.45671	0.05319
661.52806	0.05347
659.59941	0.05370
657.67075	0.05387
655.74210	0.05408
653.81345	0.05431
651.88480	0.05450
649.95614	0.05478
648.02749	0.05513
646.09884	0.05533
644.17018	0.05527
642.24153	0.05510
640.31288	0.05508
638.38422	0.05529
636.45557	0.05549
634.52692	0.05557
632.59826	0.05579
630.66961	0.05519
628.74096	0.05164
626.81230	0.05469
624.88365	0.05981
622.95500	0.06480
621.02634	0.06751
619.09769	0.06621
617.16904	0.06420
615.24038	0.06339
613.31173	0.06311
611.38308	0.06500
609.45442	0.06943
607.52577	0.07257
605.59712	0.07278
603.66846	0.07213
601.73981	0.07188
599.81116	0.07160
597.88250	0.07117
595.95385	0.07060
594.02520	0.06992
592.09654	0.06953
590.16789	0.06967
588.23924	0.07006
586.31059	0.07050
584.38193	0.07114
582.45328	0.07193
580.52463	0.07261
578.59597	0.07319
576.66732	0.07409
574.73867	0.07565
572.81001	0.07740
570.88136	0.07860
568.95271	0.07935
567.02405	0.08012
565.09540	0.08129
563.16675	0.08295
561.23809	0.08436
559.30944	0.08493
557.38079	0.08525
555.45213	0.08560
553.52348	0.08549
551.59483	0.08510
549.66617	0.08481
547.73752	0.08457
545.80887	0.08432
543.88021	0.08407
541.95156	0.08406
540.02291	0.08451
538.09425	0.08509
536.16560	0.08542
534.23695	0.08554
532.30829	0.08554
530.37964	0.08537
528.45099	0.08527
526.52233	0.08524
524.59368	0.08506
522.66503	0.08491
520.73637	0.08482
518.80772	0.08454
516.87907	0.08394
514.95042	0.08303
513.02176	0.08199
511.09311	0.08146
509.16446	0.08155
507.23580	0.08145
505.30715	0.08074
503.37850	0.07994
501.44984	0.07946
499.52119	0.07905
497.59254	0.07826
495.66388	0.07740
493.73523	0.07693
491.80658	0.07681
489.87792	0.07675
487.94927	0.07640
486.02062	0.07553
484.09196	0.07455
482.16331	0.07395
480.23466	0.07366
478.30600	0.07342
476.37735	0.07305
474.44870	0.07280
472.52004	0.07286
470.59139	0.07294
468.66274	0.07281
466.73408	0.07257
464.80543	0.07246
462.87678	0.07250
460.94812	0.07231
459.01947	0.07178
457.09082	0.07149
455.16216	0.07149
453.23351	0.07122
451.30486	0.07063
449.37620	0.06992
447.44755	0.06929
445.51890	0.06898
443.59025	0.06875
441.66159	0.06829
439.73294	0.06778
437.80429	0.06753
435.87563	0.06767
433.94698	0.06791
432.01833	0.06777
430.08967	0.06723
428.16102	0.06663
426.23237	0.06622
424.30371	0.06600
422.37506	0.06589
420.44641	0.06575
418.51775	0.06554
416.58910	0.06518
414.66045	0.06462
412.73179	0.06403
410.80314	0.06349
408.87449	0.06300
406.94583	0.06276
405.01718	0.06308
403.08853	0.06367
401.15987	0.06385
399.23122	0.06350
