3996.16951	0.01042
3994.24086	0.01057
3992.31221	0.01076
3990.38355	0.01084
3988.45490	0.01083
3986.52625	0.01087
3984.59759	0.01092
3982.66894	0.01082
3980.74029	0.01072
3978.81163	0.01077
3976.88298	0.01084
3974.95433	0.01079
3973.02567	0.01073
3971.09702	0.01079
3969.16837	0.01083
3967.23972	0.01076
3965.31106	0.01065
3963.38241	0.01061
3961.45376	0.01063
3959.52510	0.01061
3957.59645	0.01053
3955.66780	0.01055
3953.73914	0.01071
3951.81049	0.01081
3949.88184	0.01069
3947.95318	0.01044
3946.02453	0.01033
3944.09588	0.01043
3942.16722	0.01057
3940.23857	0.01061
3938.30992	0.01049
3936.38126	0.01028
3934.45261	0.01020
3932.52396	0.01038
3930.59530	0.01065
3928.66665	0.01079
3926.73800	0.01074
3924.80934	0.01061
3922.88069	0.01052
3920.95204	0.01049
3919.02338	0.01046
3917.09473	0.01038
3915.16608	0.01032
3913.23742	0.01028
3911.30877	0.01030
3909.38012	0.01040
3907.45146	0.01053
3905.52281	0.01057
3903.59416	0.01056
3901.66550	0.01053
3899.73685	0.01045
3897.80820	0.01037
3895.87955	0.01043
3893.95089	0.01057
3892.02224	0.01060
3890.09359	0.01047
3888.16493	0.01031
3886.23628	0.01019
3884.30763	0.01008
3882.37897	0.01004
3880.45032	0.01004
3878.52167	0.00996
3876.59301	0.00993
3874.66436	0.01005
3872.73571	0.01019
3870.80705	0.01018
3868.87840	0.01005
3866.94975	0.01002
3865.02109	0.01020
3863.09244	0.01037
3861.16379	0.01041
3859.23513	0.01039
3857.30648	0.01035
3855.37783	0.01031
3853.44917	0.01027
3851.52052	0.01018
3849.59187	0.01014
3847.66321	0.01022
3845.73456	0.01031
3843.80591	0.01030
3841.87725	0.01024
3839.94860	0.01027
3838.01995	0.01038
3836.09129	0.01035
3834.16264	0.01013
3832.23399	0.00996
3830.30534	0.00998
3828.37668	0.01008
3826.44803	0.01011
3824.51938	0.01006
3822.59072	0.01002
3820.66207	0.00999
3818.73342	0.00990
3816.80476	0.00983
3814.87611	0.00985
3812.94746	0.00999
3811.01880	0.01016
3809.09015	0.01021
3807.16150	0.01013
3805.23284	0.01005
3803.30419	0.01005
3801.37554	0.01004
3799.44688	0.00998
3797.51823	0.00990
3795.58958	0.00986
3793.66092	0.00999
3791.73227	0.01023
3789.80362	0.01031
3787.87496	0.01016
3785.94631	0.00994
3784.01766	0.00988
3782.08900	0.00999
3780.16035	0.00998
3778.23170	0.00977
3776.30304	0.00965
3774.37439	0.00971
3772.44574	0.00982
3770.51708	0.00992
3768.58843	0.00992
3766.65978	0.00980
3764.73112	0.00963
3762.80247	0.00950
3760.87382	0.00945
3758.94517	0.00950
3757.01651	0.00958
3755.08786	0.00960
3753.15921	0.00957
3751.23055	0.00962
3749.30190	0.00973
3747.37325	0.00978
3745.44459	0.00975
3743.51594	0.00970
3741.58729	0.00959
3739.65863	0.00953
3737.72998	0.00953
3735.80133	0.00951
3733.87267	0.00949
3731.94402	0.00943
3730.01537	0.00933
3728.08671	0.00938
3726.15806	0.00951
3724.22941	0.00958
3722.30075	0.00958
3720.37210	0.00951
3718.44345	0.00940
3716.51479	0.00933
3714.58614	0.00934
3712.65749	0.00932
3710.72883	0.00925
3708.80018	0.00923
3706.87153	0.00926
3704.94287	0.00926
3703.01422	0.00934
3701.08557	0.00958
3699.15691	0.00969
3697.22826	0.00954
3695.29961	0.00941
3693.37095	0.00946
3691.44230	0.00952
3689.51365	0.00943
3687.58500	0.00934
3685.65634	0.00938
3683.72769	0.00946
3681.79904	0.00951
3679.87038	0.00963
3677.94173	0.00981
3676.01308	0.00977
3674.08442	0.00956
3672.15577	0.00944
3670.22712	0.00939
3668.29846	0.00932
3666.36981	0.00937
3664.44116	0.00959
3662.51250	0.00976
3660.58385	0.00980
3658.65520	0.00984
3656.72654	0.00999
3654.79789	0.01016
3652.86924	0.01031
3650.94058	0.01044
3649.01193	0.01046
3647.08328	0.01035
3645.15462	0.01020
3643.22597	0.01012
3641.29732	0.01018
3639.36866	0.01037
3637.44001	0.01057
3635.51136	0.01072
3633.58270	0.01084
3631.65405	0.01100
3629.72540	0.01118
3627.79674	0.01125
3625.86809	0.01125
3623.93944	0.01130
3622.01079	0.01141
3620.08213	0.01149
3618.15348	0.01158
3616.22483	0.01165
3614.29617	0.01168
3612.36752	0.01175
3610.43887	0.01193
3608.51021	0.01205
3606.58156	0.01206
3604.65291	0.01216
3602.72425	0.01245
3600.79560	0.01267
3598.86695	0.01266
3596.93829	0.01264
3595.00964	0.01286
3593.08099	0.01318
3591.15233	0.01332
3589.22368	0.01326
3587.29503	0.01322
3585.36637	0.01342
3583.43772	0.01380
3581.50907	0.01410
3579.58041	0.01423
3577.65176	0.01430
3575.72311	0.01440
3573.79445	0.01457
3571.86580	0.01478
3569.93715	0.01501
3568.00849	0.01528
3566.07984	0.01549
3564.15119	0.01553
3562.22253	0.01561
3560.29388	0.01582
3558.36523	0.01605
3556.43657	0.01620
3554.50792	0.01627
3552.57927	0.01633
3550.65062	0.01653
3548.72196	0.01688
3546.79331	0.01719
3544.86466	0.01736
3542.93600	0.01747
3541.00735	0.01761
3539.07870	0.01780
3537.15004	0.01805
3535.22139	0.01828
3533.29274	0.01838
3531.36408	0.01840
3529.43543	0.01852
3527.50678	0.01879
3525.57812	0.01907
3523.64947	0.01928
3521.72082	0.01948
3519.79216	0.01967
3517.86351	0.01981
3515.93486	0.01990
3514.00620	0.02002
3512.07755	0.02022
3510.14890	0.02043
3508.22024	0.02061
3506.29159	0.02079
3504.36294	0.02105
3502.43428	0.02127
3500.50563	0.02137
3498.57698	0.02144
3496.64832	0.02145
3494.71967	0.02133
3492.79102	0.02127
3490.86236	0.02142
3488.93371	0.02167
3487.00506	0.02194
3485.07641	0.02215
3483.14775	0.02223
3481.21910	0.02228
3479.29045	0.02242
3477.36179	0.02260
3475.43314	0.02272
3473.50449	0.02284
3471.57583	0.02307
3469.64718	0.02328
3467.71853	0.02333
3465.78987	0.02337
3463.86122	0.02355
3461.93257	0.02376
3460.00391	0.02389
3458.07526	0.02398
3456.14661	0.02411
3454.21795	0.02428
3452.28930	0.02440
3450.36065	0.02443
3448.43199	0.02448
3446.50334	0.02466
3444.57469	0.02494
3442.64603	0.02515
3440.71738	0.02520
3438.78873	0.02523
3436.86007	0.02536
3434.93142	0.02559
3433.00277	0.02581
3431.07411	0.02597
3429.14546	0.02611
3427.21681	0.02624
3425.28815	0.02633
3423.35950	0.02642
3421.43085	0.02661
3419.50219	0.02686
3417.57354	0.02710
3415.64489	0.02722
3413.71624	0.02725
3411.78758	0.02735
3409.85893	0.02757
3407.93028	0.02773
3406.00162	0.02776
3404.07297	0.02780
3402.14432	0.02792
3400.21566	0.02806
3398.28701	0.02810
3396.35836	0.02818
3394.42970	0.02841
3392.50105	0.02866
3390.57240	0.02880
3388.64374	0.02888
3386.71509	0.02900
3384.78644	0.02913
3382.85778	0.02926
3380.92913	0.02940
3379.00048	0.02952
3377.07182	0.02959
3375.14317	0.02972
3373.21452	0.02997
3371.28586	0.03023
3369.35721	0.03041
3367.42856	0.03055
3365.49990	0.03071
3363.57125	0.03096
3361.64260	0.03128
3359.71394	0.03159
3357.78529	0.03183
3355.85664	0.03197
3353.92798	0.03215
3351.99933	0.03240
3350.07068	0.03262
3348.14202	0.03286
3346.21337	0.03317
3344.28472	0.03341
3342.35607	0.03356
3340.42741	0.03376
3338.49876	0.03409
3336.57011	0.03439
3334.64145	0.03454
3332.71280	0.03465
3330.78415	0.03483
3328.85549	0.03498
3326.92684	0.03509
3324.99819	0.03522
3323.06953	0.03535
3321.14088	0.03547
3319.21223	0.03565
3317.28357	0.03590
3315.35492	0.03613
3313.42627	0.03620
3311.49761	0.03620
3309.56896	0.03628
3307.64031	0.03645
3305.71165	0.03664
3303.78300	0.03676
3301.85435	0.03677
3299.92569	0.03674
3297.99704	0.03674
3296.06839	0.03681
3294.13973	0.03693
3292.21108	0.03704
3290.28243	0.03704
3288.35377	0.03693
3286.42512	0.03683
3284.49647	0.03685
3282.56781	0.03690
3280.63916	0.03685
3278.71051	0.03675
3276.78186	0.03671
3274.85320	0.03670
3272.92455	0.03661
3270.99590	0.03643
3269.06724	0.03628
3267.13859	0.03627
3265.20994	0.03626
3263.28128	0.03620
3261.35263	0.03608
3259.42398	0.03589
3257.49532	0.03565
3255.56667	0.03549
3253.63802	0.03544
3251.70936	0.03538
3249.78071	0.03528
3247.85206	0.03523
3245.92340	0.03522
3243.99475	0.03517
3242.06610	0.03508
3240.13744	0.03497
3238.20879	0.03493
3236.28014	0.03495
3234.35148	0.03489
3232.42283	0.03476
3230.49418	0.03470
3228.56552	0.03468
3226.63687	0.03459
3224.70822	0.03443
3222.77956	0.03424
3220.85091	0.03405
3218.92226	0.03396
3216.99360	0.03390
3215.06495	0.03377
3213.13630	0.03362
3211.20764	0.03351
3209.27899	0.03344
3207.35034	0.03347
3205.42169	0.03354
3203.49303	0.03344
3201.56438	0.03323
3199.63573	0.03312
3197.70707	0.03309
3195.77842	0.03301
3193.84977	0.03284
3191.92111	0.03261
3189.99246	0.03246
3188.06381	0.03240
3186.13515	0.03225
3184.20650	0.03200
3182.27785	0.03187
3180.34919	0.03185
3178.42054	0.03176
3176.49189	0.03155
3174.56323	0.03129
3172.63458	0.03107
3170.70593	0.03094
3168.77727	0.03080
3166.84862	0.03055
3164.91997	0.03035
3162.99131	0.03024
3161.06266	0.03006
3159.13401	0.02987
3157.20535	0.02977
3155.27670	0.02963
3153.34805	0.02940
3151.41939	0.02917
3149.49074	0.02903
3147.56209	0.02894
3145.63343	0.02876
3143.70478	0.02856
3141.77613	0.02847
3139.84748	0.02847
3137.91882	0.02843
3135.99017	0.02830
3134.06152	0.02814
3132.13286	0.02807
3130.20421	0.02805
3128.27556	0.02798
3126.34690	0.02781
3124.41825	0.02766
3122.48960	0.02759
3120.56094	0.02757
3118.63229	0.02753
3116.70364	0.02745
3114.77498	0.02739
3112.84633	0.02736
3110.91768	0.02738
3108.98902	0.02740
3107.06037	0.02740
3105.13172	0.02740
3103.20306	0.02741
3101.27441	0.02741
3099.34576	0.02738
3097.41710	0.02735
3095.48845	0.02736
3093.55980	0.02743
3091.63114	0.02762
3089.70249	0.02786
3087.77384	0.02809
3085.84518	0.02820
3083.91653	0.02818
3081.98788	0.02814
3080.05922	0.02817
3078.13057	0.02821
3076.20192	0.02821
3074.27326	0.02814
3072.34461	0.02809
3070.41596	0.02811
3068.48731	0.02812
3066.55865	0.02808
3064.63000	0.02797
3062.70135	0.02783
3060.77269	0.02778
3058.84404	0.02784
3056.91539	0.02785
3054.98673	0.02770
3053.05808	0.02749
3051.12943	0.02734
3049.20077	0.02725
3047.27212	0.02717
3045.34347	0.02702
3043.41481	0.02678
3041.48616	0.02653
3039.55751	0.02643
3037.62885	0.02643
3035.70020	0.02636
3033.77155	0.02616
3031.84289	0.02593
3029.91424	0.02581
3027.98559	0.02572
3026.05693	0.02556
3024.12828	0.02539
3022.19963	0.02533
3020.27097	0.02530
3018.34232	0.02517
3016.41367	0.02495
3014.48501	0.02482
3012.55636	0.02484
3010.62771	0.02490
3008.69905	0.02489
3006.77040	0.02481
3004.84175	0.02471
3002.91309	0.02463
3000.98444	0.02461
2999.05579	0.02459
2997.12714	0.02456
2995.19848	0.02453
2993.26983	0.02455
2991.34118	0.02469
2989.41252	0.02489
2987.48387	0.02502
2985.55522	0.02506
2983.62656	0.02517
2981.69791	0.02539
2979.76926	0.02562
2977.84060	0.02581
2975.91195	0.02598
2973.98330	0.02613
2972.05464	0.02622
2970.12599	0.02634
2968.19734	0.02654
2966.26868	0.02674
2964.34003	0.02684
2962.41138	0.02694
2960.48272	0.02702
2958.55407	0.02707
2956.62542	0.02717
2954.69676	0.02726
2952.76811	0.02725
2950.83946	0.02719
2948.91080	0.02715
2946.98215	0.02721
2945.05350	0.02743
2943.12484	0.02767
2941.19619	0.02781
2939.26754	0.02795
2937.33888	0.02816
2935.41023	0.02841
2933.48158	0.02867
2931.55293	0.02893
2929.62427	0.02914
2927.69562	0.02925
2925.76697	0.02926
2923.83831	0.02929
2921.90966	0.02935
2919.98101	0.02932
2918.05235	0.02916
2916.12370	0.02884
2914.19505	0.02836
2912.26639	0.02778
2910.33774	0.02727
2908.40909	0.02692
2906.48043	0.02666
2904.55178	0.02629
2902.62313	0.02589
2900.69447	0.02564
2898.76582	0.02553
2896.83717	0.02540
2894.90851	0.02524
2892.97986	0.02510
2891.05121	0.02501
2889.12255	0.02492
2887.19390	0.02482
2885.26525	0.02473
2883.33659	0.02471
2881.40794	0.02476
2879.47929	0.02480
2877.55063	0.02473
2875.62198	0.02467
2873.69333	0.02470
2871.76467	0.02467
2869.83602	0.02456
2867.90737	0.02445
2865.97871	0.02438
2864.05006	0.02438
2862.12141	0.02444
2860.19276	0.02445
2858.26410	0.02443
2856.33545	0.02448
2854.40680	0.02458
2852.47814	0.02466
2850.54949	0.02458
2848.62084	0.02434
2846.69218	0.02400
2844.76353	0.02358
2842.83488	0.02314
2840.90622	0.02282
2838.97757	0.02265
2837.04892	0.02249
2835.12026	0.02226
2833.19161	0.02201
2831.26296	0.02180
2829.33430	0.02168
2827.40565	0.02169
2825.47700	0.02167
2823.54834	0.02153
2821.61969	0.02132
2819.69104	0.02116
2817.76238	0.02109
2815.83373	0.02112
2813.90508	0.02118
2811.97642	0.02117
2810.04777	0.02107
2808.11912	0.02094
2806.19046	0.02084
2804.26181	0.02080
2802.33316	0.02082
2800.40450	0.02082
2798.47585	0.02073
2796.54720	0.02059
2794.61855	0.02046
2792.68989	0.02038
2790.76124	0.02035
2788.83259	0.02039
2786.90393	0.02044
2784.97528	0.02038
2783.04663	0.02025
2781.11797	0.02016
2779.18932	0.02011
2777.26067	0.02003
2775.33201	0.01992
2773.40336	0.01986
2771.47471	0.01983
2769.54605	0.01979
2767.61740	0.01976
2765.68875	0.01977
2763.76009	0.01977
2761.83144	0.01965
2759.90279	0.01952
2757.97413	0.01951
2756.04548	0.01958
2754.11683	0.01957
2752.18817	0.01943
2750.25952	0.01932
2748.33087	0.01932
2746.40221	0.01932
2744.47356	0.01922
2742.54491	0.01910
2740.61625	0.01907
2738.68760	0.01906
2736.75895	0.01899
2734.83029	0.01891
2732.90164	0.01885
2730.97299	0.01881
2729.04433	0.01877
2727.11568	0.01875
2725.18703	0.01872
2723.25838	0.01865
2721.32972	0.01856
2719.40107	0.01850
2717.47242	0.01849
2715.54376	0.01844
2713.61511	0.01833
2711.68646	0.01827
2709.75780	0.01827
2707.82915	0.01825
2705.90050	0.01820
2703.97184	0.01815
2702.04319	0.01810
2700.11454	0.01807
2698.18588	0.01803
2696.25723	0.01798
2694.32858	0.01796
2692.39992	0.01799
2690.47127	0.01803
2688.54262	0.01805
2686.61396	0.01799
2684.68531	0.01796
2682.75666	0.01795
2680.82800	0.01787
2678.89935	0.01777
2676.97070	0.01775
2675.04204	0.01776
2673.11339	0.01777
2671.18474	0.01774
2669.25608	0.01769
2667.32743	0.01771
2665.39878	0.01776
2663.47012	0.01778
2661.54147	0.01781
2659.61282	0.01782
2657.68417	0.01779
2655.75551	0.01771
2653.82686	0.01760
2651.89821	0.01751
2649.96955	0.01744
2648.04090	0.01734
2646.11225	0.01722
2644.18359	0.01718
2642.25494	0.01720
2640.32629	0.01721
2638.39763	0.01715
2636.46898	0.01703
2634.54033	0.01689
2632.61167	0.01679
2630.68302	0.01671
2628.75437	0.01658
2626.82571	0.01648
2624.89706	0.01647
2622.96841	0.01642
2621.03975	0.01633
2619.11110	0.01629
2617.18245	0.01627
2615.25379	0.01621
2613.32514	0.01614
2611.39649	0.01608
2609.46783	0.01594
2607.53918	0.01575
2605.61053	0.01562
2603.68187	0.01559
2601.75322	0.01563
2599.82457	0.01565
2597.89591	0.01559
2595.96726	0.01553
2594.03861	0.01547
2592.10995	0.01534
2590.18130	0.01519
2588.25265	0.01510
2586.32400	0.01500
2584.39534	0.01488
2582.46669	0.01486
2580.53804	0.01495
2578.60938	0.01506
2576.68073	0.01512
2574.75208	0.01510
2572.82342	0.01497
2570.89477	0.01490
2568.96612	0.01497
2567.03746	0.01495
2565.10881	0.01478
2563.18016	0.01466
2561.25150	0.01469
2559.32285	0.01475
2557.39420	0.01479
2555.46554	0.01473
2553.53689	0.01453
2551.60824	0.01433
2549.67958	0.01433
2547.75093	0.01455
2545.82228	0.01476
2543.89362	0.01477
2541.96497	0.01463
2540.03632	0.01431
2538.10766	0.01401
2536.17901	0.01404
2534.25036	0.01435
2532.32170	0.01454
2530.39305	0.01447
2528.46440	0.01427
2526.53574	0.01413
2524.60709	0.01413
2522.67844	0.01415
2520.74978	0.01414
2518.82113	0.01414
2516.89248	0.01414
2514.96383	0.01412
2513.03517	0.01411
2511.10652	0.01408
2509.17787	0.01400
2507.24921	0.01393
2505.32056	0.01397
2503.39191	0.01399
2501.46325	0.01403
2499.53460	0.01414
2497.60595	0.01416
2495.67729	0.01400
2493.74864	0.01383
2491.81999	0.01385
2489.89133	0.01397
2487.96268	0.01397
2486.03403	0.01392
2484.10537	0.01390
2482.17672	0.01375
2480.24807	0.01360
2478.31941	0.01364
2476.39076	0.01374
2474.46211	0.01377
2472.53345	0.01371
2470.60480	0.01360
2468.67615	0.01354
2466.74749	0.01358
2464.81884	0.01363
2462.89019	0.01363
2460.96153	0.01367
2459.03288	0.01377
2457.10423	0.01380
2455.17557	0.01373
2453.24692	0.01373
2451.31827	0.01379
2449.38962	0.01375
2447.46096	0.01371
2445.53231	0.01377
2443.60366	0.01378
2441.67500	0.01364
2439.74635	0.01351
2437.81770	0.01348
2435.88904	0.01355
2433.96039	0.01371
2432.03174	0.01378
2430.10308	0.01367
2428.17443	0.01352
2426.24578	0.01343
2424.31712	0.01345
2422.38847	0.01356
2420.45982	0.01362
2418.53116	0.01357
2416.60251	0.01353
2414.67386	0.01353
2412.74520	0.01347
2410.81655	0.01339
2408.88790	0.01344
2406.95924	0.01358
2405.03059	0.01364
2403.10194	0.01361
2401.17328	0.01360
2399.24463	0.01359
2397.31598	0.01361
2395.38732	0.01361
2393.45867	0.01362
2391.53002	0.01363
2389.60136	0.01366
2387.67271	0.01367
2385.74406	0.01361
2383.81540	0.01353
2381.88675	0.01353
2379.95810	0.01359
2378.02945	0.01369
2376.10079	0.01364
2374.17214	0.01357
2372.24349	0.01368
2370.31483	0.01420
2368.38618	0.01334
2366.45753	0.01302
2364.52887	0.01303
2362.60022	0.01355
2360.67157	0.01368
2358.74291	0.01448
2356.81426	0.01356
2354.88561	0.01355
2352.95695	0.01419
2351.02830	0.01405
2349.09965	0.01407
2347.17099	0.01403
2345.24234	0.01406
2343.31369	0.01393
2341.38503	0.01395
2339.45638	0.01449
2337.52773	0.01383
2335.59907	0.01336
2333.67042	0.01380
2331.74177	0.01400
2329.81311	0.01401
2327.88446	0.01419
2325.95581	0.01451
2324.02715	0.01468
2322.09850	0.01456
2320.16985	0.01430
2318.24119	0.01412
2316.31254	0.01402
2314.38389	0.01393
2312.45524	0.01382
2310.52658	0.01368
2308.59793	0.01355
2306.66928	0.01344
2304.74062	0.01331
2302.81197	0.01311
2300.88332	0.01307
2298.95466	0.01311
2297.02601	0.01307
2295.09736	0.01299
2293.16870	0.01305
2291.24005	0.01314
2289.31140	0.01316
2287.38274	0.01306
2285.45409	0.01292
2283.52544	0.01283
2281.59678	0.01274
2279.66813	0.01248
2277.73948	0.01214
2275.81082	0.01182
2273.88217	0.01170
2271.95352	0.01189
2270.02486	0.01215
2268.09621	0.01211
2266.16756	0.01185
2264.23890	0.01162
2262.31025	0.01144
2260.38160	0.01136
2258.45294	0.01147
2256.52429	0.01158
2254.59564	0.01140
2252.66698	0.01101
2250.73833	0.01073
2248.80968	0.01073
2246.88102	0.01071
2244.95237	0.01073
2243.02372	0.01072
2241.09507	0.01067
2239.16641	0.01067
2237.23776	0.01070
2235.30911	0.01066
2233.38045	0.01048
2231.45180	0.01011
2229.52315	0.00993
2227.59449	0.01017
2225.66584	0.01048
2223.73719	0.01053
2221.80853	0.01029
2219.87988	0.00995
2217.95123	0.00993
2216.02257	0.01024
2214.09392	0.01037
2212.16527	0.01024
2210.23661	0.01026
2208.30796	0.01030
2206.37931	0.00991
2204.45065	0.00929
2202.52200	0.00899
2200.59335	0.00908
2198.66469	0.00925
2196.73604	0.00927
2194.80739	0.00911
2192.87873	0.00906
2190.95008	0.00928
2189.02143	0.00967
2187.09277	0.00974
2185.16412	0.00917
2183.23547	0.00859
2181.30681	0.00850
2179.37816	0.00865
2177.44951	0.00870
2175.52085	0.00836
2173.59220	0.00789
2171.66355	0.00785
2169.73490	0.00796
2167.80624	0.00778
2165.87759	0.00780
2163.94894	0.00794
2162.02028	0.00729
2160.09163	0.00608
2158.16298	0.00555
2156.23432	0.00599
2154.30567	0.00673
2152.37702	0.00724
2150.44836	0.00766
2148.51971	0.00816
2146.59106	0.00860
2144.66240	0.00883
2142.73375	0.00876
2140.80510	0.00844
2138.87644	0.00832
2136.94779	0.00850
2135.01914	0.00853
2133.09048	0.00838
2131.16183	0.00848
2129.23318	0.00899
2127.30452	0.00967
2125.37587	0.01006
2123.44722	0.01001
2121.51856	0.00986
2119.58991	0.01003
2117.66126	0.01038
2115.73260	0.01052
2113.80395	0.01038
2111.87530	0.01014
2109.94664	0.00997
2108.01799	0.01000
2106.08934	0.01017
2104.16069	0.01023
2102.23203	0.01016
2100.30338	0.01013
2098.37473	0.01034
2096.44607	0.01043
2094.51742	0.01024
2092.58877	0.01002
2090.66011	0.01007
2088.73146	0.01031
2086.80281	0.01055
2084.87415	0.01060
2082.94550	0.01042
2081.01685	0.01016
2079.08819	0.01007
2077.15954	0.01011
2075.23089	0.01021
2073.30223	0.01032
2071.37358	0.01028
2069.44493	0.01004
2067.51627	0.00988
2065.58762	0.00993
2063.65897	0.00990
2061.73031	0.00947
2059.80166	0.00902
2057.87301	0.00894
2055.94435	0.00889
2054.01570	0.00853
2052.08705	0.00841
2050.15839	0.00889
2048.22974	0.00927
2046.30109	0.00905
2044.37243	0.00889
2042.44378	0.00909
2040.51513	0.00899
2038.58647	0.00848
2036.65782	0.00811
2034.72917	0.00812
2032.80052	0.00827
2030.87186	0.00820
2028.94321	0.00797
2027.01456	0.00786
2025.08590	0.00799
2023.15725	0.00826
2021.22860	0.00853
2019.29994	0.00858
2017.37129	0.00812
2015.44264	0.00745
2013.51398	0.00741
2011.58533	0.00780
2009.65668	0.00798
2007.72802	0.00798
2005.79937	0.00781
2003.87072	0.00733
2001.94206	0.00711
2000.01341	0.00767
1998.08476	0.00838
1996.15610	0.00845
1994.22745	0.00798
1992.29880	0.00727
1990.37014	0.00655
1988.44149	0.00645
1986.51284	0.00707
1984.58418	0.00779
1982.65553	0.00836
1980.72688	0.00922
1978.79822	0.01012
1976.86957	0.01016
1974.94092	0.00949
1973.01226	0.00882
1971.08361	0.00825
1969.15496	0.00798
1967.22631	0.00788
1965.29765	0.00763
1963.36900	0.00741
1961.44035	0.00735
1959.51169	0.00751
1957.58304	0.00792
1955.65439	0.00838
1953.72573	0.00874
1951.79708	0.00892
1949.86843	0.00890
1947.93977	0.00884
1946.01112	0.00878
1944.08247	0.00882
1942.15381	0.00909
1940.22516	0.00944
1938.29651	0.00947
1936.36785	0.00920
1934.43920	0.00897
1932.51055	0.00894
1930.58189	0.00905
1928.65324	0.00926
1926.72459	0.00945
1924.79593	0.00950
1922.86728	0.00948
1920.93863	0.00946
1919.00997	0.00939
1917.08132	0.00930
1915.15267	0.00929
1913.22401	0.00945
1911.29536	0.00982
1909.36671	0.01012
1907.43805	0.01006
1905.50940	0.00986
1903.58075	0.00988
1901.65209	0.00998
1899.72344	0.00990
1897.79479	0.00970
1895.86614	0.00963
1893.93748	0.00986
1892.00883	0.01016
1890.08018	0.01017
1888.15152	0.01003
1886.22287	0.01001
1884.29422	0.01003
1882.36556	0.00993
1880.43691	0.00980
1878.50826	0.00974
1876.57960	0.00980
1874.65095	0.00993
1872.72230	0.01000
1870.79364	0.00991
1868.86499	0.00974
1866.93634	0.00967
1865.00768	0.00968
1863.07903	0.00968
1861.15038	0.00967
1859.22172	0.00971
1857.29307	0.00981
1855.36442	0.00988
1853.43576	0.00985
1851.50711	0.00982
1849.57846	0.00986
1847.64980	0.00993
1845.72115	0.00992
1843.79250	0.00982
1841.86384	0.00968
1839.93519	0.00965
1838.00654	0.00973
1836.07788	0.00982
1834.14923	0.00989
1832.22058	0.00995
1830.29192	0.00997
1828.36327	0.00993
1826.43462	0.00995
1824.50597	0.01006
1822.57731	0.01017
1820.64866	0.01018
1818.72001	0.00999
1816.79135	0.00968
1814.86270	0.00947
1812.93405	0.00944
1811.00539	0.00952
1809.07674	0.00962
1807.14809	0.00967
1805.21943	0.00966
1803.29078	0.00964
1801.36213	0.00967
1799.43347	0.00975
1797.50482	0.00989
1795.57617	0.01000
1793.64751	0.01003
1791.71886	0.00997
1789.79021	0.00992
1787.86155	0.00991
1785.93290	0.00987
1784.00425	0.00979
1782.07559	0.00975
1780.14694	0.00974
1778.21829	0.00971
1776.28963	0.00968
1774.36098	0.00970
1772.43233	0.00975
1770.50367	0.00969
1768.57502	0.00953
1766.64637	0.00941
1764.71771	0.00943
1762.78906	0.00951
1760.86041	0.00953
1758.93176	0.00953
1757.00310	0.00957
1755.07445	0.00963
1753.14580	0.00967
1751.21714	0.00974
1749.28849	0.00983
1747.35984	0.00992
1745.43118	0.00998
1743.50253	0.01005
1741.57388	0.01021
1739.64522	0.01040
1737.71657	0.01051
1735.78792	0.01058
1733.85926	0.01070
1731.93061	0.01077
1730.00196	0.01076
1728.07330	0.01079
1726.14465	0.01093
1724.21600	0.01114
1722.28734	0.01136
1720.35869	0.01163
1718.43004	0.01200
1716.50138	0.01237
1714.57273	0.01273
1712.64408	0.01318
1710.71542	0.01379
1708.78677	0.01456
1706.85812	0.01552
1704.92946	0.01668
1703.00081	0.01805
1701.07216	0.01957
1699.14350	0.02109
1697.21485	0.02263
1695.28620	0.02423
1693.35754	0.02578
1691.42889	0.02734
1689.50024	0.02905
1687.57159	0.03098
1685.64293	0.03312
1683.71428	0.03522
1681.78563	0.03720
1679.85697	0.03928
1677.92832	0.04161
1675.99967	0.04413
1674.07101	0.04674
1672.14236	0.04942
1670.21371	0.05219
1668.28505	0.05495
1666.35640	0.05755
1664.42775	0.06000
1662.49909	0.06237
1660.57044	0.06459
1658.64179	0.06664
1656.71313	0.06849
1654.78448	0.07019
1652.85583	0.07164
1650.92717	0.07269
1648.99852	0.07357
1647.06987	0.07444
1645.14121	0.07519
1643.21256	0.07580
1641.28391	0.07641
1639.35525	0.07704
1637.42660	0.07762
1635.49795	0.07808
1633.56929	0.07828
1631.64064	0.07816
1629.71199	0.07767
1627.78333	0.07679
1625.85468	0.07551
1623.92603	0.07381
1621.99738	0.07174
1620.06872	0.06952
1618.14007	0.06725
1616.21142	0.06482
1614.28276	0.06229
1612.35411	0.05986
1610.42546	0.05756
1608.49680	0.05534
1606.56815	0.05325
1604.63950	0.05132
1602.71084	0.04955
1600.78219	0.04791
1598.85354	0.04645
1596.92488	0.04523
1594.99623	0.04428
1593.06758	0.04358
1591.13892	0.04306
1589.21027	0.04273
1587.28162	0.04258
1585.35296	0.04264
1583.42431	0.04292
1581.49566	0.04339
1579.56700	0.04409
1577.63835	0.04502
1575.70970	0.04608
1573.78104	0.04722
1571.85239	0.04850
1569.92374	0.04991
1567.99508	0.05141
1566.06643	0.05300
1564.13778	0.05470
1562.20912	0.05649
1560.28047	0.05835
1558.35182	0.06011
1556.42316	0.06153
1554.49451	0.06267
1552.56586	0.06369
1550.63721	0.06460
1548.70855	0.06536
1546.77990	0.06598
1544.85125	0.06647
1542.92259	0.06686
1540.99394	0.06710
1539.06529	0.06704
1537.13663	0.06661
1535.20798	0.06599
1533.27933	0.06529
1531.35067	0.06454
1529.42202	0.06377
1527.49337	0.06305
1525.56471	0.06235
1523.63606	0.06160
1521.70741	0.06077
1519.77875	0.05986
1517.85010	0.05891
1515.92145	0.05791
1513.99279	0.05676
1512.06414	0.05547
1510.13549	0.05419
1508.20683	0.05299
1506.27818	0.05166
1504.34953	0.05013
1502.42087	0.04861
1500.49222	0.04723
1498.56357	0.04592
1496.63491	0.04464
1494.70626	0.04338
1492.77761	0.04222
1490.84895	0.04122
1488.92030	0.04036
1486.99165	0.03963
1485.06299	0.03914
1483.13434	0.03897
1481.20569	0.03905
1479.27704	0.03936
1477.34838	0.03990
1475.41973	0.04063
1473.49108	0.04152
1471.56242	0.04253
1469.63377	0.04357
1467.70512	0.04468
1465.77646	0.04579
1463.84781	0.04686
1461.91916	0.04794
1459.99050	0.04913
1458.06185	0.05040
1456.13320	0.05152
1454.20454	0.05234
1452.27589	0.05286
1450.34724	0.05314
1448.41858	0.05316
1446.48993	0.05299
1444.56128	0.05268
1442.63262	0.05225
1440.70397	0.05176
1438.77532	0.05120
1436.84666	0.05051
1434.91801	0.04964
1432.98936	0.04869
1431.06070	0.04788
1429.13205	0.04729
1427.20340	0.04691
1425.27474	0.04670
1423.34609	0.04666
1421.41744	0.04673
1419.48878	0.04686
1417.56013	0.04700
1415.63148	0.04710
1413.70283	0.04723
1411.77417	0.04744
1409.84552	0.04773
1407.91687	0.04804
1405.98821	0.04832
1404.05956	0.04850
1402.13091	0.04851
1400.20225	0.04836
1398.27360	0.04811
1396.34495	0.04779
1394.41629	0.04745
1392.48764	0.04712
1390.55899	0.04679
1388.63033	0.04643
1386.70168	0.04603
1384.77303	0.04557
1382.84437	0.04509
1380.91572	0.04464
1378.98707	0.04423
1377.05841	0.04382
1375.12976	0.04328
1373.20111	0.04259
1371.27245	0.04184
1369.34380	0.04111
1367.41515	0.04041
1365.48649	0.03973
1363.55784	0.03905
1361.62919	0.03840
1359.70053	0.03792
1357.77188	0.03771
1355.84323	0.03773
1353.91457	0.03795
1351.98592	0.03829
1350.05727	0.03868
1348.12861	0.03911
1346.19996	0.03965
1344.27131	0.04026
1342.34266	0.04082
1340.41400	0.04127
1338.48535	0.04159
1336.55670	0.04173
1334.62804	0.04165
1332.69939	0.04139
1330.77074	0.04099
1328.84208	0.04046
1326.91343	0.03989
1324.98478	0.03945
1323.05612	0.03920
1321.12747	0.03907
1319.19882	0.03895
1317.27016	0.03881
1315.34151	0.03868
1313.41286	0.03853
1311.48420	0.03828
1309.55555	0.03796
1307.62690	0.03774
1305.69824	0.03761
1303.76959	0.03748
1301.84094	0.03728
1299.91228	0.03702
1297.98363	0.03674
1296.05498	0.03662
1294.12632	0.03680
1292.19767	0.03722
1290.26902	0.03771
1288.34036	0.03818
1286.41171	0.03860
1284.48306	0.03894
1282.55440	0.03922
1280.62575	0.03942
1278.69710	0.03956
1276.76845	0.03970
1274.83979	0.03978
1272.91114	0.03978
1270.98249	0.03985
1269.05383	0.04009
1267.12518	0.04045
1265.19653	0.04083
1263.26787	0.04124
1261.33922	0.04172
1259.41057	0.04221
1257.48191	0.04264
1255.55326	0.04307
1253.62461	0.04363
1251.69595	0.04435
1249.76730	0.04517
1247.83865	0.04599
1245.90999	0.04678
1243.98134	0.04758
1242.05269	0.04830
1240.12403	0.04883
1238.19538	0.04918
1236.26673	0.04935
1234.33807	0.04927
1232.40942	0.04890
1230.48077	0.04830
1228.55211	0.04754
1226.62346	0.04657
1224.69481	0.04541
1222.76615	0.04420
1220.83750	0.04310
1218.90885	0.04218
1216.98019	0.04144
1215.05154	0.04097
1213.12289	0.04079
1211.19423	0.04089
1209.26558	0.04119
1207.33693	0.04160
1205.40828	0.04196
1203.47962	0.04221
1201.55097	0.04218
1199.62232	0.04164
1197.69366	0.04102
1195.76501	0.04030
1193.83636	0.03956
1191.90770	0.03884
1189.97905	0.03819
1188.05040	0.03768
1186.12174	0.03724
1184.19309	0.03685
1182.26444	0.03660
1180.33578	0.03649
1178.40713	0.03647
1176.47848	0.03648
1174.54982	0.03653
1172.62117	0.03663
1170.69252	0.03679
1168.76386	0.03706
1166.83521	0.03741
1164.90656	0.03781
1162.97790	0.03818
1161.04925	0.03841
1159.12060	0.03846
1157.19194	0.03848
1155.26329	0.03853
1153.33464	0.03846
1151.40598	0.03828
1149.47733	0.03813
1147.54868	0.03802
1145.62002	0.03790
1143.69137	0.03780
1141.76272	0.03782
1139.83406	0.03799
1137.90541	0.03823
1135.97676	0.03847
1134.04811	0.03873
1132.11945	0.03913
1130.19080	0.03981
1128.26215	0.04066
1126.33349	0.04144
1124.40484	0.04216
1122.47619	0.04299
1120.54753	0.04394
1118.61888	0.04492
1116.69023	0.04586
1114.76157	0.04671
1112.83292	0.04746
1110.90427	0.04826
1108.97561	0.04919
1107.04696	0.05011
1105.11831	0.05095
1103.18965	0.05185
1101.26100	0.05284
1099.33235	0.05368
1097.40369	0.05431
1095.47504	0.05496
1093.54639	0.05575
1091.61773	0.05661
1089.68908	0.05755
1087.76043	0.05857
1085.83177	0.05953
1083.90312	0.06030
1081.97447	0.06088
1080.04581	0.06135
1078.11716	0.06175
1076.18851	0.06210
1074.25985	0.06240
1072.33120	0.06268
1070.40255	0.06292
1068.47390	0.06314
1066.54524	0.06345
1064.61659	0.06393
1062.68794	0.06448
1060.75928	0.06497
1058.83063	0.06531
1056.90198	0.06557
1054.97332	0.06589
1053.04467	0.06631
1051.11602	0.06674
1049.18736	0.06710
1047.25871	0.06749
1045.33006	0.06799
1043.40140	0.06856
1041.47275	0.06923
1039.54410	0.06999
1037.61544	0.07088
1035.68679	0.07190
1033.75814	0.07298
1031.82948	0.07396
1029.90083	0.07467
1027.97218	0.07502
1026.04352	0.07508
1024.11487	0.07494
1022.18622	0.07481
1020.25756	0.07483
1018.32891	0.07496
1016.40026	0.07501
1014.47160	0.07479
1012.54295	0.07432
1010.61430	0.07368
1008.68564	0.07289
1006.75699	0.07198
1004.82834	0.07106
1002.89968	0.07024
1000.97103	0.06945
999.04238	0.06860
997.11373	0.06764
995.18507	0.06650
993.25642	0.06526
991.32777	0.06417
989.39911	0.06322
987.47046	0.06221
985.54181	0.06113
983.61315	0.06022
981.68450	0.05956
979.75585	0.05889
977.82719	0.05807
975.89854	0.05728
973.96989	0.05661
972.04123	0.05595
970.11258	0.05534
968.18393	0.05494
966.25527	0.05462
964.32662	0.05426
962.39797	0.05391
960.46931	0.05357
958.54066	0.05322
956.61201	0.05286
954.68335	0.05251
952.75470	0.05214
950.82605	0.05166
948.89739	0.05105
946.96874	0.05047
945.04009	0.05009
943.11143	0.04980
941.18278	0.04942
939.25413	0.04895
937.32547	0.04845
935.39682	0.04794
933.46817	0.04752
931.53952	0.04724
929.61086	0.04693
927.68221	0.04645
925.75356	0.04600
923.82490	0.04578
921.89625	0.04560
919.96760	0.04528
918.03894	0.04489
916.11029	0.04445
914.18164	0.04403
912.25298	0.04358
910.32433	0.04308
908.39568	0.04286
906.46702	0.04298
904.53837	0.04309
902.60972	0.04297
900.68106	0.04271
898.75241	0.04261
896.82376	0.04273
894.89510	0.04278
892.96645	0.04260
891.03780	0.04235
889.10914	0.04227
887.18049	0.04238
885.25184	0.04267
883.32318	0.04313
881.39453	0.04369
879.46588	0.04422
877.53722	0.04471
875.60857	0.04529
873.67992	0.04582
871.75126	0.04604
869.82261	0.04594
867.89396	0.04575
865.96530	0.04563
864.03665	0.04560
862.10800	0.04545
860.17935	0.04502
858.25069	0.04448
856.32204	0.04416
854.39339	0.04414
852.46473	0.04427
850.53608	0.04424
848.60743	0.04387
846.67877	0.04342
844.75012	0.04319
842.82147	0.04306
840.89281	0.04295
838.96416	0.04282
837.03551	0.04260
835.10685	0.04236
833.17820	0.04223
831.24955	0.04219
829.32089	0.04219
827.39224	0.04219
825.46359	0.04225
823.53493	0.04240
821.60628	0.04260
819.67763	0.04290
817.74897	0.04317
815.82032	0.04316
813.89167	0.04311
811.96301	0.04335
810.03436	0.04363
808.10571	0.04363
806.17705	0.04366
804.24840	0.04398
802.31975	0.04444
800.39109	0.04484
798.46244	0.04508
796.53379	0.04511
794.60513	0.04494
792.67648	0.04472
790.74783	0.04461
788.81918	0.04479
786.89052	0.04536
784.96187	0.04603
783.03322	0.04648
781.10456	0.04673
779.17591	0.04696
777.24726	0.04716
775.31860	0.04717
773.38995	0.04702
771.46130	0.04695
769.53264	0.04701
767.60399	0.04709
765.67534	0.04737
763.74668	0.04795
761.81803	0.04863
759.88938	0.04935
757.96072	0.05008
756.03207	0.05066
754.10342	0.05089
752.17476	0.05088
750.24611	0.05089
748.31746	0.05107
746.38880	0.05137
744.46015	0.05164
742.53150	0.05191
740.60284	0.05219
738.67419	0.05247
736.74554	0.05293
734.81688	0.05368
732.88823	0.05447
730.95958	0.05530
729.03092	0.05623
727.10227	0.05691
725.17362	0.05708
723.24497	0.05689
721.31631	0.05718
719.38766	0.05771
717.45901	0.05831
715.53035	0.05885
713.60170	0.05920
711.67305	0.05950
709.74439	0.05991
707.81574	0.06040
705.88709	0.06091
703.95843	0.06155
702.02978	0.06219
700.10113	0.06257
698.17247	0.06270
696.24382	0.06287
694.31517	0.06314
692.38651	0.06337
690.45786	0.06352
688.52921	0.06361
686.60055	0.06388
684.67190	0.06432
682.74325	0.06490
680.81459	0.06545
678.88594	0.06558
676.95729	0.06579
675.02863	0.06628
673.09998	0.06687
671.17133	0.06729
669.24267	0.06771
667.31402	0.06806
665.38537	0.06819
663.45671	0.06827
661.52806	0.06849
659.59941	0.06877
657.67075	0.06891
655.74210	0.06914
653.81345	0.06954
651.88480	0.07015
649.95614	0.07053
648.02749	0.07005
646.09884	0.06908
644.17018	0.06893
642.24153	0.06956
640.31288	0.07018
638.38422	0.07078
636.45557	0.07136
634.52692	0.07159
632.59826	0.07164
630.66961	0.07063
628.74096	0.06634
626.81230	0.07248
624.88365	0.08329
622.95500	0.09347
621.02634	0.09654
619.09769	0.09269
617.16904	0.08656
615.24038	0.07912
613.31173	0.07583
611.38308	0.08194
609.45442	0.08961
607.52577	0.09256
605.59712	0.09587
603.66846	0.09921
601.73981	0.09843
599.81116	0.09566
597.88250	0.09367
595.95385	0.09177
594.02520	0.08985
592.09654	0.08909
590.16789	0.08963
588.23924	0.09076
586.31059	0.09228
584.38193	0.09406
582.45328	0.09557
580.52463	0.09660
578.59597	0.09750
576.66732	0.09836
574.73867	0.09909
572.81001	0.10041
570.88136	0.10325
568.95271	0.10679
567.02405	0.10958
565.09540	0.11168
563.16675	0.11357
561.23809	0.11521
559.30944	0.11625
557.38079	0.11613
555.45213	0.11532
553.52348	0.11478
551.59483	0.11413
549.66617	0.11285
547.73752	0.11165
545.80887	0.11097
543.88021	0.11047
541.95156	0.10994
540.02291	0.10953
538.09425	0.10957
536.16560	0.11007
534.23695	0.11028
532.30829	0.10982
530.37964	0.10961
528.45099	0.11028
526.52233	0.11065
524.59368	0.10993
522.66503	0.10878
520.73637	0.10720
518.80772	0.10511
516.87907	0.10364
514.95042	0.10322
513.02176	0.10320
511.09311	0.10312
509.16446	0.10274
507.23580	0.10197
505.30715	0.10095
503.37850	0.09941
501.44984	0.09751
499.52119	0.09644
497.59254	0.09672
495.66388	0.09729
493.73523	0.09724
491.80658	0.09665
489.87792	0.09577
487.94927	0.09476
486.02062	0.09378
484.09196	0.09316
482.16331	0.09307
480.23466	0.09309
478.30600	0.09284
476.37735	0.09235
474.44870	0.09187
472.52004	0.09171
470.59139	0.09201
468.66274	0.09236
466.73408	0.09230
464.80543	0.09210
462.87678	0.09201
460.94812	0.09158
459.01947	0.09061
457.09082	0.08968
455.16216	0.08909
453.23351	0.08862
451.30486	0.08801
449.37620	0.08722
447.44755	0.08661
445.51890	0.08632
443.59025	0.08577
441.66159	0.08493
439.73294	0.08458
437.80429	0.08466
435.87563	0.08441
433.94698	0.08376
432.01833	0.08318
430.08967	0.08281
428.16102	0.08244
426.23237	0.08197
424.30371	0.08157
422.37506	0.08129
420.44641	0.08085
418.51775	0.08019
416.58910	0.07955
414.66045	0.07899
412.73179	0.07864
410.80314	0.07875
408.87449	0.07902
406.94583	0.07901
405.01718	0.07851
403.08853	0.07757
401.15987	0.07643
399.23122	0.07548
