3996.16951	0.00982
3994.24086	0.00986
3992.31221	0.01004
3990.38355	0.01018
3988.45490	0.01025
3986.52625	0.01032
3984.59759	0.01027
3982.66894	0.01012
3980.74029	0.01010
3978.81163	0.01023
3976.88298	0.01025
3974.95433	0.01014
3973.02567	0.01008
3971.09702	0.01012
3969.16837	0.01016
3967.23972	0.01015
3965.31106	0.01012
3963.38241	0.01014
3961.45376	0.01022
3959.52510	0.01022
3957.59645	0.01010
3955.66780	0.01004
3953.73914	0.01023
3951.81049	0.01047
3949.88184	0.01038
3947.95318	0.01001
3946.02453	0.00982
3944.09588	0.00984
3942.16722	0.00990
3940.23857	0.00997
3938.30992	0.01000
3936.38126	0.00993
3934.45261	0.00989
3932.52396	0.00997
3930.59530	0.01009
3928.66665	0.01014
3926.73800	0.01011
3924.80934	0.00999
3922.88069	0.00983
3920.95204	0.00973
3919.02338	0.00979
3917.09473	0.00995
3915.16608	0.01006
3913.23742	0.01004
3911.30877	0.00994
3909.38012	0.00984
3907.45146	0.00984
3905.52281	0.00996
3903.59416	0.01007
3901.66550	0.01007
3899.73685	0.01003
3897.80820	0.00995
3895.87955	0.00990
3893.95089	0.00989
3892.02224	0.00978
3890.09359	0.00960
3888.16493	0.00955
3886.23628	0.00964
3884.30763	0.00973
3882.37897	0.00970
3880.45032	0.00955
3878.52167	0.00939
3876.59301	0.00942
3874.66436	0.00959
3872.73571	0.00961
3870.80705	0.00946
3868.87840	0.00944
3866.94975	0.00960
3865.02109	0.00978
3863.09244	0.00981
3861.16379	0.00974
3859.23513	0.00963
3857.30648	0.00954
3855.37783	0.00955
3853.44917	0.00965
3851.52052	0.00968
3849.59187	0.00963
3847.66321	0.00967
3845.73456	0.00979
3843.80591	0.00988
3841.87725	0.00986
3839.94860	0.00978
3838.01995	0.00974
3836.09129	0.00970
3834.16264	0.00965
3832.23399	0.00963
3830.30534	0.00963
3828.37668	0.00955
3826.44803	0.00947
3824.51938	0.00952
3822.59072	0.00962
3820.66207	0.00962
3818.73342	0.00951
3816.80476	0.00935
3814.87611	0.00930
3812.94746	0.00942
3811.01880	0.00950
3809.09015	0.00941
3807.16150	0.00928
3805.23284	0.00926
3803.30419	0.00933
3801.37554	0.00934
3799.44688	0.00930
3797.51823	0.00928
3795.58958	0.00927
3793.66092	0.00930
3791.73227	0.00933
3789.80362	0.00925
3787.87496	0.00908
3785.94631	0.00900
3784.01766	0.00911
3782.08900	0.00933
3780.16035	0.00945
3778.23170	0.00936
3776.30304	0.00921
3774.37439	0.00914
3772.44574	0.00924
3770.51708	0.00943
3768.58843	0.00947
3766.65978	0.00936
3764.73112	0.00930
3762.80247	0.00927
3760.87382	0.00923
3758.94517	0.00926
3757.01651	0.00931
3755.08786	0.00926
3753.15921	0.00915
3751.23055	0.00916
3749.30190	0.00931
3747.37325	0.00944
3745.44459	0.00938
3743.51594	0.00917
3741.58729	0.00899
3739.65863	0.00901
3737.72998	0.00916
3735.80133	0.00925
3733.87267	0.00917
3731.94402	0.00898
3730.01537	0.00891
3728.08671	0.00902
3726.15806	0.00904
3724.22941	0.00889
3722.30075	0.00875
3720.37210	0.00866
3718.44345	0.00867
3716.51479	0.00873
3714.58614	0.00874
3712.65749	0.00863
3710.72883	0.00853
3708.80018	0.00854
3706.87153	0.00856
3704.94287	0.00857
3703.01422	0.00871
3701.08557	0.00893
3699.15691	0.00909
3697.22826	0.00916
3695.29961	0.00917
3693.37095	0.00907
3691.44230	0.00887
3689.51365	0.00874
3687.58500	0.00874
3685.65634	0.00876
3683.72769	0.00874
3681.79904	0.00878
3679.87038	0.00895
3677.94173	0.00914
3676.01308	0.00914
3674.08442	0.00897
3672.15577	0.00887
3670.22712	0.00892
3668.29846	0.00902
3666.36981	0.00910
3664.44116	0.00918
3662.51250	0.00929
3660.58385	0.00939
3658.65520	0.00944
3656.72654	0.00949
3654.79789	0.00963
3652.86924	0.00977
3650.94058	0.00974
3649.01193	0.00962
3647.08328	0.00963
3645.15462	0.00983
3643.22597	0.01001
3641.29732	0.01008
3639.36866	0.01016
3637.44001	0.01024
3635.51136	0.01021
3633.58270	0.01024
3631.65405	0.01043
3629.72540	0.01072
3627.79674	0.01088
3625.86809	0.01084
3623.93944	0.01067
3622.01079	0.01053
3620.08213	0.01051
3618.15348	0.01072
3616.22483	0.01108
3614.29617	0.01138
3612.36752	0.01152
3610.43887	0.01148
3608.51021	0.01142
3606.58156	0.01149
3604.65291	0.01174
3602.72425	0.01199
3600.79560	0.01211
3598.86695	0.01221
3596.93829	0.01238
3595.00964	0.01255
3593.08099	0.01259
3591.15233	0.01261
3589.22368	0.01268
3587.29503	0.01279
3585.36637	0.01294
3583.43772	0.01317
3581.50907	0.01343
3579.58041	0.01367
3577.65176	0.01382
3575.72311	0.01389
3573.79445	0.01403
3571.86580	0.01422
3569.93715	0.01438
3568.00849	0.01457
3566.07984	0.01476
3564.15119	0.01492
3562.22253	0.01509
3560.29388	0.01531
3558.36523	0.01543
3556.43657	0.01545
3554.50792	0.01547
3552.57927	0.01558
3550.65062	0.01578
3548.72196	0.01602
3546.79331	0.01632
3544.86466	0.01664
3542.93600	0.01691
3541.00735	0.01706
3539.07870	0.01714
3537.15004	0.01721
3535.22139	0.01734
3533.29274	0.01749
3531.36408	0.01763
3529.43543	0.01781
3527.50678	0.01809
3525.57812	0.01838
3523.64947	0.01861
3521.72082	0.01881
3519.79216	0.01896
3517.86351	0.01906
3515.93486	0.01915
3514.00620	0.01924
3512.07755	0.01932
3510.14890	0.01938
3508.22024	0.01943
3506.29159	0.01958
3504.36294	0.01993
3502.43428	0.02024
3500.50563	0.02032
3498.57698	0.02037
3496.64832	0.02047
3494.71967	0.02052
3492.79102	0.02055
3490.86236	0.02069
3488.93371	0.02090
3487.00506	0.02109
3485.07641	0.02127
3483.14775	0.02145
3481.21910	0.02157
3479.29045	0.02161
3477.36179	0.02163
3475.43314	0.02171
3473.50449	0.02186
3471.57583	0.02202
3469.64718	0.02215
3467.71853	0.02223
3465.78987	0.02237
3463.86122	0.02259
3461.93257	0.02279
3460.00391	0.02287
3458.07526	0.02293
3456.14661	0.02311
3454.21795	0.02339
3452.28930	0.02360
3450.36065	0.02360
3448.43199	0.02356
3446.50334	0.02367
3444.57469	0.02397
3442.64603	0.02427
3440.71738	0.02440
3438.78873	0.02439
3436.86007	0.02443
3434.93142	0.02459
3433.00277	0.02477
3431.07411	0.02490
3429.14546	0.02504
3427.21681	0.02517
3425.28815	0.02525
3423.35950	0.02534
3421.43085	0.02554
3419.50219	0.02580
3417.57354	0.02600
3415.64489	0.02610
3413.71624	0.02617
3411.78758	0.02625
3409.85893	0.02634
3407.93028	0.02645
3406.00162	0.02660
3404.07297	0.02667
3402.14432	0.02668
3400.21566	0.02679
3398.28701	0.02703
3396.35836	0.02723
3394.42970	0.02731
3392.50105	0.02737
3390.57240	0.02749
3388.64374	0.02762
3386.71509	0.02776
3384.78644	0.02794
3382.85778	0.02813
3380.92913	0.02828
3379.00048	0.02838
3377.07182	0.02842
3375.14317	0.02845
3373.21452	0.02852
3371.28586	0.02860
3369.35721	0.02870
3367.42856	0.02889
3365.49990	0.02915
3363.57125	0.02942
3361.64260	0.02966
3359.71394	0.02993
3357.78529	0.03019
3355.85664	0.03032
3353.92798	0.03041
3351.99933	0.03054
3350.07068	0.03064
3348.14202	0.03081
3346.21337	0.03110
3344.28472	0.03140
3342.35607	0.03162
3340.42741	0.03180
3338.49876	0.03205
3336.57011	0.03235
3334.64145	0.03253
3332.71280	0.03258
3330.78415	0.03268
3328.85549	0.03286
3326.92684	0.03301
3324.99819	0.03304
3323.06953	0.03304
3321.14088	0.03314
3319.21223	0.03340
3317.28357	0.03369
3315.35492	0.03383
3313.42627	0.03383
3311.49761	0.03382
3309.56896	0.03387
3307.64031	0.03399
3305.71165	0.03420
3303.78300	0.03444
3301.85435	0.03455
3299.92569	0.03448
3297.99704	0.03432
3296.06839	0.03425
3294.13973	0.03431
3292.21108	0.03438
3290.28243	0.03448
3288.35377	0.03457
3286.42512	0.03455
3284.49647	0.03450
3282.56781	0.03454
3280.63916	0.03460
3278.71051	0.03453
3276.78186	0.03441
3274.85320	0.03434
3272.92455	0.03423
3270.99590	0.03402
3269.06724	0.03388
3267.13859	0.03387
3265.20994	0.03389
3263.28128	0.03389
3261.35263	0.03385
3259.42398	0.03371
3257.49532	0.03350
3255.56667	0.03336
3253.63802	0.03334
3251.70936	0.03337
3249.78071	0.03336
3247.85206	0.03332
3245.92340	0.03325
3243.99475	0.03318
3242.06610	0.03309
3240.13744	0.03300
3238.20879	0.03297
3236.28014	0.03297
3234.35148	0.03286
3232.42283	0.03266
3230.49418	0.03254
3228.56552	0.03255
3226.63687	0.03260
3224.70822	0.03260
3222.77956	0.03250
3220.85091	0.03230
3218.92226	0.03214
3216.99360	0.03211
3215.06495	0.03209
3213.13630	0.03205
3211.20764	0.03204
3209.27899	0.03200
3207.35034	0.03187
3205.42169	0.03177
3203.49303	0.03168
3201.56438	0.03152
3199.63573	0.03136
3197.70707	0.03133
3195.77842	0.03135
3193.84977	0.03124
3191.92111	0.03105
3189.99246	0.03098
3188.06381	0.03094
3186.13515	0.03072
3184.20650	0.03051
3182.27785	0.03044
3180.34919	0.03034
3178.42054	0.03016
3176.49189	0.03002
3174.56323	0.02993
3172.63458	0.02983
3170.70593	0.02970
3168.77727	0.02950
3166.84862	0.02931
3164.91997	0.02922
3162.99131	0.02915
3161.06266	0.02902
3159.13401	0.02883
3157.20535	0.02872
3155.27670	0.02870
3153.34805	0.02860
3151.41939	0.02838
3149.49074	0.02821
3147.56209	0.02811
3145.63343	0.02796
3143.70478	0.02777
3141.77613	0.02766
3139.84748	0.02760
3137.91882	0.02751
3135.99017	0.02744
3134.06152	0.02748
3132.13286	0.02754
3130.20421	0.02746
3128.27556	0.02721
3126.34690	0.02694
3124.41825	0.02678
3122.48960	0.02674
3120.56094	0.02673
3118.63229	0.02663
3116.70364	0.02652
3114.77498	0.02654
3112.84633	0.02666
3110.91768	0.02675
3108.98902	0.02676
3107.06037	0.02675
3105.13172	0.02669
3103.20306	0.02659
3101.27441	0.02651
3099.34576	0.02646
3097.41710	0.02644
3095.48845	0.02654
3093.55980	0.02676
3091.63114	0.02692
3089.70249	0.02698
3087.77384	0.02705
3085.84518	0.02712
3083.91653	0.02718
3081.98788	0.02726
3080.05922	0.02733
3078.13057	0.02735
3076.20192	0.02733
3074.27326	0.02730
3072.34461	0.02728
3070.41596	0.02727
3068.48731	0.02725
3066.55865	0.02721
3064.63000	0.02712
3062.70135	0.02699
3060.77269	0.02688
3058.84404	0.02684
3056.91539	0.02680
3054.98673	0.02671
3053.05808	0.02658
3051.12943	0.02643
3049.20077	0.02629
3047.27212	0.02616
3045.34347	0.02605
3043.41481	0.02593
3041.48616	0.02578
3039.55751	0.02565
3037.62885	0.02560
3035.70020	0.02558
3033.77155	0.02545
3031.84289	0.02522
3029.91424	0.02505
3027.98559	0.02494
3026.05693	0.02482
3024.12828	0.02468
3022.19963	0.02455
3020.27097	0.02449
3018.34232	0.02443
3016.41367	0.02435
3014.48501	0.02433
3012.55636	0.02438
3010.62771	0.02439
3008.69905	0.02433
3006.77040	0.02426
3004.84175	0.02420
3002.91309	0.02407
3000.98444	0.02398
2999.05579	0.02396
2997.12714	0.02393
2995.19848	0.02392
2993.26983	0.02406
2991.34118	0.02438
2989.41252	0.02465
2987.48387	0.02466
2985.55522	0.02452
2983.62656	0.02448
2981.69791	0.02455
2979.76926	0.02469
2977.84060	0.02485
2975.91195	0.02507
2973.98330	0.02526
2972.05464	0.02537
2970.12599	0.02545
2968.19734	0.02553
2966.26868	0.02563
2964.34003	0.02578
2962.41138	0.02595
2960.48272	0.02601
2958.55407	0.02600
2956.62542	0.02608
2954.69676	0.02624
2952.76811	0.02629
2950.83946	0.02625
2948.91080	0.02626
2946.98215	0.02639
2945.05350	0.02657
2943.12484	0.02670
2941.19619	0.02675
2939.26754	0.02687
2937.33888	0.02710
2935.41023	0.02735
2933.48158	0.02760
2931.55293	0.02788
2929.62427	0.02815
2927.69562	0.02832
2925.76697	0.02841
2923.83831	0.02848
2921.90966	0.02851
2919.98101	0.02840
2918.05235	0.02815
2916.12370	0.02779
2914.19505	0.02731
2912.26639	0.02676
2910.33774	0.02628
2908.40909	0.02594
2906.48043	0.02565
2904.55178	0.02529
2902.62313	0.02494
2900.69447	0.02476
2898.76582	0.02471
2896.83717	0.02462
2894.90851	0.02446
2892.97986	0.02433
2891.05121	0.02425
2889.12255	0.02421
2887.19390	0.02415
2885.26525	0.02409
2883.33659	0.02409
2881.40794	0.02412
2879.47929	0.02411
2877.55063	0.02403
2875.62198	0.02400
2873.69333	0.02410
2871.76467	0.02415
2869.83602	0.02404
2867.90737	0.02384
2865.97871	0.02364
2864.05006	0.02352
2862.12141	0.02353
2860.19276	0.02365
2858.26410	0.02374
2856.33545	0.02379
2854.40680	0.02390
2852.47814	0.02400
2850.54949	0.02392
2848.62084	0.02367
2846.69218	0.02333
2844.76353	0.02297
2842.83488	0.02266
2840.90622	0.02242
2838.97757	0.02218
2837.04892	0.02188
2835.12026	0.02161
2833.19161	0.02140
2831.26296	0.02125
2829.33430	0.02122
2827.40565	0.02127
2825.47700	0.02123
2823.54834	0.02106
2821.61969	0.02087
2819.69104	0.02074
2817.76238	0.02065
2815.83373	0.02063
2813.90508	0.02071
2811.97642	0.02081
2810.04777	0.02078
2808.11912	0.02062
2806.19046	0.02045
2804.26181	0.02034
2802.33316	0.02028
2800.40450	0.02022
2798.47585	0.02016
2796.54720	0.02013
2794.61855	0.02012
2792.68989	0.02009
2790.76124	0.02006
2788.83259	0.02006
2786.90393	0.02003
2784.97528	0.01990
2783.04663	0.01974
2781.11797	0.01969
2779.18932	0.01976
2777.26067	0.01980
2775.33201	0.01974
2773.40336	0.01963
2771.47471	0.01954
2769.54605	0.01944
2767.61740	0.01938
2765.68875	0.01939
2763.76009	0.01936
2761.83144	0.01922
2759.90279	0.01908
2757.97413	0.01906
2756.04548	0.01914
2754.11683	0.01918
2752.18817	0.01913
2750.25952	0.01908
2748.33087	0.01900
2746.40221	0.01890
2744.47356	0.01884
2742.54491	0.01878
2740.61625	0.01865
2738.68760	0.01853
2736.75895	0.01848
2734.83029	0.01850
2732.90164	0.01851
2730.97299	0.01848
2729.04433	0.01848
2727.11568	0.01849
2725.18703	0.01845
2723.25838	0.01839
2721.32972	0.01832
2719.40107	0.01824
2717.47242	0.01817
2715.54376	0.01810
2713.61511	0.01802
2711.68646	0.01798
2709.75780	0.01801
2707.82915	0.01805
2705.90050	0.01799
2703.97184	0.01787
2702.04319	0.01777
2700.11454	0.01773
2698.18588	0.01771
2696.25723	0.01771
2694.32858	0.01775
2692.39992	0.01777
2690.47127	0.01776
2688.54262	0.01771
2686.61396	0.01761
2684.68531	0.01754
2682.75666	0.01756
2680.82800	0.01759
2678.89935	0.01758
2676.97070	0.01755
2675.04204	0.01751
2673.11339	0.01750
2671.18474	0.01754
2669.25608	0.01756
2667.32743	0.01754
2665.39878	0.01752
2663.47012	0.01750
2661.54147	0.01750
2659.61282	0.01754
2657.68417	0.01755
2655.75551	0.01745
2653.82686	0.01730
2651.89821	0.01719
2649.96955	0.01711
2648.04090	0.01701
2646.11225	0.01694
2644.18359	0.01693
2642.25494	0.01698
2640.32629	0.01702
2638.39763	0.01694
2636.46898	0.01673
2634.54033	0.01653
2632.61167	0.01645
2630.68302	0.01644
2628.75437	0.01642
2626.82571	0.01637
2624.89706	0.01627
2622.96841	0.01615
2621.03975	0.01608
2619.11110	0.01602
2617.18245	0.01598
2615.25379	0.01592
2613.32514	0.01587
2611.39649	0.01583
2609.46783	0.01571
2607.53918	0.01555
2605.61053	0.01546
2603.68187	0.01544
2601.75322	0.01543
2599.82457	0.01537
2597.89591	0.01529
2595.96726	0.01520
2594.03861	0.01503
2592.10995	0.01486
2590.18130	0.01480
2588.25265	0.01471
2586.32400	0.01458
2584.39534	0.01455
2582.46669	0.01465
2580.53804	0.01480
2578.60938	0.01493
2576.68073	0.01493
2574.75208	0.01475
2572.82342	0.01461
2570.89477	0.01463
2568.96612	0.01467
2567.03746	0.01462
2565.10881	0.01446
2563.18016	0.01428
2561.25150	0.01423
2559.32285	0.01430
2557.39420	0.01436
2555.46554	0.01439
2553.53689	0.01435
2551.60824	0.01422
2549.67958	0.01418
2547.75093	0.01427
2545.82228	0.01433
2543.89362	0.01430
2541.96497	0.01422
2540.03632	0.01409
2538.10766	0.01402
2536.17901	0.01403
2534.25036	0.01398
2532.32170	0.01390
2530.39305	0.01389
2528.46440	0.01397
2526.53574	0.01407
2524.60709	0.01412
2522.67844	0.01408
2520.74978	0.01399
2518.82113	0.01398
2516.89248	0.01409
2514.96383	0.01414
2513.03517	0.01405
2511.10652	0.01389
2509.17787	0.01374
2507.24921	0.01365
2505.32056	0.01353
2503.39191	0.01342
2501.46325	0.01349
2499.53460	0.01369
2497.60595	0.01377
2495.67729	0.01374
2493.74864	0.01375
2491.81999	0.01371
2489.89133	0.01358
2487.96268	0.01348
2486.03403	0.01349
2484.10537	0.01350
2482.17672	0.01340
2480.24807	0.01329
2478.31941	0.01331
2476.39076	0.01329
2474.46211	0.01312
2472.53345	0.01299
2470.60480	0.01301
2468.67615	0.01308
2466.74749	0.01323
2464.81884	0.01348
2462.89019	0.01365
2460.96153	0.01365
2459.03288	0.01365
2457.10423	0.01368
2455.17557	0.01363
2453.24692	0.01354
2451.31827	0.01349
2449.38962	0.01344
2447.46096	0.01350
2445.53231	0.01359
2443.60366	0.01349
2441.67500	0.01329
2439.74635	0.01321
2437.81770	0.01325
2435.88904	0.01334
2433.96039	0.01345
2432.03174	0.01348
2430.10308	0.01332
2428.17443	0.01313
2426.24578	0.01316
2424.31712	0.01333
2422.38847	0.01341
2420.45982	0.01339
2418.53116	0.01336
2416.60251	0.01335
2414.67386	0.01331
2412.74520	0.01325
2410.81655	0.01320
2408.88790	0.01322
2406.95924	0.01331
2405.03059	0.01341
2403.10194	0.01341
2401.17328	0.01333
2399.24463	0.01327
2397.31598	0.01329
2395.38732	0.01331
2393.45867	0.01329
2391.53002	0.01323
2389.60136	0.01317
2387.67271	0.01315
2385.74406	0.01318
2383.81540	0.01325
2381.88675	0.01326
2379.95810	0.01322
2378.02945	0.01326
2376.10079	0.01335
2374.17214	0.01336
2372.24349	0.01336
2370.31483	0.01345
2368.38618	0.01349
2366.45753	0.01347
2364.52887	0.01349
2362.60022	0.01357
2360.67157	0.01362
2358.74291	0.01357
2356.81426	0.01355
2354.88561	0.01370
2352.95695	0.01391
2351.02830	0.01399
2349.09965	0.01396
2347.17099	0.01393
2345.24234	0.01396
2343.31369	0.01398
2341.38503	0.01393
2339.45638	0.01388
2337.52773	0.01380
2335.59907	0.01375
2333.67042	0.01374
2331.74177	0.01375
2329.81311	0.01378
2327.88446	0.01393
2325.95581	0.01427
2324.02715	0.01448
2322.09850	0.01437
2320.16985	0.01410
2318.24119	0.01382
2316.31254	0.01361
2314.38389	0.01353
2312.45524	0.01351
2310.52658	0.01344
2308.59793	0.01331
2306.66928	0.01317
2304.74062	0.01301
2302.81197	0.01289
2300.88332	0.01283
2298.95466	0.01282
2297.02601	0.01286
2295.09736	0.01291
2293.16870	0.01293
2291.24005	0.01294
2289.31140	0.01297
2287.38274	0.01296
2285.45409	0.01284
2283.52544	0.01272
2281.59678	0.01262
2279.66813	0.01250
2277.73948	0.01230
2275.81082	0.01201
2273.88217	0.01177
2271.95352	0.01184
2270.02486	0.01200
2268.09621	0.01190
2266.16756	0.01168
2264.23890	0.01157
2262.31025	0.01142
2260.38160	0.01106
2258.45294	0.01071
2256.52429	0.01070
2254.59564	0.01078
2252.66698	0.01056
2250.73833	0.01021
2248.80968	0.01008
2246.88102	0.01011
2244.95237	0.01045
2243.02372	0.01081
2241.09507	0.01077
2239.16641	0.01046
2237.23776	0.01028
2235.30911	0.01031
2233.38045	0.01043
2231.45180	0.01028
2229.52315	0.00983
2227.59449	0.00960
2225.66584	0.00982
2223.73719	0.00998
2221.80853	0.00972
2219.87988	0.00934
2217.95123	0.00924
2216.02257	0.00948
2214.09392	0.00961
2212.16527	0.00943
2210.23661	0.00962
2208.30796	0.01024
2206.37931	0.01043
2204.45065	0.01003
2202.52200	0.00957
2200.59335	0.00921
2198.66469	0.00897
2196.73604	0.00887
2194.80739	0.00869
2192.87873	0.00840
2190.95008	0.00833
2189.02143	0.00853
2187.09277	0.00862
2185.16412	0.00838
2183.23547	0.00814
2181.30681	0.00831
2179.37816	0.00867
2177.44951	0.00884
2175.52085	0.00858
2173.59220	0.00803
2171.66355	0.00785
2169.73490	0.00809
2167.80624	0.00824
2165.87759	0.00843
2163.94894	0.00848
2162.02028	0.00762
2160.09163	0.00643
2158.16298	0.00602
2156.23432	0.00629
2154.30567	0.00669
2152.37702	0.00710
2150.44836	0.00755
2148.51971	0.00801
2146.59106	0.00834
2144.66240	0.00853
2142.73375	0.00843
2140.80510	0.00786
2138.87644	0.00731
2136.94779	0.00738
2135.01914	0.00779
2133.09048	0.00812
2131.16183	0.00844
2129.23318	0.00885
2127.30452	0.00928
2125.37587	0.00967
2123.44722	0.00985
2121.51856	0.00982
2119.58991	0.00989
2117.66126	0.01017
2115.73260	0.01037
2113.80395	0.01036
2111.87530	0.01026
2109.94664	0.01009
2108.01799	0.00989
2106.08934	0.00981
2104.16069	0.00973
2102.23203	0.00961
2100.30338	0.00966
2098.37473	0.00989
2096.44607	0.01000
2094.51742	0.00983
2092.58877	0.00953
2090.66011	0.00951
2088.73146	0.00986
2086.80281	0.01018
2084.87415	0.01016
2082.94550	0.00997
2081.01685	0.00988
2079.08819	0.00984
2077.15954	0.00965
2075.23089	0.00933
2073.30223	0.00910
2071.37358	0.00896
2069.44493	0.00878
2067.51627	0.00861
2065.58762	0.00873
2063.65897	0.00904
2061.73031	0.00894
2059.80166	0.00849
2057.87301	0.00824
2055.94435	0.00803
2054.01570	0.00764
2052.08705	0.00752
2050.15839	0.00794
2048.22974	0.00845
2046.30109	0.00854
2044.37243	0.00838
2042.44378	0.00810
2040.51513	0.00739
2038.58647	0.00651
2036.65782	0.00620
2034.72917	0.00654
2032.80052	0.00703
2030.87186	0.00717
2028.94321	0.00684
2027.01456	0.00653
2025.08590	0.00689
2023.15725	0.00772
2021.22860	0.00812
2019.29994	0.00762
2017.37129	0.00663
2015.44264	0.00614
2013.51398	0.00659
2011.58533	0.00707
2009.65668	0.00680
2007.72802	0.00628
2005.79937	0.00618
2003.87072	0.00630
2001.94206	0.00648
2000.01341	0.00698
1998.08476	0.00764
1996.15610	0.00800
1994.22745	0.00794
1992.29880	0.00756
1990.37014	0.00712
1988.44149	0.00705
1986.51284	0.00736
1984.58418	0.00752
1982.65553	0.00728
1980.72688	0.00717
1978.79822	0.00762
1976.86957	0.00839
1974.94092	0.00902
1973.01226	0.00902
1971.08361	0.00830
1969.15496	0.00756
1967.22631	0.00710
1965.29765	0.00679
1963.36900	0.00669
1961.44035	0.00669
1959.51169	0.00673
1957.58304	0.00715
1955.65439	0.00791
1953.72573	0.00841
1951.79708	0.00832
1949.86843	0.00801
1947.93977	0.00786
1946.01112	0.00767
1944.08247	0.00748
1942.15381	0.00782
1940.22516	0.00864
1938.29651	0.00907
1936.36785	0.00887
1934.43920	0.00861
1932.51055	0.00855
1930.58189	0.00858
1928.65324	0.00875
1926.72459	0.00900
1924.79593	0.00907
1922.86728	0.00900
1920.93863	0.00904
1919.00997	0.00909
1917.08132	0.00898
1915.15267	0.00880
1913.22401	0.00876
1911.29536	0.00891
1909.36671	0.00913
1907.43805	0.00929
1905.50940	0.00940
1903.58075	0.00949
1901.65209	0.00942
1899.72344	0.00918
1897.79479	0.00907
1895.86614	0.00930
1893.93748	0.00960
1892.00883	0.00968
1890.08018	0.00954
1888.15152	0.00933
1886.22287	0.00926
1884.29422	0.00938
1882.36556	0.00945
1880.43691	0.00937
1878.50826	0.00934
1876.57960	0.00948
1874.65095	0.00971
1872.72230	0.00985
1870.79364	0.00980
1868.86499	0.00964
1866.93634	0.00943
1865.00768	0.00922
1863.07903	0.00913
1861.15038	0.00918
1859.22172	0.00921
1857.29307	0.00920
1855.36442	0.00924
1853.43576	0.00935
1851.50711	0.00945
1849.57846	0.00953
1847.64980	0.00960
1845.72115	0.00964
1843.79250	0.00958
1841.86384	0.00945
1839.93519	0.00942
1838.00654	0.00952
1836.07788	0.00958
1834.14923	0.00953
1832.22058	0.00952
1830.29192	0.00961
1828.36327	0.00968
1826.43462	0.00967
1824.50597	0.00959
1822.57731	0.00951
1820.64866	0.00952
1818.72001	0.00951
1816.79135	0.00941
1814.86270	0.00938
1812.93405	0.00943
1811.00539	0.00947
1809.07674	0.00949
1807.14809	0.00952
1805.21943	0.00953
1803.29078	0.00959
1801.36213	0.00965
1799.43347	0.00967
1797.50482	0.00970
1795.57617	0.00977
1793.64751	0.00981
1791.71886	0.00974
1789.79021	0.00968
1787.86155	0.00971
1785.93290	0.00971
1784.00425	0.00964
1782.07559	0.00959
1780.14694	0.00957
1778.21829	0.00954
1776.28963	0.00951
1774.36098	0.00952
1772.43233	0.00956
1770.50367	0.00953
1768.57502	0.00946
1766.64637	0.00940
1764.71771	0.00937
1762.78906	0.00937
1760.86041	0.00941
1758.93176	0.00950
1757.00310	0.00959
1755.07445	0.00962
1753.14580	0.00960
1751.21714	0.00961
1749.28849	0.00971
1747.35984	0.00985
1745.43118	0.00994
1743.50253	0.00996
1741.57388	0.00995
1739.64522	0.01005
1737.71657	0.01025
1735.78792	0.01047
1733.85926	0.01063
1731.93061	0.01067
1730.00196	0.01069
1728.07330	0.01077
1726.14465	0.01091
1724.21600	0.01112
1722.28734	0.01137
1720.35869	0.01168
1718.43004	0.01204
1716.50138	0.01238
1714.57273	0.01268
1712.64408	0.01303
1710.71542	0.01355
1708.78677	0.01426
1706.85812	0.01507
1704.92946	0.01598
1703.00081	0.01704
1701.07216	0.01823
1699.14350	0.01948
1697.21485	0.02076
1695.28620	0.02211
1693.35754	0.02347
1691.42889	0.02482
1689.50024	0.02621
1687.57159	0.02769
1685.64293	0.02928
1683.71428	0.03093
1681.78563	0.03259
1679.85697	0.03432
1677.92832	0.03616
1675.99967	0.03810
1674.07101	0.04011
1672.14236	0.04216
1670.21371	0.04432
1668.28505	0.04649
1666.35640	0.04851
1664.42775	0.05043
1662.49909	0.05233
1660.57044	0.05413
1658.64179	0.05578
1656.71313	0.05727
1654.78448	0.05857
1652.85583	0.05963
1650.92717	0.06044
1648.99852	0.06117
1647.06987	0.06190
1645.14121	0.06254
1643.21256	0.06310
1641.28391	0.06363
1639.35525	0.06409
1637.42660	0.06446
1635.49795	0.06476
1633.56929	0.06490
1631.64064	0.06479
1629.71199	0.06443
1627.78333	0.06384
1625.85468	0.06301
1623.92603	0.06188
1621.99738	0.06046
1620.06872	0.05888
1618.14007	0.05725
1616.21142	0.05553
1614.28276	0.05372
1612.35411	0.05190
1610.42546	0.05014
1608.49680	0.04845
1606.56815	0.04683
1604.63950	0.04530
1602.71084	0.04386
1600.78219	0.04257
1598.85354	0.04144
1596.92488	0.04049
1594.99623	0.03968
1593.06758	0.03901
1591.13892	0.03847
1589.21027	0.03807
1587.28162	0.03783
1585.35296	0.03777
1583.42431	0.03793
1581.49566	0.03826
1579.56700	0.03875
1577.63835	0.03936
1575.70970	0.04006
1573.78104	0.04086
1571.85239	0.04182
1569.92374	0.04289
1567.99508	0.04403
1566.06643	0.04521
1564.13778	0.04644
1562.20912	0.04771
1560.28047	0.04906
1558.35182	0.05034
1556.42316	0.05140
1554.49451	0.05233
1552.56586	0.05317
1550.63721	0.05391
1548.70855	0.05455
1546.77990	0.05510
1544.85125	0.05553
1542.92259	0.05581
1540.99394	0.05600
1539.06529	0.05607
1537.13663	0.05589
1535.20798	0.05550
1533.27933	0.05502
1531.35067	0.05453
1529.42202	0.05405
1527.49337	0.05356
1525.56471	0.05304
1523.63606	0.05251
1521.70741	0.05198
1519.77875	0.05140
1517.85010	0.05077
1515.92145	0.05013
1513.99279	0.04940
1512.06414	0.04854
1510.13549	0.04768
1508.20683	0.04687
1506.27818	0.04602
1504.34953	0.04504
1502.42087	0.04402
1500.49222	0.04307
1498.56357	0.04217
1496.63491	0.04124
1494.70626	0.04028
1492.77761	0.03941
1490.84895	0.03867
1488.92030	0.03800
1486.99165	0.03743
1485.06299	0.03710
1483.13434	0.03706
1481.20569	0.03722
1479.27704	0.03749
1477.34838	0.03788
1475.41973	0.03842
1473.49108	0.03916
1471.56242	0.04001
1469.63377	0.04084
1467.70512	0.04162
1465.77646	0.04242
1463.84781	0.04324
1461.91916	0.04407
1459.99050	0.04499
1458.06185	0.04598
1456.13320	0.04688
1454.20454	0.04759
1452.27589	0.04814
1450.34724	0.04854
1448.41858	0.04872
1446.48993	0.04870
1444.56128	0.04854
1442.63262	0.04829
1440.70397	0.04797
1438.77532	0.04757
1436.84666	0.04704
1434.91801	0.04643
1432.98936	0.04585
1431.06070	0.04538
1429.13205	0.04500
1427.20340	0.04473
1425.27474	0.04466
1423.34609	0.04476
1421.41744	0.04493
1419.48878	0.04508
1417.56013	0.04524
1415.63148	0.04539
1413.70283	0.04554
1411.77417	0.04570
1409.84552	0.04586
1407.91687	0.04599
1405.98821	0.04606
1404.05956	0.04608
1402.13091	0.04598
1400.20225	0.04570
1398.27360	0.04531
1396.34495	0.04489
1394.41629	0.04444
1392.48764	0.04397
1390.55899	0.04352
1388.63033	0.04306
1386.70168	0.04258
1384.77303	0.04208
1382.84437	0.04159
1380.91572	0.04111
1378.98707	0.04063
1377.05841	0.04014
1375.12976	0.03958
1373.20111	0.03892
1371.27245	0.03821
1369.34380	0.03754
1367.41515	0.03691
1365.48649	0.03626
1363.55784	0.03560
1361.62919	0.03500
1359.70053	0.03451
1357.77188	0.03425
1355.84323	0.03423
1353.91457	0.03433
1351.98592	0.03450
1350.05727	0.03471
1348.12861	0.03501
1346.19996	0.03540
1344.27131	0.03578
1342.34266	0.03610
1340.41400	0.03636
1338.48535	0.03659
1336.55670	0.03671
1334.62804	0.03667
1332.69939	0.03648
1330.77074	0.03617
1328.84208	0.03575
1326.91343	0.03530
1324.98478	0.03493
1323.05612	0.03469
1321.12747	0.03453
1319.19882	0.03434
1317.27016	0.03414
1315.34151	0.03402
1313.41286	0.03395
1311.48420	0.03380
1309.55555	0.03354
1307.62690	0.03328
1305.69824	0.03312
1303.76959	0.03300
1301.84094	0.03282
1299.91228	0.03260
1297.98363	0.03242
1296.05498	0.03237
1294.12632	0.03250
1292.19767	0.03274
1290.26902	0.03302
1288.34036	0.03330
1286.41171	0.03358
1284.48306	0.03386
1282.55440	0.03415
1280.62575	0.03435
1278.69710	0.03446
1276.76845	0.03451
1274.83979	0.03450
1272.91114	0.03450
1270.98249	0.03458
1269.05383	0.03472
1267.12518	0.03488
1265.19653	0.03512
1263.26787	0.03545
1261.33922	0.03581
1259.41057	0.03613
1257.48191	0.03644
1255.55326	0.03678
1253.62461	0.03718
1251.69595	0.03770
1249.76730	0.03834
1247.83865	0.03900
1245.90999	0.03959
1243.98134	0.04015
1242.05269	0.04070
1240.12403	0.04112
1238.19538	0.04136
1236.26673	0.04145
1234.33807	0.04139
1232.40942	0.04117
1230.48077	0.04079
1228.55211	0.04026
1226.62346	0.03958
1224.69481	0.03877
1222.76615	0.03788
1220.83750	0.03700
1218.90885	0.03624
1216.98019	0.03568
1215.05154	0.03533
1213.12289	0.03520
1211.19423	0.03524
1209.26558	0.03540
1207.33693	0.03561
1205.40828	0.03583
1203.47962	0.03603
1201.55097	0.03609
1199.62232	0.03579
1197.69366	0.03534
1195.76501	0.03478
1193.83636	0.03422
1191.90770	0.03367
1189.97905	0.03318
1188.05040	0.03277
1186.12174	0.03245
1184.19309	0.03220
1182.26444	0.03207
1180.33578	0.03203
1178.40713	0.03199
1176.47848	0.03197
1174.54982	0.03203
1172.62117	0.03219
1170.69252	0.03242
1168.76386	0.03264
1166.83521	0.03286
1164.90656	0.03320
1162.97790	0.03364
1161.04925	0.03399
1159.12060	0.03414
1157.19194	0.03425
1155.26329	0.03441
1153.33464	0.03450
1151.40598	0.03448
1149.47733	0.03447
1147.54868	0.03453
1145.62002	0.03461
1143.69137	0.03473
1141.76272	0.03489
1139.83406	0.03507
1137.90541	0.03528
1135.97676	0.03560
1134.04811	0.03605
1132.11945	0.03672
1130.19080	0.03768
1128.26215	0.03868
1126.33349	0.03955
1124.40484	0.04053
1122.47619	0.04175
1120.54753	0.04295
1118.61888	0.04408
1116.69023	0.04526
1114.76157	0.04638
1112.83292	0.04739
1110.90427	0.04847
1108.97561	0.04962
1107.04696	0.05069
1105.11831	0.05173
1103.18965	0.05282
1101.26100	0.05392
1099.33235	0.05497
1097.40369	0.05594
1095.47504	0.05684
1093.54639	0.05769
1091.61773	0.05862
1089.68908	0.05967
1087.76043	0.06072
1085.83177	0.06162
1083.90312	0.06242
1081.97447	0.06322
1080.04581	0.06402
1078.11716	0.06475
1076.18851	0.06542
1074.25985	0.06612
1072.33120	0.06676
1070.40255	0.06734
1068.47390	0.06798
1066.54524	0.06875
1064.61659	0.06953
1062.68794	0.07034
1060.75928	0.07121
1058.83063	0.07197
1056.90198	0.07255
1054.97332	0.07314
1053.04467	0.07392
1051.11602	0.07483
1049.18736	0.07569
1047.25871	0.07648
1045.33006	0.07732
1043.40140	0.07827
1041.47275	0.07927
1039.54410	0.08033
1037.61544	0.08157
1035.68679	0.08295
1033.75814	0.08438
1031.82948	0.08575
1029.90083	0.08700
1027.97218	0.08795
1026.04352	0.08853
1024.11487	0.08887
1022.18622	0.08929
1020.25756	0.08985
1018.32891	0.09040
1016.40026	0.09079
1014.47160	0.09088
1012.54295	0.09067
1010.61430	0.09028
1008.68564	0.08978
1006.75699	0.08916
1004.82834	0.08848
1002.89968	0.08774
1000.97103	0.08688
999.04238	0.08595
997.11373	0.08497
995.18507	0.08380
993.25642	0.08250
991.32777	0.08127
989.39911	0.08006
987.47046	0.07877
985.54181	0.07744
983.61315	0.07614
981.68450	0.07489
979.75585	0.07371
977.82719	0.07261
975.89854	0.07149
973.96989	0.07036
972.04123	0.06930
970.11258	0.06836
968.18393	0.06750
966.25527	0.06675
964.32662	0.06624
962.39797	0.06603
960.46931	0.06596
958.54066	0.06584
956.61201	0.06555
954.68335	0.06499
952.75470	0.06422
950.82605	0.06337
948.89739	0.06260
946.96874	0.06193
945.04009	0.06129
943.11143	0.06067
941.18278	0.05994
939.25413	0.05907
937.32547	0.05820
935.39682	0.05743
933.46817	0.05685
931.53952	0.05646
929.61086	0.05596
927.68221	0.05521
925.75356	0.05449
923.82490	0.05398
921.89625	0.05358
919.96760	0.05314
918.03894	0.05265
916.11029	0.05220
914.18164	0.05177
912.25298	0.05120
910.32433	0.05055
908.39568	0.05020
906.46702	0.05031
904.53837	0.05047
902.60972	0.05022
900.68106	0.04991
898.75241	0.04991
896.82376	0.04998
894.89510	0.04985
892.96645	0.04953
891.03780	0.04921
889.10914	0.04905
887.18049	0.04908
885.25184	0.04935
883.32318	0.04989
881.39453	0.05056
879.46588	0.05128
877.53722	0.05209
875.60857	0.05293
873.67992	0.05369
871.75126	0.05411
869.82261	0.05413
867.89396	0.05397
865.96530	0.05370
864.03665	0.05325
862.10800	0.05265
860.17935	0.05196
858.25069	0.05129
856.32204	0.05091
854.39339	0.05083
852.46473	0.05070
850.53608	0.05029
848.60743	0.04973
846.67877	0.04932
844.75012	0.04913
842.82147	0.04895
840.89281	0.04860
838.96416	0.04809
837.03551	0.04757
835.10685	0.04734
833.17820	0.04736
831.24955	0.04721
829.32089	0.04688
827.39224	0.04671
825.46359	0.04678
823.53493	0.04679
821.60628	0.04669
819.67763	0.04675
817.74897	0.04680
815.82032	0.04669
813.89167	0.04661
811.96301	0.04669
810.03436	0.04669
808.10571	0.04650
806.17705	0.04638
804.24840	0.04655
802.31975	0.04687
800.39109	0.04715
798.46244	0.04721
796.53379	0.04702
794.60513	0.04683
792.67648	0.04688
790.74783	0.04707
788.81918	0.04730
786.89052	0.04753
784.96187	0.04776
783.03322	0.04799
781.10456	0.04821
779.17591	0.04836
777.24726	0.04846
775.31860	0.04852
773.38995	0.04849
771.46130	0.04833
769.53264	0.04816
767.60399	0.04808
765.67534	0.04822
763.74668	0.04860
761.81803	0.04904
759.88938	0.04948
757.96072	0.05002
756.03207	0.05048
754.10342	0.05053
752.17476	0.05032
750.24611	0.05034
748.31746	0.05069
746.38880	0.05113
744.46015	0.05150
742.53150	0.05174
740.60284	0.05171
738.67419	0.05166
736.74554	0.05208
734.81688	0.05283
732.88823	0.05339
730.95958	0.05388
729.03092	0.05446
727.10227	0.05478
725.17362	0.05485
723.24497	0.05486
721.31631	0.05525
719.38766	0.05572
717.45901	0.05619
715.53035	0.05653
713.60170	0.05665
711.67305	0.05675
709.74439	0.05706
707.81574	0.05744
705.88709	0.05777
703.95843	0.05821
702.02978	0.05867
700.10113	0.05896
698.17247	0.05918
696.24382	0.05948
694.31517	0.05978
692.38651	0.05987
690.45786	0.05980
688.52921	0.05985
686.60055	0.06016
684.67190	0.06058
682.74325	0.06095
680.81459	0.06113
678.88594	0.06123
676.95729	0.06144
675.02863	0.06181
673.09998	0.06212
671.17133	0.06236
669.24267	0.06276
667.31402	0.06316
665.38537	0.06320
663.45671	0.06307
661.52806	0.06313
659.59941	0.06334
657.67075	0.06354
655.74210	0.06371
653.81345	0.06387
651.88480	0.06432
649.95614	0.06488
648.02749	0.06449
646.09884	0.06335
644.17018	0.06296
642.24153	0.06354
640.31288	0.06427
638.38422	0.06476
636.45557	0.06506
634.52692	0.06522
632.59826	0.06538
630.66961	0.06495
628.74096	0.06250
626.81230	0.06557
624.88365	0.07020
622.95500	0.07451
621.02634	0.07837
619.09769	0.08105
617.16904	0.08004
615.24038	0.07565
613.31173	0.07570
611.38308	0.08386
609.45442	0.08987
607.52577	0.08994
605.59712	0.09210
603.66846	0.09614
601.73981	0.09726
599.81116	0.09624
597.88250	0.09502
595.95385	0.09364
594.02520	0.09246
592.09654	0.09201
590.16789	0.09216
588.23924	0.09267
586.31059	0.09366
584.38193	0.09518
582.45328	0.09684
580.52463	0.09831
578.59597	0.09967
576.66732	0.10098
574.73867	0.10217
572.81001	0.10348
570.88136	0.10567
568.95271	0.10887
567.02405	0.11247
565.09540	0.11611
563.16675	0.11953
561.23809	0.12239
559.30944	0.12448
557.38079	0.12547
555.45213	0.12509
553.52348	0.12371
551.59483	0.12197
549.66617	0.12041
547.73752	0.11950
545.80887	0.11900
543.88021	0.11815
541.95156	0.11668
540.02291	0.11515
538.09425	0.11446
536.16560	0.11480
534.23695	0.11539
532.30829	0.11560
530.37964	0.11562
528.45099	0.11554
526.52233	0.11497
524.59368	0.11398
522.66503	0.11330
520.73637	0.11260
518.80772	0.11104
516.87907	0.10908
514.95042	0.10753
513.02176	0.10666
511.09311	0.10657
509.16446	0.10669
507.23580	0.10635
505.30715	0.10529
503.37850	0.10315
501.44984	0.10046
499.52119	0.09880
497.59254	0.09882
495.66388	0.09933
493.73523	0.09914
491.80658	0.09817
489.87792	0.09713
487.94927	0.09667
486.02062	0.09650
484.09196	0.09590
482.16331	0.09503
480.23466	0.09460
478.30600	0.09454
476.37735	0.09414
474.44870	0.09341
472.52004	0.09312
470.59139	0.09349
468.66274	0.09395
466.73408	0.09429
464.80543	0.09455
462.87678	0.09431
460.94812	0.09345
459.01947	0.09239
457.09082	0.09161
455.16216	0.09122
453.23351	0.09081
451.30486	0.09007
449.37620	0.08928
447.44755	0.08885
445.51890	0.08854
443.59025	0.08780
441.66159	0.08706
439.73294	0.08698
437.80429	0.08713
435.87563	0.08689
433.94698	0.08640
432.01833	0.08591
430.08967	0.08533
428.16102	0.08464
426.23237	0.08394
424.30371	0.08325
422.37506	0.08251
420.44641	0.08183
418.51775	0.08130
416.58910	0.08087
414.66045	0.08045
412.73179	0.07999
410.80314	0.07960
408.87449	0.07930
406.94583	0.07908
405.01718	0.07869
403.08853	0.07789
401.15987	0.07693
399.23122	0.07613
