3996.16951	0.01497
3994.24086	0.01491
3992.31221	0.01508
3990.38355	0.01526
3988.45490	0.01528
3986.52625	0.01526
3984.59759	0.01529
3982.66894	0.01526
3980.74029	0.01513
3978.81163	0.01502
3976.88298	0.01501
3974.95433	0.01502
3973.02567	0.01500
3971.09702	0.01497
3969.16837	0.01495
3967.23972	0.01499
3965.31106	0.01511
3963.38241	0.01514
3961.45376	0.01511
3959.52510	0.01506
3957.59645	0.01497
3955.66780	0.01490
3953.73914	0.01499
3951.81049	0.01517
3949.88184	0.01525
3947.95318	0.01516
3946.02453	0.01505
3944.09588	0.01503
3942.16722	0.01512
3940.23857	0.01517
3938.30992	0.01506
3936.38126	0.01490
3934.45261	0.01484
3932.52396	0.01484
3930.59530	0.01484
3928.66665	0.01482
3926.73800	0.01476
3924.80934	0.01473
3922.88069	0.01477
3920.95204	0.01480
3919.02338	0.01484
3917.09473	0.01489
3915.16608	0.01491
3913.23742	0.01496
3911.30877	0.01497
3909.38012	0.01485
3907.45146	0.01468
3905.52281	0.01461
3903.59416	0.01471
3901.66550	0.01486
3899.73685	0.01483
3897.80820	0.01466
3895.87955	0.01456
3893.95089	0.01453
3892.02224	0.01449
3890.09359	0.01457
3888.16493	0.01474
3886.23628	0.01480
3884.30763	0.01473
3882.37897	0.01461
3880.45032	0.01454
3878.52167	0.01449
3876.59301	0.01440
3874.66436	0.01438
3872.73571	0.01443
3870.80705	0.01452
3868.87840	0.01461
3866.94975	0.01463
3865.02109	0.01463
3863.09244	0.01464
3861.16379	0.01453
3859.23513	0.01434
3857.30648	0.01428
3855.37783	0.01428
3853.44917	0.01420
3851.52052	0.01413
3849.59187	0.01416
3847.66321	0.01423
3845.73456	0.01428
3843.80591	0.01430
3841.87725	0.01422
3839.94860	0.01406
3838.01995	0.01394
3836.09129	0.01395
3834.16264	0.01402
3832.23399	0.01401
3830.30534	0.01400
3828.37668	0.01409
3826.44803	0.01414
3824.51938	0.01405
3822.59072	0.01397
3820.66207	0.01402
3818.73342	0.01410
3816.80476	0.01411
3814.87611	0.01409
3812.94746	0.01418
3811.01880	0.01429
3809.09015	0.01423
3807.16150	0.01411
3805.23284	0.01402
3803.30419	0.01396
3801.37554	0.01397
3799.44688	0.01404
3797.51823	0.01403
3795.58958	0.01395
3793.66092	0.01391
3791.73227	0.01391
3789.80362	0.01389
3787.87496	0.01386
3785.94631	0.01384
3784.01766	0.01381
3782.08900	0.01378
3780.16035	0.01375
3778.23170	0.01371
3776.30304	0.01373
3774.37439	0.01375
3772.44574	0.01375
3770.51708	0.01379
3768.58843	0.01382
3766.65978	0.01384
3764.73112	0.01389
3762.80247	0.01384
3760.87382	0.01361
3758.94517	0.01347
3757.01651	0.01362
3755.08786	0.01385
3753.15921	0.01391
3751.23055	0.01382
3749.30190	0.01371
3747.37325	0.01364
3745.44459	0.01352
3743.51594	0.01344
3741.58729	0.01350
3739.65863	0.01355
3737.72998	0.01349
3735.80133	0.01346
3733.87267	0.01349
3731.94402	0.01351
3730.01537	0.01349
3728.08671	0.01349
3726.15806	0.01347
3724.22941	0.01334
3722.30075	0.01313
3720.37210	0.01301
3718.44345	0.01308
3716.51479	0.01322
3714.58614	0.01322
3712.65749	0.01306
3710.72883	0.01297
3708.80018	0.01308
3706.87153	0.01325
3704.94287	0.01328
3703.01422	0.01316
3701.08557	0.01308
3699.15691	0.01302
3697.22826	0.01294
3695.29961	0.01302
3693.37095	0.01318
3691.44230	0.01320
3689.51365	0.01314
3687.58500	0.01312
3685.65634	0.01315
3683.72769	0.01306
3681.79904	0.01290
3679.87038	0.01290
3677.94173	0.01307
3676.01308	0.01322
3674.08442	0.01329
3672.15577	0.01342
3670.22712	0.01359
3668.29846	0.01357
3666.36981	0.01333
3664.44116	0.01322
3662.51250	0.01335
3660.58385	0.01350
3658.65520	0.01348
3656.72654	0.01346
3654.79789	0.01362
3652.86924	0.01384
3650.94058	0.01394
3649.01193	0.01397
3647.08328	0.01406
3645.15462	0.01422
3643.22597	0.01437
3641.29732	0.01456
3639.36866	0.01477
3637.44001	0.01494
3635.51136	0.01497
3633.58270	0.01497
3631.65405	0.01507
3629.72540	0.01526
3627.79674	0.01539
3625.86809	0.01544
3623.93944	0.01548
3622.01079	0.01564
3620.08213	0.01596
3618.15348	0.01624
3616.22483	0.01632
3614.29617	0.01640
3612.36752	0.01657
3610.43887	0.01670
3608.51021	0.01679
3606.58156	0.01694
3604.65291	0.01717
3602.72425	0.01739
3600.79560	0.01754
3598.86695	0.01765
3596.93829	0.01778
3595.00964	0.01792
3593.08099	0.01811
3591.15233	0.01836
3589.22368	0.01858
3587.29503	0.01871
3585.36637	0.01884
3583.43772	0.01902
3581.50907	0.01922
3579.58041	0.01940
3577.65176	0.01960
3575.72311	0.01989
3573.79445	0.02021
3571.86580	0.02047
3569.93715	0.02060
3568.00849	0.02068
3566.07984	0.02093
3564.15119	0.02135
3562.22253	0.02169
3560.29388	0.02189
3558.36523	0.02209
3556.43657	0.02234
3554.50792	0.02260
3552.57927	0.02286
3550.65062	0.02310
3548.72196	0.02327
3546.79331	0.02335
3544.86466	0.02349
3542.93600	0.02386
3541.00735	0.02427
3539.07870	0.02449
3537.15004	0.02464
3535.22139	0.02483
3533.29274	0.02502
3531.36408	0.02522
3529.43543	0.02544
3527.50678	0.02564
3525.57812	0.02587
3523.64947	0.02615
3521.72082	0.02638
3519.79216	0.02653
3517.86351	0.02671
3515.93486	0.02697
3514.00620	0.02725
3512.07755	0.02753
3510.14890	0.02781
3508.22024	0.02801
3506.29159	0.02804
3504.36294	0.02808
3502.43428	0.02827
3500.50563	0.02850
3498.57698	0.02867
3496.64832	0.02886
3494.71967	0.02911
3492.79102	0.02932
3490.86236	0.02943
3488.93371	0.02953
3487.00506	0.02978
3485.07641	0.03011
3483.14775	0.03038
3481.21910	0.03048
3479.29045	0.03045
3477.36179	0.03048
3475.43314	0.03071
3473.50449	0.03114
3471.57583	0.03161
3469.64718	0.03195
3467.71853	0.03215
3465.78987	0.03234
3463.86122	0.03246
3461.93257	0.03251
3460.00391	0.03257
3458.07526	0.03270
3456.14661	0.03293
3454.21795	0.03321
3452.28930	0.03341
3450.36065	0.03357
3448.43199	0.03389
3446.50334	0.03436
3444.57469	0.03473
3442.64603	0.03491
3440.71738	0.03504
3438.78873	0.03524
3436.86007	0.03539
3434.93142	0.03546
3433.00277	0.03562
3431.07411	0.03593
3429.14546	0.03620
3427.21681	0.03639
3425.28815	0.03659
3423.35950	0.03683
3421.43085	0.03708
3419.50219	0.03731
3417.57354	0.03751
3415.64489	0.03763
3413.71624	0.03773
3411.78758	0.03790
3409.85893	0.03826
3407.93028	0.03865
3406.00162	0.03887
3404.07297	0.03902
3402.14432	0.03921
3400.21566	0.03945
3398.28701	0.03968
3396.35836	0.03987
3394.42970	0.04002
3392.50105	0.04017
3390.57240	0.04033
3388.64374	0.04056
3386.71509	0.04096
3384.78644	0.04137
3382.85778	0.04167
3380.92913	0.04192
3379.00048	0.04223
3377.07182	0.04259
3375.14317	0.04293
3373.21452	0.04319
3371.28586	0.04340
3369.35721	0.04362
3367.42856	0.04388
3365.49990	0.04420
3363.57125	0.04460
3361.64260	0.04507
3359.71394	0.04556
3357.78529	0.04605
3355.85664	0.04646
3353.92798	0.04678
3351.99933	0.04706
3350.07068	0.04743
3348.14202	0.04795
3346.21337	0.04855
3344.28472	0.04913
3342.35607	0.04958
3340.42741	0.04983
3338.49876	0.05006
3336.57011	0.05035
3334.64145	0.05066
3332.71280	0.05104
3330.78415	0.05145
3328.85549	0.05168
3326.92684	0.05178
3324.99819	0.05203
3323.06953	0.05242
3321.14088	0.05269
3319.21223	0.05279
3317.28357	0.05293
3315.35492	0.05312
3313.42627	0.05327
3311.49761	0.05341
3309.56896	0.05355
3307.64031	0.05368
3305.71165	0.05382
3303.78300	0.05399
3301.85435	0.05411
3299.92569	0.05417
3297.99704	0.05420
3296.06839	0.05424
3294.13973	0.05427
3292.21108	0.05420
3290.28243	0.05405
3288.35377	0.05403
3286.42512	0.05419
3284.49647	0.05437
3282.56781	0.05443
3280.63916	0.05444
3278.71051	0.05453
3276.78186	0.05460
3274.85320	0.05450
3272.92455	0.05436
3270.99590	0.05429
3269.06724	0.05407
3267.13859	0.05374
3265.20994	0.05354
3263.28128	0.05348
3261.35263	0.05334
3259.42398	0.05310
3257.49532	0.05281
3255.56667	0.05251
3253.63802	0.05232
3251.70936	0.05229
3249.78071	0.05235
3247.85206	0.05232
3245.92340	0.05215
3243.99475	0.05194
3242.06610	0.05175
3240.13744	0.05152
3238.20879	0.05130
3236.28014	0.05118
3234.35148	0.05114
3232.42283	0.05113
3230.49418	0.05106
3228.56552	0.05094
3226.63687	0.05086
3224.70822	0.05074
3222.77956	0.05047
3220.85091	0.05021
3218.92226	0.05009
3216.99360	0.05003
3215.06495	0.04993
3213.13630	0.04986
3211.20764	0.04979
3209.27899	0.04963
3207.35034	0.04949
3205.42169	0.04945
3203.49303	0.04940
3201.56438	0.04929
3199.63573	0.04913
3197.70707	0.04895
3195.77842	0.04876
3193.84977	0.04860
3191.92111	0.04846
3189.99246	0.04828
3188.06381	0.04806
3186.13515	0.04785
3184.20650	0.04765
3182.27785	0.04742
3180.34919	0.04713
3178.42054	0.04684
3176.49189	0.04662
3174.56323	0.04646
3172.63458	0.04627
3170.70593	0.04600
3168.77727	0.04572
3166.84862	0.04545
3164.91997	0.04520
3162.99131	0.04491
3161.06266	0.04455
3159.13401	0.04421
3157.20535	0.04397
3155.27670	0.04377
3153.34805	0.04355
3151.41939	0.04328
3149.49074	0.04295
3147.56209	0.04263
3145.63343	0.04237
3143.70478	0.04213
3141.77613	0.04195
3139.84748	0.04179
3137.91882	0.04162
3135.99017	0.04145
3134.06152	0.04128
3132.13286	0.04112
3130.20421	0.04100
3128.27556	0.04084
3126.34690	0.04065
3124.41825	0.04047
3122.48960	0.04036
3120.56094	0.04042
3118.63229	0.04060
3116.70364	0.04066
3114.77498	0.04051
3112.84633	0.04035
3110.91768	0.04037
3108.98902	0.04043
3107.06037	0.04044
3105.13172	0.04050
3103.20306	0.04062
3101.27441	0.04065
3099.34576	0.04065
3097.41710	0.04076
3095.48845	0.04096
3093.55980	0.04119
3091.63114	0.04136
3089.70249	0.04144
3087.77384	0.04150
3085.84518	0.04162
3083.91653	0.04178
3081.98788	0.04192
3080.05922	0.04206
3078.13057	0.04214
3076.20192	0.04214
3074.27326	0.04213
3072.34461	0.04212
3070.41596	0.04211
3068.48731	0.04212
3066.55865	0.04206
3064.63000	0.04187
3062.70135	0.04171
3060.77269	0.04167
3058.84404	0.04168
3056.91539	0.04161
3054.98673	0.04142
3053.05808	0.04121
3051.12943	0.04102
3049.20077	0.04081
3047.27212	0.04051
3045.34347	0.04022
3043.41481	0.04002
3041.48616	0.03989
3039.55751	0.03972
3037.62885	0.03946
3035.70020	0.03919
3033.77155	0.03894
3031.84289	0.03865
3029.91424	0.03829
3027.98559	0.03798
3026.05693	0.03783
3024.12828	0.03779
3022.19963	0.03768
3020.27097	0.03747
3018.34232	0.03730
3016.41367	0.03722
3014.48501	0.03718
3012.55636	0.03716
3010.62771	0.03712
3008.69905	0.03703
3006.77040	0.03695
3004.84175	0.03696
3002.91309	0.03700
3000.98444	0.03701
2999.05579	0.03701
2997.12714	0.03708
2995.19848	0.03721
2993.26983	0.03734
2991.34118	0.03742
2989.41252	0.03753
2987.48387	0.03772
2985.55522	0.03792
2983.62656	0.03810
2981.69791	0.03828
2979.76926	0.03848
2977.84060	0.03872
2975.91195	0.03898
2973.98330	0.03920
2972.05464	0.03942
2970.12599	0.03969
2968.19734	0.04002
2966.26868	0.04032
2964.34003	0.04055
2962.41138	0.04076
2960.48272	0.04101
2958.55407	0.04131
2956.62542	0.04152
2954.69676	0.04158
2952.76811	0.04161
2950.83946	0.04170
2948.91080	0.04183
2946.98215	0.04194
2945.05350	0.04207
2943.12484	0.04231
2941.19619	0.04267
2939.26754	0.04319
2937.33888	0.04384
2935.41023	0.04446
2933.48158	0.04499
2931.55293	0.04551
2929.62427	0.04600
2927.69562	0.04642
2925.76697	0.04682
2923.83831	0.04715
2921.90966	0.04729
2919.98101	0.04719
2918.05235	0.04684
2916.12370	0.04620
2914.19505	0.04528
2912.26639	0.04420
2910.33774	0.04313
2908.40909	0.04224
2906.48043	0.04155
2904.55178	0.04104
2902.62313	0.04064
2900.69447	0.04024
2898.76582	0.03987
2896.83717	0.03956
2894.90851	0.03926
2892.97986	0.03897
2891.05121	0.03877
2889.12255	0.03864
2887.19390	0.03857
2885.26525	0.03854
2883.33659	0.03849
2881.40794	0.03833
2879.47929	0.03821
2877.55063	0.03826
2875.62198	0.03840
2873.69333	0.03846
2871.76467	0.03839
2869.83602	0.03825
2867.90737	0.03808
2865.97871	0.03786
2864.05006	0.03770
2862.12141	0.03776
2860.19276	0.03803
2858.26410	0.03836
2856.33545	0.03872
2854.40680	0.03909
2852.47814	0.03934
2850.54949	0.03930
2848.62084	0.03884
2846.69218	0.03801
2844.76353	0.03701
2842.83488	0.03611
2840.90622	0.03537
2838.97757	0.03480
2837.04892	0.03437
2835.12026	0.03404
2833.19161	0.03378
2831.26296	0.03357
2829.33430	0.03337
2827.40565	0.03310
2825.47700	0.03280
2823.54834	0.03260
2821.61969	0.03251
2819.69104	0.03247
2817.76238	0.03242
2815.83373	0.03233
2813.90508	0.03219
2811.97642	0.03207
2810.04777	0.03199
2808.11912	0.03189
2806.19046	0.03172
2804.26181	0.03156
2802.33316	0.03146
2800.40450	0.03137
2798.47585	0.03126
2796.54720	0.03115
2794.61855	0.03103
2792.68989	0.03089
2790.76124	0.03081
2788.83259	0.03079
2786.90393	0.03068
2784.97528	0.03048
2783.04663	0.03030
2781.11797	0.03017
2779.18932	0.03008
2777.26067	0.03001
2775.33201	0.02998
2773.40336	0.02992
2771.47471	0.02985
2769.54605	0.02977
2767.61740	0.02965
2765.68875	0.02952
2763.76009	0.02938
2761.83144	0.02922
2759.90279	0.02905
2757.97413	0.02894
2756.04548	0.02891
2754.11683	0.02893
2752.18817	0.02890
2750.25952	0.02880
2748.33087	0.02864
2746.40221	0.02853
2744.47356	0.02849
2742.54491	0.02848
2740.61625	0.02841
2738.68760	0.02832
2736.75895	0.02827
2734.83029	0.02823
2732.90164	0.02816
2730.97299	0.02805
2729.04433	0.02788
2727.11568	0.02773
2725.18703	0.02765
2723.25838	0.02757
2721.32972	0.02748
2719.40107	0.02741
2717.47242	0.02729
2715.54376	0.02715
2713.61511	0.02713
2711.68646	0.02724
2709.75780	0.02724
2707.82915	0.02711
2705.90050	0.02697
2703.97184	0.02688
2702.04319	0.02686
2700.11454	0.02686
2698.18588	0.02680
2696.25723	0.02670
2694.32858	0.02660
2692.39992	0.02654
2690.47127	0.02651
2688.54262	0.02652
2686.61396	0.02653
2684.68531	0.02652
2682.75666	0.02648
2680.82800	0.02645
2678.89935	0.02643
2676.97070	0.02637
2675.04204	0.02630
2673.11339	0.02623
2671.18474	0.02618
2669.25608	0.02614
2667.32743	0.02610
2665.39878	0.02608
2663.47012	0.02606
2661.54147	0.02603
2659.61282	0.02598
2657.68417	0.02592
2655.75551	0.02585
2653.82686	0.02576
2651.89821	0.02563
2649.96955	0.02548
2648.04090	0.02532
2646.11225	0.02515
2644.18359	0.02498
2642.25494	0.02488
2640.32629	0.02486
2638.39763	0.02475
2636.46898	0.02455
2634.54033	0.02439
2632.61167	0.02426
2630.68302	0.02405
2628.75437	0.02380
2626.82571	0.02368
2624.89706	0.02365
2622.96841	0.02360
2621.03975	0.02347
2619.11110	0.02324
2617.18245	0.02295
2615.25379	0.02273
2613.32514	0.02262
2611.39649	0.02262
2609.46783	0.02270
2607.53918	0.02274
2605.61053	0.02261
2603.68187	0.02236
2601.75322	0.02215
2599.82457	0.02196
2597.89591	0.02182
2595.96726	0.02179
2594.03861	0.02177
2592.10995	0.02161
2590.18130	0.02143
2588.25265	0.02136
2586.32400	0.02131
2584.39534	0.02123
2582.46669	0.02116
2580.53804	0.02110
2578.60938	0.02105
2576.68073	0.02098
2574.75208	0.02087
2572.82342	0.02077
2570.89477	0.02063
2568.96612	0.02044
2567.03746	0.02033
2565.10881	0.02038
2563.18016	0.02043
2561.25150	0.02030
2559.32285	0.02002
2557.39420	0.01978
2555.46554	0.01979
2553.53689	0.02000
2551.60824	0.02019
2549.67958	0.02023
2547.75093	0.02016
2545.82228	0.01996
2543.89362	0.01968
2541.96497	0.01949
2540.03632	0.01943
2538.10766	0.01942
2536.17901	0.01942
2534.25036	0.01934
2532.32170	0.01925
2530.39305	0.01921
2528.46440	0.01918
2526.53574	0.01913
2524.60709	0.01906
2522.67844	0.01907
2520.74978	0.01919
2518.82113	0.01925
2516.89248	0.01913
2514.96383	0.01895
2513.03517	0.01884
2511.10652	0.01881
2509.17787	0.01888
2507.24921	0.01899
2505.32056	0.01903
2503.39191	0.01897
2501.46325	0.01886
2499.53460	0.01872
2497.60595	0.01870
2495.67729	0.01884
2493.74864	0.01891
2491.81999	0.01876
2489.89133	0.01853
2487.96268	0.01843
2486.03403	0.01845
2484.10537	0.01853
2482.17672	0.01858
2480.24807	0.01850
2478.31941	0.01837
2476.39076	0.01830
2474.46211	0.01827
2472.53345	0.01826
2470.60480	0.01831
2468.67615	0.01838
2466.74749	0.01838
2464.81884	0.01833
2462.89019	0.01835
2460.96153	0.01844
2459.03288	0.01851
2457.10423	0.01846
2455.17557	0.01835
2453.24692	0.01821
2451.31827	0.01807
2449.38962	0.01798
2447.46096	0.01797
2445.53231	0.01803
2443.60366	0.01804
2441.67500	0.01795
2439.74635	0.01789
2437.81770	0.01787
2435.88904	0.01786
2433.96039	0.01792
2432.03174	0.01795
2430.10308	0.01787
2428.17443	0.01779
2426.24578	0.01777
2424.31712	0.01779
2422.38847	0.01781
2420.45982	0.01782
2418.53116	0.01789
2416.60251	0.01799
2414.67386	0.01800
2412.74520	0.01792
2410.81655	0.01788
2408.88790	0.01791
2406.95924	0.01796
2405.03059	0.01802
2403.10194	0.01809
2401.17328	0.01814
2399.24463	0.01810
2397.31598	0.01806
2395.38732	0.01809
2393.45867	0.01822
2391.53002	0.01840
2389.60136	0.01853
2387.67271	0.01854
2385.74406	0.01848
2383.81540	0.01842
2381.88675	0.01842
2379.95810	0.01847
2378.02945	0.01854
2376.10079	0.01859
2374.17214	0.01862
2372.24349	0.01864
2370.31483	0.01864
2368.38618	0.01867
2366.45753	0.01880
2364.52887	0.01898
2362.60022	0.01915
2360.67157	0.01923
2358.74291	0.01921
2356.81426	0.01922
2354.88561	0.01933
2352.95695	0.01943
2351.02830	0.01940
2349.09965	0.01933
2347.17099	0.01935
2345.24234	0.01943
2343.31369	0.01944
2341.38503	0.01937
2339.45638	0.01931
2337.52773	0.01929
2335.59907	0.01921
2333.67042	0.01909
2331.74177	0.01903
2329.81311	0.01907
2327.88446	0.01921
2325.95581	0.01940
2324.02715	0.01946
2322.09850	0.01929
2320.16985	0.01900
2318.24119	0.01870
2316.31254	0.01846
2314.38389	0.01831
2312.45524	0.01817
2310.52658	0.01797
2308.59793	0.01776
2306.66928	0.01758
2304.74062	0.01741
2302.81197	0.01726
2300.88332	0.01715
2298.95466	0.01702
2297.02601	0.01683
2295.09736	0.01663
2293.16870	0.01643
2291.24005	0.01617
2289.31140	0.01596
2287.38274	0.01590
2285.45409	0.01591
2283.52544	0.01574
2281.59678	0.01540
2279.66813	0.01517
2277.73948	0.01501
2275.81082	0.01470
2273.88217	0.01433
2271.95352	0.01409
2270.02486	0.01394
2268.09621	0.01379
2266.16756	0.01356
2264.23890	0.01328
2262.31025	0.01310
2260.38160	0.01298
2258.45294	0.01283
2256.52429	0.01273
2254.59564	0.01268
2252.66698	0.01263
2250.73833	0.01260
2248.80968	0.01259
2246.88102	0.01236
2244.95237	0.01209
2243.02372	0.01185
2241.09507	0.01174
2239.16641	0.01176
2237.23776	0.01165
2235.30911	0.01136
2233.38045	0.01103
2231.45180	0.01082
2229.52315	0.01086
2227.59449	0.01098
2225.66584	0.01098
2223.73719	0.01084
2221.80853	0.01063
2219.87988	0.01044
2217.95123	0.01042
2216.02257	0.01048
2214.09392	0.01038
2212.16527	0.01003
2210.23661	0.00973
2208.30796	0.00973
2206.37931	0.00969
2204.45065	0.00923
2202.52200	0.00882
2200.59335	0.00899
2198.66469	0.00941
2196.73604	0.00962
2194.80739	0.00958
2192.87873	0.00951
2190.95008	0.00938
2189.02143	0.00892
2187.09277	0.00834
2185.16412	0.00809
2183.23547	0.00798
2181.30681	0.00785
2179.37816	0.00802
2177.44951	0.00832
2175.52085	0.00833
2173.59220	0.00831
2171.66355	0.00852
2169.73490	0.00860
2167.80624	0.00803
2165.87759	0.00701
2163.94894	0.00631
2162.02028	0.00598
2160.09163	0.00556
2158.16298	0.00529
2156.23432	0.00572
2154.30567	0.00647
2152.37702	0.00687
2150.44836	0.00706
2148.51971	0.00733
2146.59106	0.00746
2144.66240	0.00735
2142.73375	0.00725
2140.80510	0.00746
2138.87644	0.00787
2136.94779	0.00808
2135.01914	0.00826
2133.09048	0.00880
2131.16183	0.00957
2129.23318	0.01022
2127.30452	0.01059
2125.37587	0.01072
2123.44722	0.01090
2121.51856	0.01114
2119.58991	0.01121
2117.66126	0.01125
2115.73260	0.01151
2113.80395	0.01165
2111.87530	0.01139
2109.94664	0.01103
2108.01799	0.01089
2106.08934	0.01087
2104.16069	0.01078
2102.23203	0.01070
2100.30338	0.01080
2098.37473	0.01097
2096.44607	0.01099
2094.51742	0.01089
2092.58877	0.01092
2090.66011	0.01108
2088.73146	0.01104
2086.80281	0.01076
2084.87415	0.01058
2082.94550	0.01056
2081.01685	0.01050
2079.08819	0.01037
2077.15954	0.01027
2075.23089	0.01013
2073.30223	0.00990
2071.37358	0.00960
2069.44493	0.00942
2067.51627	0.00940
2065.58762	0.00935
2063.65897	0.00925
2061.73031	0.00911
2059.80166	0.00883
2057.87301	0.00866
2055.94435	0.00882
2054.01570	0.00899
2052.08705	0.00879
2050.15839	0.00823
2048.22974	0.00756
2046.30109	0.00698
2044.37243	0.00655
2042.44378	0.00629
2040.51513	0.00619
2038.58647	0.00620
2036.65782	0.00602
2034.72917	0.00556
2032.80052	0.00534
2030.87186	0.00537
2028.94321	0.00523
2027.01456	0.00505
2025.08590	0.00523
2023.15725	0.00571
2021.22860	0.00599
2019.29994	0.00593
2017.37129	0.00593
2015.44264	0.00609
2013.51398	0.00594
2011.58533	0.00567
2009.65668	0.00582
2007.72802	0.00619
2005.79937	0.00629
2003.87072	0.00636
2001.94206	0.00678
2000.01341	0.00715
1998.08476	0.00703
1996.15610	0.00683
1994.22745	0.00686
1992.29880	0.00685
1990.37014	0.00683
1988.44149	0.00703
1986.51284	0.00725
1984.58418	0.00735
1982.65553	0.00733
1980.72688	0.00702
1978.79822	0.00633
1976.86957	0.00561
1974.94092	0.00540
1973.01226	0.00569
1971.08361	0.00596
1969.15496	0.00604
1967.22631	0.00623
1965.29765	0.00677
1963.36900	0.00735
1961.44035	0.00758
1959.51169	0.00749
1957.58304	0.00739
1955.65439	0.00743
1953.72573	0.00750
1951.79708	0.00755
1949.86843	0.00777
1947.93977	0.00819
1946.01112	0.00857
1944.08247	0.00876
1942.15381	0.00884
1940.22516	0.00899
1938.29651	0.00912
1936.36785	0.00917
1934.43920	0.00927
1932.51055	0.00938
1930.58189	0.00946
1928.65324	0.00971
1926.72459	0.01003
1924.79593	0.01009
1922.86728	0.01002
1920.93863	0.01010
1919.00997	0.01019
1917.08132	0.01010
1915.15267	0.01000
1913.22401	0.01002
1911.29536	0.01010
1909.36671	0.01021
1907.43805	0.01038
1905.50940	0.01049
1903.58075	0.01053
1901.65209	0.01054
1899.72344	0.01059
1897.79479	0.01070
1895.86614	0.01081
1893.93748	0.01091
1892.00883	0.01096
1890.08018	0.01098
1888.15152	0.01099
1886.22287	0.01096
1884.29422	0.01091
1882.36556	0.01088
1880.43691	0.01081
1878.50826	0.01081
1876.57960	0.01091
1874.65095	0.01101
1872.72230	0.01110
1870.79364	0.01128
1868.86499	0.01150
1866.93634	0.01157
1865.00768	0.01148
1863.07903	0.01139
1861.15038	0.01141
1859.22172	0.01145
1857.29307	0.01138
1855.36442	0.01130
1853.43576	0.01138
1851.50711	0.01159
1849.57846	0.01175
1847.64980	0.01179
1845.72115	0.01179
1843.79250	0.01182
1841.86384	0.01187
1839.93519	0.01186
1838.00654	0.01182
1836.07788	0.01182
1834.14923	0.01183
1832.22058	0.01182
1830.29192	0.01187
1828.36327	0.01199
1826.43462	0.01207
1824.50597	0.01206
1822.57731	0.01204
1820.64866	0.01200
1818.72001	0.01200
1816.79135	0.01213
1814.86270	0.01235
1812.93405	0.01248
1811.00539	0.01248
1809.07674	0.01245
1807.14809	0.01247
1805.21943	0.01248
1803.29078	0.01245
1801.36213	0.01241
1799.43347	0.01245
1797.50482	0.01256
1795.57617	0.01266
1793.64751	0.01273
1791.71886	0.01278
1789.79021	0.01273
1787.86155	0.01264
1785.93290	0.01261
1784.00425	0.01264
1782.07559	0.01266
1780.14694	0.01268
1778.21829	0.01271
1776.28963	0.01273
1774.36098	0.01275
1772.43233	0.01280
1770.50367	0.01283
1768.57502	0.01287
1766.64637	0.01295
1764.71771	0.01302
1762.78906	0.01310
1760.86041	0.01324
1758.93176	0.01340
1757.00310	0.01359
1755.07445	0.01382
1753.14580	0.01409
1751.21714	0.01442
1749.28849	0.01476
1747.35984	0.01508
1745.43118	0.01544
1743.50253	0.01593
1741.57388	0.01647
1739.64522	0.01700
1737.71657	0.01750
1735.78792	0.01802
1733.85926	0.01862
1731.93061	0.01924
1730.00196	0.01983
1728.07330	0.02042
1726.14465	0.02104
1724.21600	0.02168
1722.28734	0.02239
1720.35869	0.02313
1718.43004	0.02392
1716.50138	0.02487
1714.57273	0.02593
1712.64408	0.02699
1710.71542	0.02807
1708.78677	0.02915
1706.85812	0.03020
1704.92946	0.03131
1703.00081	0.03260
1701.07216	0.03415
1699.14350	0.03590
1697.21485	0.03780
1695.28620	0.03990
1693.35754	0.04221
1691.42889	0.04463
1689.50024	0.04709
1687.57159	0.04965
1685.64293	0.05237
1683.71428	0.05535
1681.78563	0.05856
1679.85697	0.06196
1677.92832	0.06555
1675.99967	0.06937
1674.07101	0.07337
1672.14236	0.07748
1670.21371	0.08170
1668.28505	0.08598
1666.35640	0.09019
1664.42775	0.09428
1662.49909	0.09825
1660.57044	0.10197
1658.64179	0.10532
1656.71313	0.10824
1654.78448	0.11079
1652.85583	0.11316
1650.92717	0.11527
1648.99852	0.11699
1647.06987	0.11852
1645.14121	0.12004
1643.21256	0.12146
1641.28391	0.12270
1639.35525	0.12379
1637.42660	0.12476
1635.49795	0.12563
1633.56929	0.12633
1631.64064	0.12663
1629.71199	0.12636
1627.78333	0.12543
1625.85468	0.12382
1623.92603	0.12153
1621.99738	0.11861
1620.06872	0.11518
1618.14007	0.11144
1616.21142	0.10751
1614.28276	0.10340
1612.35411	0.09908
1610.42546	0.09467
1608.49680	0.09033
1606.56815	0.08616
1604.63950	0.08219
1602.71084	0.07845
1600.78219	0.07496
1598.85354	0.07179
1596.92488	0.06899
1594.99623	0.06656
1593.06758	0.06451
1591.13892	0.06286
1589.21027	0.06154
1587.28162	0.06050
1585.35296	0.05980
1583.42431	0.05952
1581.49566	0.05967
1579.56700	0.06016
1577.63835	0.06101
1575.70970	0.06230
1573.78104	0.06398
1571.85239	0.06590
1569.92374	0.06809
1567.99508	0.07061
1566.06643	0.07333
1564.13778	0.07613
1562.20912	0.07893
1560.28047	0.08174
1558.35182	0.08462
1556.42316	0.08741
1554.49451	0.08989
1552.56586	0.09204
1550.63721	0.09399
1548.70855	0.09573
1546.77990	0.09710
1544.85125	0.09808
1542.92259	0.09875
1540.99394	0.09922
1539.06529	0.09953
1537.13663	0.09959
1535.20798	0.09934
1533.27933	0.09882
1531.35067	0.09810
1529.42202	0.09725
1527.49337	0.09626
1525.56471	0.09512
1523.63606	0.09383
1521.70741	0.09244
1519.77875	0.09097
1517.85010	0.08935
1515.92145	0.08747
1513.99279	0.08530
1512.06414	0.08291
1510.13549	0.08035
1508.20683	0.07762
1506.27818	0.07483
1504.34953	0.07210
1502.42087	0.06946
1500.49222	0.06688
1498.56357	0.06439
1496.63491	0.06203
1494.70626	0.05980
1492.77761	0.05774
1490.84895	0.05586
1488.92030	0.05427
1486.99165	0.05312
1485.06299	0.05246
1483.13434	0.05218
1481.20569	0.05220
1479.27704	0.05256
1477.34838	0.05327
1475.41973	0.05437
1473.49108	0.05589
1471.56242	0.05777
1469.63377	0.05981
1467.70512	0.06179
1465.77646	0.06365
1463.84781	0.06544
1461.91916	0.06717
1459.99050	0.06887
1458.06185	0.07061
1456.13320	0.07232
1454.20454	0.07376
1452.27589	0.07475
1450.34724	0.07528
1448.41858	0.07538
1446.48993	0.07512
1444.56128	0.07455
1442.63262	0.07376
1440.70397	0.07287
1438.77532	0.07190
1436.84666	0.07075
1434.91801	0.06944
1432.98936	0.06808
1431.06070	0.06676
1429.13205	0.06562
1427.20340	0.06471
1425.27474	0.06400
1423.34609	0.06348
1421.41744	0.06318
1419.48878	0.06310
1417.56013	0.06325
1415.63148	0.06352
1413.70283	0.06377
1411.77417	0.06397
1409.84552	0.06413
1407.91687	0.06415
1405.98821	0.06396
1404.05956	0.06355
1402.13091	0.06297
1400.20225	0.06225
1398.27360	0.06150
1396.34495	0.06080
1394.41629	0.06016
1392.48764	0.05960
1390.55899	0.05917
1388.63033	0.05889
1386.70168	0.05872
1384.77303	0.05862
1382.84437	0.05850
1380.91572	0.05839
1378.98707	0.05829
1377.05841	0.05807
1375.12976	0.05765
1373.20111	0.05717
1371.27245	0.05669
1369.34380	0.05613
1367.41515	0.05544
1365.48649	0.05472
1363.55784	0.05404
1361.62919	0.05352
1359.70053	0.05330
1357.77188	0.05339
1355.84323	0.05365
1353.91457	0.05410
1351.98592	0.05483
1350.05727	0.05581
1348.12861	0.05689
1346.19996	0.05801
1344.27131	0.05919
1342.34266	0.06035
1340.41400	0.06132
1338.48535	0.06199
1336.55670	0.06233
1334.62804	0.06233
1332.69939	0.06200
1330.77074	0.06142
1328.84208	0.06071
1326.91343	0.05992
1324.98478	0.05913
1323.05612	0.05847
1321.12747	0.05802
1319.19882	0.05772
1317.27016	0.05750
1315.34151	0.05731
1313.41286	0.05712
1311.48420	0.05695
1309.55555	0.05679
1307.62690	0.05663
1305.69824	0.05649
1303.76959	0.05642
1301.84094	0.05642
1299.91228	0.05648
1297.98363	0.05661
1296.05498	0.05684
1294.12632	0.05721
1292.19767	0.05781
1290.26902	0.05860
1288.34036	0.05943
1286.41171	0.06019
1284.48306	0.06093
1282.55440	0.06166
1280.62575	0.06227
1278.69710	0.06261
1276.76845	0.06276
1274.83979	0.06294
1272.91114	0.06322
1270.98249	0.06354
1269.05383	0.06394
1267.12518	0.06451
1265.19653	0.06520
1263.26787	0.06596
1261.33922	0.06675
1259.41057	0.06760
1257.48191	0.06855
1255.55326	0.06958
1253.62461	0.07076
1251.69595	0.07212
1249.76730	0.07358
1247.83865	0.07508
1245.90999	0.07657
1243.98134	0.07800
1242.05269	0.07941
1240.12403	0.08069
1238.19538	0.08168
1236.26673	0.08232
1234.33807	0.08267
1232.40942	0.08272
1230.48077	0.08239
1228.55211	0.08167
1226.62346	0.08064
1224.69481	0.07935
1222.76615	0.07787
1220.83750	0.07638
1218.90885	0.07507
1216.98019	0.07403
1215.05154	0.07335
1213.12289	0.07311
1211.19423	0.07324
1209.26558	0.07362
1207.33693	0.07418
1205.40828	0.07476
1203.47962	0.07512
1201.55097	0.07516
1199.62232	0.07489
1197.69366	0.07428
1195.76501	0.07341
1193.83636	0.07244
1191.90770	0.07156
1189.97905	0.07081
1188.05040	0.07017
1186.12174	0.06966
1184.19309	0.06924
1182.26444	0.06896
1180.33578	0.06885
1178.40713	0.06889
1176.47848	0.06904
1174.54982	0.06933
1172.62117	0.06968
1170.69252	0.07009
1168.76386	0.07068
1166.83521	0.07132
1164.90656	0.07186
1162.97790	0.07231
1161.04925	0.07268
1159.12060	0.07285
1157.19194	0.07284
1155.26329	0.07275
1153.33464	0.07250
1151.40598	0.07208
1149.47733	0.07168
1147.54868	0.07134
1145.62002	0.07102
1143.69137	0.07074
1141.76272	0.07056
1139.83406	0.07048
1137.90541	0.07053
1135.97676	0.07075
1134.04811	0.07108
1132.11945	0.07141
1130.19080	0.07174
1128.26215	0.07206
1126.33349	0.07240
1124.40484	0.07276
1122.47619	0.07314
1120.54753	0.07361
1118.61888	0.07413
1116.69023	0.07459
1114.76157	0.07502
1112.83292	0.07557
1110.90427	0.07624
1108.97561	0.07692
1107.04696	0.07758
1105.11831	0.07816
1103.18965	0.07872
1101.26100	0.07940
1099.33235	0.08024
1097.40369	0.08113
1095.47504	0.08206
1093.54639	0.08302
1091.61773	0.08400
1089.68908	0.08514
1087.76043	0.08651
1085.83177	0.08801
1083.90312	0.08943
1081.97447	0.09057
1080.04581	0.09127
1078.11716	0.09145
1076.18851	0.09124
1074.25985	0.09083
1072.33120	0.09030
1070.40255	0.08978
1068.47390	0.08939
1066.54524	0.08920
1064.61659	0.08908
1062.68794	0.08880
1060.75928	0.08832
1058.83063	0.08770
1056.90198	0.08701
1054.97332	0.08630
1053.04467	0.08558
1051.11602	0.08478
1049.18736	0.08393
1047.25871	0.08312
1045.33006	0.08240
1043.40140	0.08178
1041.47275	0.08131
1039.54410	0.08115
1037.61544	0.08138
1035.68679	0.08183
1033.75814	0.08223
1031.82948	0.08240
1029.90083	0.08220
1027.97218	0.08163
1026.04352	0.08081
1024.11487	0.07991
1022.18622	0.07908
1020.25756	0.07838
1018.32891	0.07787
1016.40026	0.07756
1014.47160	0.07724
1012.54295	0.07679
1010.61430	0.07619
1008.68564	0.07555
1006.75699	0.07498
1004.82834	0.07443
1002.89968	0.07377
1000.97103	0.07299
999.04238	0.07203
997.11373	0.07095
995.18507	0.06995
993.25642	0.06912
991.32777	0.06833
989.39911	0.06749
987.47046	0.06671
985.54181	0.06615
983.61315	0.06578
981.68450	0.06551
979.75585	0.06535
977.82719	0.06530
975.89854	0.06531
973.96989	0.06538
972.04123	0.06538
970.11258	0.06520
968.18393	0.06492
966.25527	0.06475
964.32662	0.06481
962.39797	0.06498
960.46931	0.06505
958.54066	0.06503
956.61201	0.06502
954.68335	0.06500
952.75470	0.06493
950.82605	0.06486
948.89739	0.06486
946.96874	0.06488
945.04009	0.06486
943.11143	0.06484
941.18278	0.06477
939.25413	0.06463
937.32547	0.06445
935.39682	0.06418
933.46817	0.06371
931.53952	0.06303
929.61086	0.06227
927.68221	0.06161
925.75356	0.06116
923.82490	0.06088
921.89625	0.06058
919.96760	0.06017
918.03894	0.05968
916.11029	0.05902
914.18164	0.05816
912.25298	0.05743
910.32433	0.05707
908.39568	0.05684
906.46702	0.05657
904.53837	0.05642
902.60972	0.05633
900.68106	0.05614
898.75241	0.05596
896.82376	0.05595
894.89510	0.05603
892.96645	0.05605
891.03780	0.05597
889.10914	0.05592
887.18049	0.05607
885.25184	0.05646
883.32318	0.05706
881.39453	0.05759
879.46588	0.05785
877.53722	0.05796
875.60857	0.05812
873.67992	0.05824
871.75126	0.05824
869.82261	0.05818
867.89396	0.05810
865.96530	0.05791
864.03665	0.05750
862.10800	0.05705
860.17935	0.05675
858.25069	0.05649
856.32204	0.05622
854.39339	0.05605
852.46473	0.05587
850.53608	0.05546
848.60743	0.05480
846.67877	0.05407
844.75012	0.05346
842.82147	0.05304
840.89281	0.05263
838.96416	0.05218
837.03551	0.05183
835.10685	0.05159
833.17820	0.05145
831.24955	0.05147
829.32089	0.05154
827.39224	0.05148
825.46359	0.05142
823.53493	0.05161
821.60628	0.05197
819.67763	0.05234
817.74897	0.05264
815.82032	0.05282
813.89167	0.05300
811.96301	0.05327
810.03436	0.05350
808.10571	0.05360
806.17705	0.05370
804.24840	0.05399
802.31975	0.05442
800.39109	0.05476
798.46244	0.05501
796.53379	0.05534
794.60513	0.05567
792.67648	0.05585
790.74783	0.05605
788.81918	0.05643
786.89052	0.05687
784.96187	0.05725
783.03322	0.05754
781.10456	0.05778
779.17591	0.05804
777.24726	0.05821
775.31860	0.05822
773.38995	0.05832
771.46130	0.05860
769.53264	0.05887
767.60399	0.05926
765.67534	0.05982
763.74668	0.06032
761.81803	0.06081
759.88938	0.06139
757.96072	0.06197
756.03207	0.06252
754.10342	0.06316
752.17476	0.06390
750.24611	0.06454
748.31746	0.06507
746.38880	0.06557
744.46015	0.06592
742.53150	0.06624
740.60284	0.06694
738.67419	0.06799
736.74554	0.06882
734.81688	0.06917
732.88823	0.06964
730.95958	0.07069
729.03092	0.07189
727.10227	0.07286
725.17362	0.07379
723.24497	0.07454
721.31631	0.07551
719.38766	0.07623
717.45901	0.07673
715.53035	0.07720
713.60170	0.07760
711.67305	0.07807
709.74439	0.07879
707.81574	0.07968
705.88709	0.08044
703.95843	0.08105
702.02978	0.08162
700.10113	0.08219
698.17247	0.08270
696.24382	0.08325
694.31517	0.08389
692.38651	0.08457
690.45786	0.08518
688.52921	0.08565
686.60055	0.08594
684.67190	0.08621
682.74325	0.08673
680.81459	0.08752
678.88594	0.08829
676.95729	0.08890
675.02863	0.08948
673.09998	0.09012
671.17133	0.09080
669.24267	0.09155
667.31402	0.09234
665.38537	0.09301
663.45671	0.09353
661.52806	0.09402
659.59941	0.09454
657.67075	0.09503
655.74210	0.09555
653.81345	0.09612
651.88480	0.09662
649.95614	0.09703
648.02749	0.09744
646.09884	0.09783
644.17018	0.09823
642.24153	0.09861
640.31288	0.09898
638.38422	0.09942
636.45557	0.09989
634.52692	0.10035
632.59826	0.10081
630.66961	0.10142
628.74096	0.10227
626.81230	0.10101
624.88365	0.09923
622.95500	0.09815
621.02634	0.09796
619.09769	0.09893
617.16904	0.10129
615.24038	0.10368
613.31173	0.10489
611.38308	0.10500
609.45442	0.10451
607.52577	0.10416
605.59712	0.10400
603.66846	0.10432
601.73981	0.10618
599.81116	0.10877
597.88250	0.11081
595.95385	0.11221
594.02520	0.11309
592.09654	0.11372
590.16789	0.11456
588.23924	0.11551
586.31059	0.11645
584.38193	0.11753
582.45328	0.11857
580.52463	0.11941
578.59597	0.12022
576.66732	0.12117
574.73867	0.12231
572.81001	0.12353
570.88136	0.12451
568.95271	0.12519
567.02405	0.12586
565.09540	0.12686
563.16675	0.12805
561.23809	0.12896
559.30944	0.12975
557.38079	0.13101
555.45213	0.13232
553.52348	0.13285
551.59483	0.13308
549.66617	0.13370
547.73752	0.13435
545.80887	0.13484
543.88021	0.13535
541.95156	0.13587
540.02291	0.13656
538.09425	0.13767
536.16560	0.13904
534.23695	0.14035
532.30829	0.14145
530.37964	0.14240
528.45099	0.14325
526.52233	0.14361
524.59368	0.14335
522.66503	0.14302
520.73637	0.14288
518.80772	0.14274
516.87907	0.14260
514.95042	0.14245
513.02176	0.14209
511.09311	0.14161
509.16446	0.14124
507.23580	0.14104
505.30715	0.14057
503.37850	0.13954
501.44984	0.13854
499.52119	0.13783
497.59254	0.13698
495.66388	0.13602
493.73523	0.13505
491.80658	0.13387
489.87792	0.13270
487.94927	0.13182
486.02062	0.13114
484.09196	0.13052
482.16331	0.12994
480.23466	0.12973
478.30600	0.13008
476.37735	0.13035
474.44870	0.13001
472.52004	0.12937
470.59139	0.12907
468.66274	0.12924
466.73408	0.12939
464.80543	0.12917
462.87678	0.12865
460.94812	0.12804
459.01947	0.12744
457.09082	0.12696
455.16216	0.12654
453.23351	0.12592
451.30486	0.12507
449.37620	0.12413
447.44755	0.12328
445.51890	0.12276
443.59025	0.12249
441.66159	0.12198
439.73294	0.12122
437.80429	0.12080
435.87563	0.12092
433.94698	0.12102
432.01833	0.12073
430.08967	0.12020
428.16102	0.11961
426.23237	0.11912
424.30371	0.11869
422.37506	0.11819
420.44641	0.11772
418.51775	0.11742
416.58910	0.11726
414.66045	0.11701
412.73179	0.11648
410.80314	0.11587
408.87449	0.11544
406.94583	0.11516
405.01718	0.11511
403.08853	0.11538
401.15987	0.11566
399.23122	0.11552
