3996.16951	0.04936
3994.24086	0.04986
3992.31221	0.05021
3990.38355	0.04985
3988.45490	0.04944
3986.52625	0.04962
3984.59759	0.04985
3982.66894	0.04951
3980.74029	0.04900
3978.81163	0.04915
3976.88298	0.04971
3974.95433	0.04955
3973.02567	0.04884
3971.09702	0.04855
3969.16837	0.04864
3967.23972	0.04849
3965.31106	0.04814
3963.38241	0.04798
3961.45376	0.04801
3959.52510	0.04812
3957.59645	0.04829
3955.66780	0.04826
3953.73914	0.04781
3951.81049	0.04726
3949.88184	0.04720
3947.95318	0.04759
3946.02453	0.04798
3944.09588	0.04820
3942.16722	0.04823
3940.23857	0.04812
3938.30992	0.04810
3936.38126	0.04811
3934.45261	0.04785
3932.52396	0.04721
3930.59530	0.04668
3928.66665	0.04664
3926.73800	0.04660
3924.80934	0.04644
3922.88069	0.04644
3920.95204	0.04642
3919.02338	0.04644
3917.09473	0.04668
3915.16608	0.04698
3913.23742	0.04735
3911.30877	0.04753
3909.38012	0.04715
3907.45146	0.04661
3905.52281	0.04648
3903.59416	0.04653
3901.66550	0.04642
3899.73685	0.04640
3897.80820	0.04643
3895.87955	0.04630
3893.95089	0.04605
3892.02224	0.04583
3890.09359	0.04587
3888.16493	0.04616
3886.23628	0.04620
3884.30763	0.04584
3882.37897	0.04555
3880.45032	0.04539
3878.52167	0.04489
3876.59301	0.04437
3874.66436	0.04467
3872.73571	0.04542
3870.80705	0.04576
3868.87840	0.04581
3866.94975	0.04599
3865.02109	0.04599
3863.09244	0.04564
3861.16379	0.04526
3859.23513	0.04500
3857.30648	0.04508
3855.37783	0.04556
3853.44917	0.04578
3851.52052	0.04542
3849.59187	0.04508
3847.66321	0.04502
3845.73456	0.04461
3843.80591	0.04375
3841.87725	0.04331
3839.94860	0.04365
3838.01995	0.04406
3836.09129	0.04416
3834.16264	0.04430
3832.23399	0.04449
3830.30534	0.04437
3828.37668	0.04405
3826.44803	0.04370
3824.51938	0.04344
3822.59072	0.04359
3820.66207	0.04389
3818.73342	0.04382
3816.80476	0.04337
3814.87611	0.04288
3812.94746	0.04285
3811.01880	0.04356
3809.09015	0.04443
3807.16150	0.04461
3805.23284	0.04422
3803.30419	0.04398
3801.37554	0.04385
3799.44688	0.04338
3797.51823	0.04275
3795.58958	0.04241
3793.66092	0.04238
3791.73227	0.04237
3789.80362	0.04210
3787.87496	0.04170
3785.94631	0.04154
3784.01766	0.04148
3782.08900	0.04131
3780.16035	0.04118
3778.23170	0.04124
3776.30304	0.04148
3774.37439	0.04193
3772.44574	0.04244
3770.51708	0.04243
3768.58843	0.04186
3766.65978	0.04147
3764.73112	0.04153
3762.80247	0.04166
3760.87382	0.04168
3758.94517	0.04163
3757.01651	0.04146
3755.08786	0.04133
3753.15921	0.04144
3751.23055	0.04152
3749.30190	0.04130
3747.37325	0.04109
3745.44459	0.04122
3743.51594	0.04132
3741.58729	0.04112
3739.65863	0.04103
3737.72998	0.04121
3735.80133	0.04124
3733.87267	0.04091
3731.94402	0.04041
3730.01537	0.03994
3728.08671	0.03961
3726.15806	0.03943
3724.22941	0.03941
3722.30075	0.03960
3720.37210	0.03970
3718.44345	0.03953
3716.51479	0.03977
3714.58614	0.04048
3712.65749	0.04053
3710.72883	0.03977
3708.80018	0.03932
3706.87153	0.03936
3704.94287	0.03923
3703.01422	0.03895
3701.08557	0.03893
3699.15691	0.03899
3697.22826	0.03877
3695.29961	0.03845
3693.37095	0.03841
3691.44230	0.03885
3689.51365	0.03957
3687.58500	0.04009
3685.65634	0.04017
3683.72769	0.03992
3681.79904	0.03976
3679.87038	0.03978
3677.94173	0.03968
3676.01308	0.03940
3674.08442	0.03921
3672.15577	0.03943
3670.22712	0.04001
3668.29846	0.04047
3666.36981	0.04077
3664.44116	0.04127
3662.51250	0.04184
3660.58385	0.04233
3658.65520	0.04293
3656.72654	0.04356
3654.79789	0.04399
3652.86924	0.04450
3650.94058	0.04530
3649.01193	0.04592
3647.08328	0.04630
3645.15462	0.04692
3643.22597	0.04751
3641.29732	0.04754
3639.36866	0.04736
3637.44001	0.04753
3635.51136	0.04794
3633.58270	0.04852
3631.65405	0.04959
3629.72540	0.05092
3627.79674	0.05182
3625.86809	0.05194
3623.93944	0.05194
3622.01079	0.05267
3620.08213	0.05391
3618.15348	0.05463
3616.22483	0.05495
3614.29617	0.05562
3612.36752	0.05653
3610.43887	0.05735
3608.51021	0.05817
3606.58156	0.05887
3604.65291	0.05928
3602.72425	0.05993
3600.79560	0.06114
3598.86695	0.06221
3596.93829	0.06275
3595.00964	0.06326
3593.08099	0.06398
3591.15233	0.06470
3589.22368	0.06537
3587.29503	0.06605
3585.36637	0.06698
3583.43772	0.06822
3581.50907	0.06941
3579.58041	0.07039
3577.65176	0.07137
3575.72311	0.07238
3573.79445	0.07333
3571.86580	0.07412
3569.93715	0.07477
3568.00849	0.07556
3566.07984	0.07670
3564.15119	0.07795
3562.22253	0.07889
3560.29388	0.07957
3558.36523	0.08055
3556.43657	0.08210
3554.50792	0.08361
3552.57927	0.08444
3550.65062	0.08476
3548.72196	0.08540
3546.79331	0.08679
3544.86466	0.08852
3542.93600	0.09017
3541.00735	0.09163
3539.07870	0.09264
3537.15004	0.09312
3535.22139	0.09363
3533.29274	0.09460
3531.36408	0.09570
3529.43543	0.09654
3527.50678	0.09718
3525.57812	0.09783
3523.64947	0.09860
3521.72082	0.09942
3519.79216	0.10018
3517.86351	0.10077
3515.93486	0.10135
3514.00620	0.10213
3512.07755	0.10326
3510.14890	0.10465
3508.22024	0.10579
3506.29159	0.10644
3504.36294	0.10696
3502.43428	0.10787
3500.50563	0.10926
3498.57698	0.11046
3496.64832	0.11088
3494.71967	0.11109
3492.79102	0.11196
3490.86236	0.11323
3488.93371	0.11410
3487.00506	0.11448
3485.07641	0.11473
3483.14775	0.11501
3481.21910	0.11538
3479.29045	0.11598
3477.36179	0.11682
3475.43314	0.11790
3473.50449	0.11908
3471.57583	0.11990
3469.64718	0.12035
3467.71853	0.12102
3465.78987	0.12192
3463.86122	0.12256
3461.93257	0.12288
3460.00391	0.12318
3458.07526	0.12373
3456.14661	0.12448
3454.21795	0.12523
3452.28930	0.12594
3450.36065	0.12666
3448.43199	0.12742
3446.50334	0.12817
3444.57469	0.12878
3442.64603	0.12923
3440.71738	0.12968
3438.78873	0.13032
3436.86007	0.13120
3434.93142	0.13231
3433.00277	0.13343
3431.07411	0.13430
3429.14546	0.13487
3427.21681	0.13538
3425.28815	0.13597
3423.35950	0.13659
3421.43085	0.13713
3419.50219	0.13743
3417.57354	0.13784
3415.64489	0.13881
3413.71624	0.13990
3411.78758	0.14068
3409.85893	0.14140
3407.93028	0.14221
3406.00162	0.14290
3404.07297	0.14314
3402.14432	0.14306
3400.21566	0.14330
3398.28701	0.14414
3396.35836	0.14518
3394.42970	0.14592
3392.50105	0.14638
3390.57240	0.14693
3388.64374	0.14762
3386.71509	0.14827
3384.78644	0.14880
3382.85778	0.14924
3380.92913	0.14988
3379.00048	0.15097
3377.07182	0.15215
3375.14317	0.15322
3373.21452	0.15418
3371.28586	0.15483
3369.35721	0.15540
3367.42856	0.15642
3365.49990	0.15785
3363.57125	0.15928
3361.64260	0.16053
3359.71394	0.16178
3357.78529	0.16320
3355.85664	0.16463
3353.92798	0.16601
3351.99933	0.16744
3350.07068	0.16897
3348.14202	0.17062
3346.21337	0.17216
3344.28472	0.17319
3342.35607	0.17385
3340.42741	0.17488
3338.49876	0.17650
3336.57011	0.17826
3334.64145	0.17973
3332.71280	0.18068
3330.78415	0.18131
3328.85549	0.18217
3326.92684	0.18324
3324.99819	0.18427
3323.06953	0.18532
3321.14088	0.18626
3319.21223	0.18680
3317.28357	0.18725
3315.35492	0.18812
3313.42627	0.18909
3311.49761	0.18963
3309.56896	0.18988
3307.64031	0.19033
3305.71165	0.19115
3303.78300	0.19191
3301.85435	0.19216
3299.92569	0.19208
3297.99704	0.19214
3296.06839	0.19239
3294.13973	0.19256
3292.21108	0.19267
3290.28243	0.19267
3288.35377	0.19262
3286.42512	0.19272
3284.49647	0.19278
3282.56781	0.19252
3280.63916	0.19205
3278.71051	0.19159
3276.78186	0.19116
3274.85320	0.19052
3272.92455	0.18959
3270.99590	0.18861
3269.06724	0.18791
3267.13859	0.18748
3265.20994	0.18693
3263.28128	0.18616
3261.35263	0.18559
3259.42398	0.18532
3257.49532	0.18478
3255.56667	0.18388
3253.63802	0.18296
3251.70936	0.18189
3249.78071	0.18046
3247.85206	0.17905
3245.92340	0.17801
3243.99475	0.17740
3242.06610	0.17714
3240.13744	0.17689
3238.20879	0.17657
3236.28014	0.17659
3234.35148	0.17672
3232.42283	0.17620
3230.49418	0.17508
3228.56552	0.17395
3226.63687	0.17316
3224.70822	0.17270
3222.77956	0.17235
3220.85091	0.17199
3218.92226	0.17153
3216.99360	0.17085
3215.06495	0.16996
3213.13630	0.16913
3211.20764	0.16863
3209.27899	0.16837
3207.35034	0.16791
3205.42169	0.16707
3203.49303	0.16584
3201.56438	0.16466
3199.63573	0.16406
3197.70707	0.16367
3195.77842	0.16289
3193.84977	0.16194
3191.92111	0.16105
3189.99246	0.16017
3188.06381	0.15929
3186.13515	0.15825
3184.20650	0.15706
3182.27785	0.15602
3180.34919	0.15526
3178.42054	0.15449
3176.49189	0.15334
3174.56323	0.15190
3172.63458	0.15062
3170.70593	0.14957
3168.77727	0.14849
3166.84862	0.14731
3164.91997	0.14619
3162.99131	0.14521
3161.06266	0.14434
3159.13401	0.14333
3157.20535	0.14218
3155.27670	0.14120
3153.34805	0.14029
3151.41939	0.13914
3149.49074	0.13788
3147.56209	0.13671
3145.63343	0.13561
3143.70478	0.13467
3141.77613	0.13403
3139.84748	0.13342
3137.91882	0.13266
3135.99017	0.13189
3134.06152	0.13107
3132.13286	0.13018
3130.20421	0.12946
3128.27556	0.12888
3126.34690	0.12820
3124.41825	0.12759
3122.48960	0.12720
3120.56094	0.12687
3118.63229	0.12661
3116.70364	0.12655
3114.77498	0.12651
3112.84633	0.12619
3110.91768	0.12572
3108.98902	0.12558
3107.06037	0.12585
3105.13172	0.12625
3103.20306	0.12664
3101.27441	0.12703
3099.34576	0.12734
3097.41710	0.12754
3095.48845	0.12781
3093.55980	0.12811
3091.63114	0.12831
3089.70249	0.12851
3087.77384	0.12893
3085.84518	0.12951
3083.91653	0.12998
3081.98788	0.13030
3080.05922	0.13061
3078.13057	0.13080
3076.20192	0.13074
3074.27326	0.13048
3072.34461	0.13011
3070.41596	0.12993
3068.48731	0.12996
3066.55865	0.12972
3064.63000	0.12901
3062.70135	0.12831
3060.77269	0.12777
3058.84404	0.12711
3056.91539	0.12625
3054.98673	0.12547
3053.05808	0.12488
3051.12943	0.12419
3049.20077	0.12317
3047.27212	0.12209
3045.34347	0.12121
3043.41481	0.12038
3041.48616	0.11928
3039.55751	0.11799
3037.62885	0.11690
3035.70020	0.11598
3033.77155	0.11486
3031.84289	0.11370
3029.91424	0.11286
3027.98559	0.11220
3026.05693	0.11147
3024.12828	0.11058
3022.19963	0.10951
3020.27097	0.10845
3018.34232	0.10764
3016.41367	0.10706
3014.48501	0.10673
3012.55636	0.10655
3010.62771	0.10616
3008.69905	0.10559
3006.77040	0.10520
3004.84175	0.10498
3002.91309	0.10487
3000.98444	0.10487
2999.05579	0.10504
2997.12714	0.10537
2995.19848	0.10572
2993.26983	0.10614
2991.34118	0.10685
2989.41252	0.10772
2987.48387	0.10832
2985.55522	0.10877
2983.62656	0.10946
2981.69791	0.11013
2979.76926	0.11044
2977.84060	0.11056
2975.91195	0.11086
2973.98330	0.11142
2972.05464	0.11199
2970.12599	0.11249
2968.19734	0.11297
2966.26868	0.11335
2964.34003	0.11364
2962.41138	0.11400
2960.48272	0.11445
2958.55407	0.11491
2956.62542	0.11536
2954.69676	0.11576
2952.76811	0.11598
2950.83946	0.11590
2948.91080	0.11563
2946.98215	0.11542
2945.05350	0.11534
2943.12484	0.11539
2941.19619	0.11561
2939.26754	0.11584
2937.33888	0.11598
2935.41023	0.11593
2933.48158	0.11570
2931.55293	0.11542
2929.62427	0.11509
2927.69562	0.11469
2925.76697	0.11412
2923.83831	0.11338
2921.90966	0.11256
2919.98101	0.11152
2918.05235	0.11036
2916.12370	0.10939
2914.19505	0.10858
2912.26639	0.10765
2910.33774	0.10650
2908.40909	0.10533
2906.48043	0.10443
2904.55178	0.10369
2902.62313	0.10280
2900.69447	0.10178
2898.76582	0.10089
2896.83717	0.10025
2894.90851	0.09991
2892.97986	0.09974
2891.05121	0.09957
2889.12255	0.09951
2887.19390	0.09959
2885.26525	0.09972
2883.33659	0.09993
2881.40794	0.10020
2879.47929	0.10033
2877.55063	0.10012
2875.62198	0.09966
2873.69333	0.09913
2871.76467	0.09864
2869.83602	0.09808
2867.90737	0.09714
2865.97871	0.09594
2864.05006	0.09474
2862.12141	0.09346
2860.19276	0.09210
2858.26410	0.09101
2856.33545	0.09035
2854.40680	0.08979
2852.47814	0.08906
2850.54949	0.08827
2848.62084	0.08771
2846.69218	0.08734
2844.76353	0.08685
2842.83488	0.08624
2840.90622	0.08576
2838.97757	0.08552
2837.04892	0.08526
2835.12026	0.08475
2833.19161	0.08420
2831.26296	0.08375
2829.33430	0.08329
2827.40565	0.08285
2825.47700	0.08248
2823.54834	0.08203
2821.61969	0.08143
2819.69104	0.08094
2817.76238	0.08067
2815.83373	0.08031
2813.90508	0.07965
2811.97642	0.07911
2810.04777	0.07903
2808.11912	0.07907
2806.19046	0.07883
2804.26181	0.07837
2802.33316	0.07799
2800.40450	0.07778
2798.47585	0.07760
2796.54720	0.07732
2794.61855	0.07691
2792.68989	0.07644
2790.76124	0.07596
2788.83259	0.07570
2786.90393	0.07562
2784.97528	0.07532
2783.04663	0.07478
2781.11797	0.07432
2779.18932	0.07407
2777.26067	0.07397
2775.33201	0.07386
2773.40336	0.07352
2771.47471	0.07298
2769.54605	0.07253
2767.61740	0.07222
2765.68875	0.07196
2763.76009	0.07181
2761.83144	0.07174
2759.90279	0.07150
2757.97413	0.07095
2756.04548	0.07025
2754.11683	0.06980
2752.18817	0.06968
2750.25952	0.06956
2748.33087	0.06933
2746.40221	0.06913
2744.47356	0.06884
2742.54491	0.06849
2740.61625	0.06823
2738.68760	0.06801
2736.75895	0.06771
2734.83029	0.06736
2732.90164	0.06705
2730.97299	0.06675
2729.04433	0.06633
2727.11568	0.06590
2725.18703	0.06565
2723.25838	0.06554
2721.32972	0.06545
2719.40107	0.06529
2717.47242	0.06498
2715.54376	0.06461
2713.61511	0.06424
2711.68646	0.06386
2709.75780	0.06358
2707.82915	0.06351
2705.90050	0.06357
2703.97184	0.06359
2702.04319	0.06341
2700.11454	0.06308
2698.18588	0.06275
2696.25723	0.06249
2694.32858	0.06233
2692.39992	0.06214
2690.47127	0.06187
2688.54262	0.06162
2686.61396	0.06147
2684.68531	0.06145
2682.75666	0.06145
2680.82800	0.06123
2678.89935	0.06089
2676.97070	0.06075
2675.04204	0.06077
2673.11339	0.06078
2671.18474	0.06076
2669.25608	0.06072
2667.32743	0.06062
2665.39878	0.06041
2663.47012	0.06013
2661.54147	0.05999
2659.61282	0.06010
2657.68417	0.06030
2655.75551	0.06025
2653.82686	0.05983
2651.89821	0.05927
2649.96955	0.05883
2648.04090	0.05855
2646.11225	0.05844
2644.18359	0.05834
2642.25494	0.05788
2640.32629	0.05721
2638.39763	0.05685
2636.46898	0.05688
2634.54033	0.05692
2632.61167	0.05682
2630.68302	0.05662
2628.75437	0.05621
2626.82571	0.05565
2624.89706	0.05511
2622.96841	0.05459
2621.03975	0.05410
2619.11110	0.05382
2617.18245	0.05377
2615.25379	0.05381
2613.32514	0.05379
2611.39649	0.05357
2609.46783	0.05320
2607.53918	0.05289
2605.61053	0.05255
2603.68187	0.05219
2601.75322	0.05187
2599.82457	0.05141
2597.89591	0.05088
2595.96726	0.05053
2594.03861	0.05028
2592.10995	0.05003
2590.18130	0.04997
2588.25265	0.05014
2586.32400	0.05025
2584.39534	0.05009
2582.46669	0.04968
2580.53804	0.04921
2578.60938	0.04890
2576.68073	0.04889
2574.75208	0.04905
2572.82342	0.04923
2570.89477	0.04930
2568.96612	0.04904
2567.03746	0.04841
2565.10881	0.04769
2563.18016	0.04703
2561.25150	0.04650
2559.32285	0.04640
2557.39420	0.04670
2555.46554	0.04682
2553.53689	0.04654
2551.60824	0.04630
2549.67958	0.04626
2547.75093	0.04624
2545.82228	0.04629
2543.89362	0.04637
2541.96497	0.04617
2540.03632	0.04579
2538.10766	0.04565
2536.17901	0.04551
2534.25036	0.04516
2532.32170	0.04493
2530.39305	0.04480
2528.46440	0.04444
2526.53574	0.04412
2524.60709	0.04410
2522.67844	0.04406
2520.74978	0.04385
2518.82113	0.04370
2516.89248	0.04382
2514.96383	0.04420
2513.03517	0.04438
2511.10652	0.04395
2509.17787	0.04318
2507.24921	0.04255
2505.32056	0.04223
2503.39191	0.04217
2501.46325	0.04215
2499.53460	0.04218
2497.60595	0.04246
2495.67729	0.04264
2493.74864	0.04238
2491.81999	0.04192
2489.89133	0.04154
2487.96268	0.04144
2486.03403	0.04157
2484.10537	0.04156
2482.17672	0.04135
2480.24807	0.04121
2478.31941	0.04115
2476.39076	0.04122
2474.46211	0.04139
2472.53345	0.04134
2470.60480	0.04108
2468.67615	0.04097
2466.74749	0.04096
2464.81884	0.04069
2462.89019	0.04020
2460.96153	0.03980
2459.03288	0.03971
2457.10423	0.03993
2455.17557	0.04009
2453.24692	0.03999
2451.31827	0.03991
2449.38962	0.03976
2447.46096	0.03943
2445.53231	0.03931
2443.60366	0.03946
2441.67500	0.03950
2439.74635	0.03909
2437.81770	0.03851
2435.88904	0.03855
2433.96039	0.03910
2432.03174	0.03923
2430.10308	0.03888
2428.17443	0.03879
2426.24578	0.03913
2424.31712	0.03942
2422.38847	0.03944
2420.45982	0.03926
2418.53116	0.03898
2416.60251	0.03893
2414.67386	0.03928
2412.74520	0.03953
2410.81655	0.03928
2408.88790	0.03879
2406.95924	0.03848
2405.03059	0.03859
2403.10194	0.03887
2401.17328	0.03884
2399.24463	0.03826
2397.31598	0.03807
2395.38732	0.03819
2393.45867	0.03829
2391.53002	0.03827
2389.60136	0.03826
2387.67271	0.03837
2385.74406	0.03852
2383.81540	0.03875
2381.88675	0.03898
2379.95810	0.03904
2378.02945	0.03904
2376.10079	0.03913
2374.17214	0.03928
2372.24349	0.03945
2370.31483	0.03985
2368.38618	0.03944
2366.45753	0.03940
2364.52887	0.03934
2362.60022	0.03978
2360.67157	0.03920
2358.74291	0.04052
2356.81426	0.03966
2354.88561	0.03997
2352.95695	0.04014
2351.02830	0.03952
2349.09965	0.03960
2347.17099	0.03978
2345.24234	0.03959
2343.31369	0.03983
2341.38503	0.04084
2339.45638	0.04100
2337.52773	0.04032
2335.59907	0.03904
2333.67042	0.03781
2331.74177	0.03700
2329.81311	0.03642
2327.88446	0.03623
2325.95581	0.03701
2324.02715	0.03824
2322.09850	0.03909
2320.16985	0.03929
2318.24119	0.03931
2316.31254	0.03920
2314.38389	0.03891
2312.45524	0.03852
2310.52658	0.03812
2308.59793	0.03773
2306.66928	0.03746
2304.74062	0.03716
2302.81197	0.03660
2300.88332	0.03586
2298.95466	0.03509
2297.02601	0.03474
2295.09736	0.03505
2293.16870	0.03552
2291.24005	0.03548
2289.31140	0.03506
2287.38274	0.03465
2285.45409	0.03429
2283.52544	0.03400
2281.59678	0.03375
2279.66813	0.03344
2277.73948	0.03317
2275.81082	0.03297
2273.88217	0.03256
2271.95352	0.03202
2270.02486	0.03192
2268.09621	0.03221
2266.16756	0.03213
2264.23890	0.03131
2262.31025	0.03025
2260.38160	0.02959
2258.45294	0.02939
2256.52429	0.02945
2254.59564	0.02940
2252.66698	0.02888
2250.73833	0.02833
2248.80968	0.02882
2246.88102	0.02835
2244.95237	0.02797
2243.02372	0.02795
2241.09507	0.02824
2239.16641	0.02817
2237.23776	0.02719
2235.30911	0.02609
2233.38045	0.02571
2231.45180	0.02598
2229.52315	0.02651
2227.59449	0.02717
2225.66584	0.02751
2223.73719	0.02716
2221.80853	0.02652
2219.87988	0.02601
2217.95123	0.02577
2216.02257	0.02579
2214.09392	0.02570
2212.16527	0.02557
2210.23661	0.02576
2208.30796	0.02567
2206.37931	0.02483
2204.45065	0.02387
2202.52200	0.02369
2200.59335	0.02394
2198.66469	0.02334
2196.73604	0.02204
2194.80739	0.02146
2192.87873	0.02178
2190.95008	0.02216
2189.02143	0.02252
2187.09277	0.02293
2185.16412	0.02279
2183.23547	0.02214
2181.30681	0.02176
2179.37816	0.02149
2177.44951	0.02111
2175.52085	0.02141
2173.59220	0.02235
2171.66355	0.02285
2169.73490	0.02252
2167.80624	0.02166
2165.87759	0.02073
2163.94894	0.01952
2162.02028	0.01759
2160.09163	0.01613
2158.16298	0.01583
2156.23432	0.01571
2154.30567	0.01623
2152.37702	0.01775
2150.44836	0.01861
2148.51971	0.01873
2146.59106	0.01983
2144.66240	0.02155
2142.73375	0.02212
2140.80510	0.02168
2138.87644	0.02159
2136.94779	0.02201
2135.01914	0.02218
2133.09048	0.02214
2131.16183	0.02242
2129.23318	0.02312
2127.30452	0.02397
2125.37587	0.02442
2123.44722	0.02451
2121.51856	0.02496
2119.58991	0.02579
2117.66126	0.02633
2115.73260	0.02651
2113.80395	0.02678
2111.87530	0.02705
2109.94664	0.02681
2108.01799	0.02609
2106.08934	0.02520
2104.16069	0.02444
2102.23203	0.02412
2100.30338	0.02409
2098.37473	0.02408
2096.44607	0.02391
2094.51742	0.02377
2092.58877	0.02373
2090.66011	0.02369
2088.73146	0.02374
2086.80281	0.02378
2084.87415	0.02345
2082.94550	0.02311
2081.01685	0.02346
2079.08819	0.02410
2077.15954	0.02419
2075.23089	0.02396
2073.30223	0.02390
2071.37358	0.02358
2069.44493	0.02270
2067.51627	0.02150
2065.58762	0.02031
2063.65897	0.01973
2061.73031	0.01987
2059.80166	0.02006
2057.87301	0.02021
2055.94435	0.02058
2054.01570	0.02083
2052.08705	0.02037
2050.15839	0.01938
2048.22974	0.01863
2046.30109	0.01814
2044.37243	0.01742
2042.44378	0.01674
2040.51513	0.01667
2038.58647	0.01735
2036.65782	0.01821
2034.72917	0.01855
2032.80052	0.01832
2030.87186	0.01761
2028.94321	0.01662
2027.01456	0.01606
2025.08590	0.01627
2023.15725	0.01675
2021.22860	0.01674
2019.29994	0.01584
2017.37129	0.01475
2015.44264	0.01441
2013.51398	0.01485
2011.58533	0.01590
2009.65668	0.01704
2007.72802	0.01728
2005.79937	0.01681
2003.87072	0.01654
2001.94206	0.01690
2000.01341	0.01757
1998.08476	0.01772
1996.15610	0.01723
1994.22745	0.01690
1992.29880	0.01736
1990.37014	0.01849
1988.44149	0.01938
1986.51284	0.01947
1984.58418	0.01917
1982.65553	0.01874
1980.72688	0.01779
1978.79822	0.01637
1976.86957	0.01553
1974.94092	0.01555
1973.01226	0.01572
1971.08361	0.01610
1969.15496	0.01665
1967.22631	0.01677
1965.29765	0.01670
1963.36900	0.01703
1961.44035	0.01743
1959.51169	0.01753
1957.58304	0.01761
1955.65439	0.01777
1953.72573	0.01799
1951.79708	0.01836
1949.86843	0.01848
1947.93977	0.01821
1946.01112	0.01811
1944.08247	0.01852
1942.15381	0.01917
1940.22516	0.01945
1938.29651	0.01930
1936.36785	0.01926
1934.43920	0.01958
1932.51055	0.01998
1930.58189	0.02016
1928.65324	0.01991
1926.72459	0.01949
1924.79593	0.01942
1922.86728	0.01972
1920.93863	0.02014
1919.00997	0.02050
1917.08132	0.02047
1915.15267	0.02009
1913.22401	0.01995
1911.29536	0.02016
1909.36671	0.02035
1907.43805	0.02047
1905.50940	0.02053
1903.58075	0.02050
1901.65209	0.02046
1899.72344	0.02052
1897.79479	0.02056
1895.86614	0.02051
1893.93748	0.02043
1892.00883	0.02037
1890.08018	0.02033
1888.15152	0.02035
1886.22287	0.02043
1884.29422	0.02061
1882.36556	0.02078
1880.43691	0.02081
1878.50826	0.02075
1876.57960	0.02057
1874.65095	0.02031
1872.72230	0.02039
1870.79364	0.02080
1868.86499	0.02093
1866.93634	0.02065
1865.00768	0.02040
1863.07903	0.02039
1861.15038	0.02035
1859.22172	0.02024
1857.29307	0.02019
1855.36442	0.02009
1853.43576	0.01993
1851.50711	0.01990
1849.57846	0.02003
1847.64980	0.02017
1845.72115	0.02017
1843.79250	0.01998
1841.86384	0.01980
1839.93519	0.01989
1838.00654	0.02010
1836.07788	0.02015
1834.14923	0.02001
1832.22058	0.01979
1830.29192	0.01970
1828.36327	0.01975
1826.43462	0.01971
1824.50597	0.01956
1822.57731	0.01956
1820.64866	0.01966
1818.72001	0.01960
1816.79135	0.01948
1814.86270	0.01956
1812.93405	0.01970
1811.00539	0.01970
1809.07674	0.01962
1807.14809	0.01964
1805.21943	0.01968
1803.29078	0.01955
1801.36213	0.01936
1799.43347	0.01931
1797.50482	0.01933
1795.57617	0.01935
1793.64751	0.01938
1791.71886	0.01937
1789.79021	0.01929
1787.86155	0.01928
1785.93290	0.01932
1784.00425	0.01930
1782.07559	0.01921
1780.14694	0.01912
1778.21829	0.01910
1776.28963	0.01914
1774.36098	0.01921
1772.43233	0.01930
1770.50367	0.01928
1768.57502	0.01915
1766.64637	0.01904
1764.71771	0.01903
1762.78906	0.01910
1760.86041	0.01922
1758.93176	0.01930
1757.00310	0.01932
1755.07445	0.01945
1753.14580	0.01974
1751.21714	0.02005
1749.28849	0.02031
1747.35984	0.02062
1745.43118	0.02102
1743.50253	0.02153
1741.57388	0.02214
1739.64522	0.02273
1737.71657	0.02328
1735.78792	0.02389
1733.85926	0.02449
1731.93061	0.02495
1730.00196	0.02535
1728.07330	0.02578
1726.14465	0.02631
1724.21600	0.02687
1722.28734	0.02753
1720.35869	0.02840
1718.43004	0.02945
1716.50138	0.03054
1714.57273	0.03168
1712.64408	0.03310
1710.71542	0.03494
1708.78677	0.03720
1706.85812	0.03989
1704.92946	0.04299
1703.00081	0.04649
1701.07216	0.05047
1699.14350	0.05472
1697.21485	0.05903
1695.28620	0.06337
1693.35754	0.06765
1691.42889	0.07182
1689.50024	0.07614
1687.57159	0.08075
1685.64293	0.08563
1683.71428	0.09069
1681.78563	0.09586
1679.85697	0.10124
1677.92832	0.10696
1675.99967	0.11303
1674.07101	0.11939
1672.14236	0.12596
1670.21371	0.13269
1668.28505	0.13939
1666.35640	0.14589
1664.42775	0.15234
1662.49909	0.15871
1660.57044	0.16473
1658.64179	0.17019
1656.71313	0.17514
1654.78448	0.17976
1652.85583	0.18405
1650.92717	0.18776
1648.99852	0.19097
1647.06987	0.19403
1645.14121	0.19692
1643.21256	0.19955
1641.28391	0.20202
1639.35525	0.20440
1637.42660	0.20675
1635.49795	0.20895
1633.56929	0.21063
1631.64064	0.21154
1629.71199	0.21166
1627.78333	0.21086
1625.85468	0.20887
1623.92603	0.20564
1621.99738	0.20139
1620.06872	0.19643
1618.14007	0.19094
1616.21142	0.18501
1614.28276	0.17877
1612.35411	0.17229
1610.42546	0.16568
1608.49680	0.15919
1606.56815	0.15303
1604.63950	0.14722
1602.71084	0.14171
1600.78219	0.13655
1598.85354	0.13181
1596.92488	0.12761
1594.99623	0.12402
1593.06758	0.12096
1591.13892	0.11840
1589.21027	0.11641
1587.28162	0.11505
1585.35296	0.11426
1583.42431	0.11399
1581.49566	0.11423
1579.56700	0.11500
1577.63835	0.11638
1575.70970	0.11838
1573.78104	0.12096
1571.85239	0.12404
1569.92374	0.12754
1567.99508	0.13134
1566.06643	0.13531
1564.13778	0.13945
1562.20912	0.14377
1560.28047	0.14823
1558.35182	0.15251
1556.42316	0.15628
1554.49451	0.15961
1552.56586	0.16265
1550.63721	0.16532
1548.70855	0.16757
1546.77990	0.16938
1544.85125	0.17084
1542.92259	0.17198
1540.99394	0.17274
1539.06529	0.17308
1537.13663	0.17303
1535.20798	0.17277
1533.27933	0.17236
1531.35067	0.17165
1529.42202	0.17063
1527.49337	0.16949
1525.56471	0.16830
1523.63606	0.16698
1521.70741	0.16550
1519.77875	0.16377
1517.85010	0.16171
1515.92145	0.15931
1513.99279	0.15654
1512.06414	0.15340
1510.13549	0.14985
1508.20683	0.14589
1506.27818	0.14159
1504.34953	0.13710
1502.42087	0.13257
1500.49222	0.12809
1498.56357	0.12359
1496.63491	0.11904
1494.70626	0.11452
1492.77761	0.11017
1490.84895	0.10609
1488.92030	0.10242
1486.99165	0.09933
1485.06299	0.09694
1483.13434	0.09525
1481.20569	0.09421
1479.27704	0.09382
1477.34838	0.09406
1475.41973	0.09492
1473.49108	0.09633
1471.56242	0.09821
1469.63377	0.10034
1467.70512	0.10258
1465.77646	0.10498
1463.84781	0.10752
1461.91916	0.11012
1459.99050	0.11288
1458.06185	0.11587
1456.13320	0.11871
1454.20454	0.12081
1452.27589	0.12212
1450.34724	0.12286
1448.41858	0.12302
1446.48993	0.12255
1444.56128	0.12149
1442.63262	0.12010
1440.70397	0.11860
1438.77532	0.11696
1436.84666	0.11497
1434.91801	0.11260
1432.98936	0.11012
1431.06070	0.10788
1429.13205	0.10601
1427.20340	0.10452
1425.27474	0.10350
1423.34609	0.10296
1421.41744	0.10261
1419.48878	0.10238
1417.56013	0.10233
1415.63148	0.10239
1413.70283	0.10254
1411.77417	0.10290
1409.84552	0.10351
1407.91687	0.10426
1405.98821	0.10501
1404.05956	0.10565
1402.13091	0.10609
1400.20225	0.10629
1398.27360	0.10626
1396.34495	0.10596
1394.41629	0.10549
1392.48764	0.10501
1390.55899	0.10458
1388.63033	0.10422
1386.70168	0.10385
1384.77303	0.10337
1382.84437	0.10274
1380.91572	0.10204
1378.98707	0.10132
1377.05841	0.10050
1375.12976	0.09950
1373.20111	0.09823
1371.27245	0.09669
1369.34380	0.09501
1367.41515	0.09325
1365.48649	0.09145
1363.55784	0.08979
1361.62919	0.08846
1359.70053	0.08752
1357.77188	0.08700
1355.84323	0.08690
1353.91457	0.08711
1351.98592	0.08762
1350.05727	0.08853
1348.12861	0.08984
1346.19996	0.09136
1344.27131	0.09288
1342.34266	0.09425
1340.41400	0.09543
1338.48535	0.09625
1336.55670	0.09657
1334.62804	0.09641
1332.69939	0.09578
1330.77074	0.09468
1328.84208	0.09332
1326.91343	0.09197
1324.98478	0.09079
1323.05612	0.08991
1321.12747	0.08932
1319.19882	0.08889
1317.27016	0.08845
1315.34151	0.08795
1313.41286	0.08734
1311.48420	0.08658
1309.55555	0.08575
1307.62690	0.08496
1305.69824	0.08438
1303.76959	0.08400
1301.84094	0.08362
1299.91228	0.08319
1297.98363	0.08288
1296.05498	0.08286
1294.12632	0.08306
1292.19767	0.08349
1290.26902	0.08420
1288.34036	0.08514
1286.41171	0.08616
1284.48306	0.08710
1282.55440	0.08787
1280.62575	0.08842
1278.69710	0.08866
1276.76845	0.08863
1274.83979	0.08849
1272.91114	0.08843
1270.98249	0.08849
1269.05383	0.08869
1267.12518	0.08909
1265.19653	0.08981
1263.26787	0.09076
1261.33922	0.09180
1259.41057	0.09294
1257.48191	0.09428
1255.55326	0.09575
1253.62461	0.09725
1251.69595	0.09885
1249.76730	0.10059
1247.83865	0.10237
1245.90999	0.10415
1243.98134	0.10596
1242.05269	0.10770
1240.12403	0.10922
1238.19538	0.11039
1236.26673	0.11110
1234.33807	0.11126
1232.40942	0.11089
1230.48077	0.11010
1228.55211	0.10891
1226.62346	0.10722
1224.69481	0.10511
1222.76615	0.10279
1220.83750	0.10046
1218.90885	0.09834
1216.98019	0.09658
1215.05154	0.09523
1213.12289	0.09437
1211.19423	0.09406
1209.26558	0.09426
1207.33693	0.09476
1205.40828	0.09529
1203.47962	0.09560
1201.55097	0.09544
1199.62232	0.09471
1197.69366	0.09351
1195.76501	0.09192
1193.83636	0.09019
1191.90770	0.08843
1189.97905	0.08662
1188.05040	0.08494
1186.12174	0.08357
1184.19309	0.08240
1182.26444	0.08136
1180.33578	0.08047
1178.40713	0.07974
1176.47848	0.07917
1174.54982	0.07877
1172.62117	0.07851
1170.69252	0.07833
1168.76386	0.07814
1166.83521	0.07796
1164.90656	0.07790
1162.97790	0.07785
1161.04925	0.07759
1159.12060	0.07711
1157.19194	0.07644
1155.26329	0.07537
1153.33464	0.07390
1151.40598	0.07236
1149.47733	0.07093
1147.54868	0.06956
1145.62002	0.06831
1143.69137	0.06727
1141.76272	0.06632
1139.83406	0.06536
1137.90541	0.06446
1135.97676	0.06377
1134.04811	0.06330
1132.11945	0.06293
1130.19080	0.06264
1128.26215	0.06239
1126.33349	0.06208
1124.40484	0.06171
1122.47619	0.06138
1120.54753	0.06105
1118.61888	0.06076
1116.69023	0.06063
1114.76157	0.06067
1112.83292	0.06084
1110.90427	0.06108
1108.97561	0.06130
1107.04696	0.06147
1105.11831	0.06171
1103.18965	0.06216
1101.26100	0.06284
1099.33235	0.06361
1097.40369	0.06436
1095.47504	0.06518
1093.54639	0.06627
1091.61773	0.06765
1089.68908	0.06923
1087.76043	0.07103
1085.83177	0.07298
1083.90312	0.07468
1081.97447	0.07582
1080.04581	0.07639
1078.11716	0.07641
1076.18851	0.07601
1074.25985	0.07541
1072.33120	0.07484
1070.40255	0.07444
1068.47390	0.07421
1066.54524	0.07414
1064.61659	0.07405
1062.68794	0.07379
1060.75928	0.07346
1058.83063	0.07305
1056.90198	0.07247
1054.97332	0.07185
1053.04467	0.07127
1051.11602	0.07068
1049.18736	0.07001
1047.25871	0.06944
1045.33006	0.06906
1043.40140	0.06880
1041.47275	0.06869
1039.54410	0.06889
1037.61544	0.06938
1035.68679	0.07001
1033.75814	0.07058
1031.82948	0.07088
1029.90083	0.07067
1027.97218	0.06984
1026.04352	0.06855
1024.11487	0.06714
1022.18622	0.06587
1020.25756	0.06481
1018.32891	0.06394
1016.40026	0.06321
1014.47160	0.06247
1012.54295	0.06160
1010.61430	0.06073
1008.68564	0.05990
1006.75699	0.05899
1004.82834	0.05802
1002.89968	0.05716
1000.97103	0.05645
999.04238	0.05571
997.11373	0.05476
995.18507	0.05381
993.25642	0.05308
991.32777	0.05251
989.39911	0.05199
987.47046	0.05139
985.54181	0.05080
983.61315	0.05046
981.68450	0.05033
979.75585	0.05036
977.82719	0.05061
975.89854	0.05100
973.96989	0.05125
972.04123	0.05109
970.11258	0.05063
968.18393	0.05019
966.25527	0.04978
964.32662	0.04923
962.39797	0.04860
960.46931	0.04818
958.54066	0.04792
956.61201	0.04765
954.68335	0.04735
952.75470	0.04708
950.82605	0.04681
948.89739	0.04657
946.96874	0.04652
945.04009	0.04670
943.11143	0.04697
941.18278	0.04717
939.25413	0.04722
937.32547	0.04719
935.39682	0.04711
933.46817	0.04687
931.53952	0.04655
929.61086	0.04638
927.68221	0.04639
925.75356	0.04648
923.82490	0.04658
921.89625	0.04658
919.96760	0.04640
918.03894	0.04608
916.11029	0.04577
914.18164	0.04550
912.25298	0.04515
910.32433	0.04474
908.39568	0.04451
906.46702	0.04447
904.53837	0.04440
902.60972	0.04415
900.68106	0.04377
898.75241	0.04350
896.82376	0.04334
894.89510	0.04305
892.96645	0.04269
891.03780	0.04254
889.10914	0.04268
887.18049	0.04286
885.25184	0.04294
883.32318	0.04309
881.39453	0.04330
879.46588	0.04335
877.53722	0.04327
875.60857	0.04329
873.67992	0.04331
871.75126	0.04315
869.82261	0.04289
867.89396	0.04265
865.96530	0.04256
864.03665	0.04261
862.10800	0.04260
860.17935	0.04242
858.25069	0.04226
856.32204	0.04231
854.39339	0.04254
852.46473	0.04277
850.53608	0.04292
848.60743	0.04297
846.67877	0.04296
844.75012	0.04283
842.82147	0.04257
840.89281	0.04230
838.96416	0.04222
837.03551	0.04232
835.10685	0.04232
833.17820	0.04211
831.24955	0.04191
829.32089	0.04195
827.39224	0.04231
825.46359	0.04287
823.53493	0.04336
821.60628	0.04355
819.67763	0.04358
817.74897	0.04381
815.82032	0.04426
813.89167	0.04458
811.96301	0.04485
810.03436	0.04529
808.10571	0.04568
806.17705	0.04575
804.24840	0.04564
802.31975	0.04563
800.39109	0.04585
798.46244	0.04625
796.53379	0.04673
794.60513	0.04714
792.67648	0.04736
790.74783	0.04748
788.81918	0.04780
786.89052	0.04841
784.96187	0.04895
783.03322	0.04917
781.10456	0.04929
779.17591	0.04952
777.24726	0.04978
775.31860	0.05004
773.38995	0.05034
771.46130	0.05054
769.53264	0.05073
767.60399	0.05119
765.67534	0.05179
763.74668	0.05222
761.81803	0.05252
759.88938	0.05280
757.96072	0.05314
756.03207	0.05354
754.10342	0.05386
752.17476	0.05419
750.24611	0.05466
748.31746	0.05508
746.38880	0.05537
744.46015	0.05570
742.53150	0.05602
740.60284	0.05623
738.67419	0.05651
736.74554	0.05701
734.81688	0.05746
732.88823	0.05774
730.95958	0.05800
729.03092	0.05840
727.10227	0.05886
725.17362	0.05936
723.24497	0.05937
721.31631	0.06036
719.38766	0.06139
717.45901	0.06209
715.53035	0.06231
713.60170	0.06230
711.67305	0.06242
709.74439	0.06278
707.81574	0.06331
705.88709	0.06389
703.95843	0.06448
702.02978	0.06498
700.10113	0.06533
698.17247	0.06561
696.24382	0.06587
694.31517	0.06618
692.38651	0.06651
690.45786	0.06679
688.52921	0.06698
686.60055	0.06713
684.67190	0.06727
682.74325	0.06747
680.81459	0.06779
678.88594	0.06810
676.95729	0.06824
675.02863	0.06835
673.09998	0.06864
671.17133	0.06909
669.24267	0.06953
667.31402	0.06994
665.38537	0.07016
663.45671	0.07039
661.52806	0.07068
659.59941	0.07090
657.67075	0.07102
655.74210	0.07117
653.81345	0.07151
651.88480	0.07195
649.95614	0.07218
648.02749	0.07209
646.09884	0.07190
644.17018	0.07193
642.24153	0.07221
640.31288	0.07248
638.38422	0.07256
636.45557	0.07252
634.52692	0.07249
632.59826	0.07236
630.66961	0.07200
628.74096	0.07122
626.81230	0.07127
624.88365	0.07141
622.95500	0.07179
621.02634	0.07321
619.09769	0.07394
617.16904	0.07168
615.24038	0.06814
613.31173	0.06620
611.38308	0.06724
609.45442	0.06997
607.52577	0.07021
605.59712	0.06847
603.66846	0.06926
601.73981	0.07243
599.81116	0.07438
597.88250	0.07429
595.95385	0.07350
594.02520	0.07297
592.09654	0.07291
590.16789	0.07324
588.23924	0.07368
586.31059	0.07397
584.38193	0.07408
582.45328	0.07405
580.52463	0.07400
578.59597	0.07407
576.66732	0.07422
574.73867	0.07439
572.81001	0.07465
570.88136	0.07499
568.95271	0.07520
567.02405	0.07527
565.09540	0.07548
563.16675	0.07581
561.23809	0.07600
559.30944	0.07605
557.38079	0.07607
555.45213	0.07621
553.52348	0.07645
551.59483	0.07653
549.66617	0.07626
547.73752	0.07587
545.80887	0.07560
543.88021	0.07548
541.95156	0.07543
540.02291	0.07530
538.09425	0.07516
536.16560	0.07525
534.23695	0.07547
532.30829	0.07558
530.37964	0.07567
528.45099	0.07583
526.52233	0.07586
524.59368	0.07557
522.66503	0.07513
520.73637	0.07492
518.80772	0.07486
516.87907	0.07463
514.95042	0.07427
513.02176	0.07388
511.09311	0.07339
509.16446	0.07284
507.23580	0.07245
505.30715	0.07232
503.37850	0.07223
501.44984	0.07201
499.52119	0.07175
497.59254	0.07154
495.66388	0.07135
493.73523	0.07098
491.80658	0.07036
489.87792	0.06975
487.94927	0.06936
486.02062	0.06906
484.09196	0.06879
482.16331	0.06858
480.23466	0.06837
478.30600	0.06808
476.37735	0.06779
474.44870	0.06756
472.52004	0.06730
470.59139	0.06703
468.66274	0.06674
466.73408	0.06637
464.80543	0.06595
462.87678	0.06549
460.94812	0.06495
459.01947	0.06438
457.09082	0.06388
455.16216	0.06345
453.23351	0.06307
451.30486	0.06273
449.37620	0.06238
447.44755	0.06200
445.51890	0.06156
443.59025	0.06104
441.66159	0.06051
439.73294	0.06012
437.80429	0.05985
435.87563	0.05960
433.94698	0.05932
432.01833	0.05906
430.08967	0.05873
428.16102	0.05832
426.23237	0.05801
424.30371	0.05771
422.37506	0.05731
420.44641	0.05694
418.51775	0.05674
416.58910	0.05661
414.66045	0.05640
412.73179	0.05606
410.80314	0.05567
408.87449	0.05536
406.94583	0.05518
405.01718	0.05504
403.08853	0.05479
401.15987	0.05436
399.23122	0.05388
