3996.16951	0.04469
3994.24086	0.04499
3992.31221	0.04474
3990.38355	0.04437
3988.45490	0.04448
3986.52625	0.04474
3984.59759	0.04460
3982.66894	0.04426
3980.74029	0.04419
3978.81163	0.04427
3976.88298	0.04409
3974.95433	0.04372
3973.02567	0.04354
3971.09702	0.04341
3969.16837	0.04299
3967.23972	0.04279
3965.31106	0.04328
3963.38241	0.04402
3961.45376	0.04458
3959.52510	0.04497
3957.59645	0.04514
3955.66780	0.04496
3953.73914	0.04451
3951.81049	0.04409
3949.88184	0.04386
3947.95318	0.04361
3946.02453	0.04314
3944.09588	0.04272
3942.16722	0.04282
3940.23857	0.04320
3938.30992	0.04309
3936.38126	0.04251
3934.45261	0.04237
3932.52396	0.04279
3930.59530	0.04278
3928.66665	0.04224
3926.73800	0.04201
3924.80934	0.04211
3922.88069	0.04218
3920.95204	0.04223
3919.02338	0.04233
3917.09473	0.04247
3915.16608	0.04263
3913.23742	0.04280
3911.30877	0.04293
3909.38012	0.04317
3907.45146	0.04343
3905.52281	0.04319
3903.59416	0.04245
3901.66550	0.04207
3899.73685	0.04218
3897.80820	0.04215
3895.87955	0.04198
3893.95089	0.04192
3892.02224	0.04186
3890.09359	0.04173
3888.16493	0.04169
3886.23628	0.04177
3884.30763	0.04177
3882.37897	0.04149
3880.45032	0.04121
3878.52167	0.04126
3876.59301	0.04140
3874.66436	0.04120
3872.73571	0.04096
3870.80705	0.04121
3868.87840	0.04153
3866.94975	0.04137
3865.02109	0.04097
3863.09244	0.04075
3861.16379	0.04053
3859.23513	0.04010
3857.30648	0.04005
3855.37783	0.04070
3853.44917	0.04122
3851.52052	0.04112
3849.59187	0.04103
3847.66321	0.04102
3845.73456	0.04039
3843.80591	0.03938
3841.87725	0.03902
3839.94860	0.03950
3838.01995	0.04003
3836.09129	0.04009
3834.16264	0.04009
3832.23399	0.04015
3830.30534	0.03993
3828.37668	0.03957
3826.44803	0.03936
3824.51938	0.03930
3822.59072	0.03937
3820.66207	0.03958
3818.73342	0.03981
3816.80476	0.03992
3814.87611	0.03975
3812.94746	0.03928
3811.01880	0.03895
3809.09015	0.03927
3807.16150	0.03983
3805.23284	0.03959
3803.30419	0.03866
3801.37554	0.03818
3799.44688	0.03842
3797.51823	0.03860
3795.58958	0.03818
3793.66092	0.03750
3791.73227	0.03737
3789.80362	0.03791
3787.87496	0.03849
3785.94631	0.03848
3784.01766	0.03784
3782.08900	0.03731
3780.16035	0.03738
3778.23170	0.03757
3776.30304	0.03742
3774.37439	0.03726
3772.44574	0.03738
3770.51708	0.03752
3768.58843	0.03766
3766.65978	0.03790
3764.73112	0.03787
3762.80247	0.03746
3760.87382	0.03698
3758.94517	0.03666
3757.01651	0.03660
3755.08786	0.03682
3753.15921	0.03718
3751.23055	0.03736
3749.30190	0.03709
3747.37325	0.03679
3745.44459	0.03690
3743.51594	0.03685
3741.58729	0.03637
3739.65863	0.03613
3737.72998	0.03629
3735.80133	0.03646
3733.87267	0.03625
3731.94402	0.03544
3730.01537	0.03459
3728.08671	0.03462
3726.15806	0.03527
3724.22941	0.03548
3722.30075	0.03520
3720.37210	0.03498
3718.44345	0.03476
3716.51479	0.03429
3714.58614	0.03384
3712.65749	0.03380
3710.72883	0.03426
3708.80018	0.03481
3706.87153	0.03503
3704.94287	0.03496
3703.01422	0.03481
3701.08557	0.03463
3699.15691	0.03425
3697.22826	0.03367
3695.29961	0.03336
3693.37095	0.03368
3691.44230	0.03420
3689.51365	0.03409
3687.58500	0.03338
3685.65634	0.03293
3683.72769	0.03329
3681.79904	0.03410
3679.87038	0.03445
3677.94173	0.03423
3676.01308	0.03401
3674.08442	0.03395
3672.15577	0.03403
3670.22712	0.03441
3668.29846	0.03474
3666.36981	0.03446
3664.44116	0.03383
3662.51250	0.03366
3660.58385	0.03410
3658.65520	0.03462
3656.72654	0.03468
3654.79789	0.03410
3652.86924	0.03354
3650.94058	0.03398
3649.01193	0.03510
3647.08328	0.03587
3645.15462	0.03616
3643.22597	0.03615
3641.29732	0.03606
3639.36866	0.03622
3637.44001	0.03651
3635.51136	0.03666
3633.58270	0.03651
3631.65405	0.03617
3629.72540	0.03634
3627.79674	0.03690
3625.86809	0.03695
3623.93944	0.03662
3622.01079	0.03692
3620.08213	0.03801
3618.15348	0.03928
3616.22483	0.04002
3614.29617	0.04007
3612.36752	0.03985
3610.43887	0.03956
3608.51021	0.03933
3606.58156	0.03940
3604.65291	0.03976
3602.72425	0.04015
3600.79560	0.04069
3598.86695	0.04136
3596.93829	0.04163
3595.00964	0.04167
3593.08099	0.04208
3591.15233	0.04245
3589.22368	0.04216
3587.29503	0.04156
3585.36637	0.04146
3583.43772	0.04206
3581.50907	0.04262
3579.58041	0.04288
3577.65176	0.04346
3575.72311	0.04424
3573.79445	0.04459
3571.86580	0.04481
3569.93715	0.04527
3568.00849	0.04577
3566.07984	0.04612
3564.15119	0.04627
3562.22253	0.04628
3560.29388	0.04643
3558.36523	0.04694
3556.43657	0.04768
3554.50792	0.04822
3552.57927	0.04838
3550.65062	0.04861
3548.72196	0.04929
3546.79331	0.04991
3544.86466	0.04997
3542.93600	0.05003
3541.00735	0.05041
3539.07870	0.05072
3537.15004	0.05096
3535.22139	0.05121
3533.29274	0.05133
3531.36408	0.05133
3529.43543	0.05160
3527.50678	0.05244
3525.57812	0.05347
3523.64947	0.05401
3521.72082	0.05393
3519.79216	0.05378
3517.86351	0.05406
3515.93486	0.05474
3514.00620	0.05547
3512.07755	0.05593
3510.14890	0.05607
3508.22024	0.05614
3506.29159	0.05646
3504.36294	0.05710
3502.43428	0.05750
3500.50563	0.05734
3498.57698	0.05734
3496.64832	0.05790
3494.71967	0.05855
3492.79102	0.05908
3490.86236	0.05961
3488.93371	0.06004
3487.00506	0.06010
3485.07641	0.05992
3483.14775	0.05999
3481.21910	0.06027
3479.29045	0.06045
3477.36179	0.06060
3475.43314	0.06088
3473.50449	0.06114
3471.57583	0.06129
3469.64718	0.06147
3467.71853	0.06196
3465.78987	0.06270
3463.86122	0.06313
3461.93257	0.06299
3460.00391	0.06278
3458.07526	0.06301
3456.14661	0.06357
3454.21795	0.06425
3452.28930	0.06492
3450.36065	0.06539
3448.43199	0.06564
3446.50334	0.06580
3444.57469	0.06580
3442.64603	0.06555
3440.71738	0.06522
3438.78873	0.06520
3436.86007	0.06572
3434.93142	0.06635
3433.00277	0.06682
3431.07411	0.06723
3429.14546	0.06733
3427.21681	0.06700
3425.28815	0.06682
3423.35950	0.06725
3421.43085	0.06789
3419.50219	0.06820
3417.57354	0.06841
3415.64489	0.06899
3413.71624	0.06964
3411.78758	0.06978
3409.85893	0.06962
3407.93028	0.06972
3406.00162	0.07002
3404.07297	0.07035
3402.14432	0.07080
3400.21566	0.07121
3398.28701	0.07134
3396.35836	0.07157
3394.42970	0.07214
3392.50105	0.07243
3390.57240	0.07222
3388.64374	0.07213
3386.71509	0.07231
3384.78644	0.07238
3382.85778	0.07233
3380.92913	0.07251
3379.00048	0.07291
3377.07182	0.07328
3375.14317	0.07351
3373.21452	0.07372
3371.28586	0.07415
3369.35721	0.07489
3367.42856	0.07564
3365.49990	0.07614
3363.57125	0.07637
3361.64260	0.07653
3359.71394	0.07676
3357.78529	0.07715
3355.85664	0.07793
3353.92798	0.07909
3351.99933	0.08015
3350.07068	0.08085
3348.14202	0.08130
3346.21337	0.08160
3344.28472	0.08183
3342.35607	0.08222
3340.42741	0.08269
3338.49876	0.08298
3336.57011	0.08329
3334.64145	0.08376
3332.71280	0.08419
3330.78415	0.08468
3328.85549	0.08553
3326.92684	0.08639
3324.99819	0.08676
3323.06953	0.08689
3321.14088	0.08718
3319.21223	0.08743
3317.28357	0.08750
3315.35492	0.08754
3313.42627	0.08760
3311.49761	0.08770
3309.56896	0.08807
3307.64031	0.08861
3305.71165	0.08888
3303.78300	0.08889
3301.85435	0.08910
3299.92569	0.08953
3297.99704	0.08972
3296.06839	0.08932
3294.13973	0.08869
3292.21108	0.08838
3290.28243	0.08833
3288.35377	0.08833
3286.42512	0.08830
3284.49647	0.08839
3282.56781	0.08881
3280.63916	0.08934
3278.71051	0.08948
3276.78186	0.08911
3274.85320	0.08845
3272.92455	0.08766
3270.99590	0.08698
3269.06724	0.08672
3267.13859	0.08678
3265.20994	0.08675
3263.28128	0.08629
3261.35263	0.08552
3259.42398	0.08485
3257.49532	0.08443
3255.56667	0.08413
3253.63802	0.08395
3251.70936	0.08395
3249.78071	0.08386
3247.85206	0.08342
3245.92340	0.08292
3243.99475	0.08274
3242.06610	0.08282
3240.13744	0.08292
3238.20879	0.08288
3236.28014	0.08255
3234.35148	0.08185
3232.42283	0.08100
3230.49418	0.08043
3228.56552	0.08039
3226.63687	0.08053
3224.70822	0.08032
3222.77956	0.07987
3220.85091	0.07952
3218.92226	0.07936
3216.99360	0.07934
3215.06495	0.07927
3213.13630	0.07909
3211.20764	0.07892
3209.27899	0.07880
3207.35034	0.07859
3205.42169	0.07833
3203.49303	0.07826
3201.56438	0.07830
3199.63573	0.07784
3197.70707	0.07678
3195.77842	0.07576
3193.84977	0.07525
3191.92111	0.07522
3189.99246	0.07551
3188.06381	0.07587
3186.13515	0.07591
3184.20650	0.07531
3182.27785	0.07445
3180.34919	0.07389
3178.42054	0.07351
3176.49189	0.07295
3174.56323	0.07239
3172.63458	0.07207
3170.70593	0.07173
3168.77727	0.07120
3166.84862	0.07073
3164.91997	0.07029
3162.99131	0.06975
3161.06266	0.06925
3159.13401	0.06883
3157.20535	0.06841
3155.27670	0.06801
3153.34805	0.06774
3151.41939	0.06755
3149.49074	0.06723
3147.56209	0.06674
3145.63343	0.06619
3143.70478	0.06563
3141.77613	0.06518
3139.84748	0.06499
3137.91882	0.06486
3135.99017	0.06462
3134.06152	0.06432
3132.13286	0.06401
3130.20421	0.06374
3128.27556	0.06353
3126.34690	0.06338
3124.41825	0.06315
3122.48960	0.06269
3120.56094	0.06234
3118.63229	0.06246
3116.70364	0.06268
3114.77498	0.06250
3112.84633	0.06220
3110.91768	0.06231
3108.98902	0.06267
3107.06037	0.06277
3105.13172	0.06261
3103.20306	0.06244
3101.27441	0.06229
3099.34576	0.06220
3097.41710	0.06224
3095.48845	0.06239
3093.55980	0.06258
3091.63114	0.06283
3089.70249	0.06308
3087.77384	0.06324
3085.84518	0.06330
3083.91653	0.06334
3081.98788	0.06339
3080.05922	0.06353
3078.13057	0.06378
3076.20192	0.06393
3074.27326	0.06379
3072.34461	0.06358
3070.41596	0.06363
3068.48731	0.06376
3066.55865	0.06362
3064.63000	0.06319
3062.70135	0.06268
3060.77269	0.06240
3058.84404	0.06238
3056.91539	0.06231
3054.98673	0.06210
3053.05808	0.06182
3051.12943	0.06130
3049.20077	0.06068
3047.27212	0.06026
3045.34347	0.05994
3043.41481	0.05957
3041.48616	0.05932
3039.55751	0.05913
3037.62885	0.05879
3035.70020	0.05839
3033.77155	0.05805
3031.84289	0.05774
3029.91424	0.05750
3027.98559	0.05729
3026.05693	0.05692
3024.12828	0.05641
3022.19963	0.05599
3020.27097	0.05558
3018.34232	0.05506
3016.41367	0.05466
3014.48501	0.05454
3012.55636	0.05455
3010.62771	0.05463
3008.69905	0.05479
3006.77040	0.05478
3004.84175	0.05448
3002.91309	0.05421
3000.98444	0.05421
2999.05579	0.05424
2997.12714	0.05410
2995.19848	0.05421
2993.26983	0.05465
2991.34118	0.05498
2989.41252	0.05510
2987.48387	0.05535
2985.55522	0.05580
2983.62656	0.05628
2981.69791	0.05672
2979.76926	0.05705
2977.84060	0.05716
2975.91195	0.05710
2973.98330	0.05717
2972.05464	0.05743
2970.12599	0.05764
2968.19734	0.05776
2966.26868	0.05791
2964.34003	0.05817
2962.41138	0.05842
2960.48272	0.05854
2958.55407	0.05861
2956.62542	0.05874
2954.69676	0.05891
2952.76811	0.05894
2950.83946	0.05877
2948.91080	0.05862
2946.98215	0.05873
2945.05350	0.05894
2943.12484	0.05911
2941.19619	0.05951
2939.26754	0.06008
2937.33888	0.06028
2935.41023	0.06009
2933.48158	0.05986
2931.55293	0.05969
2929.62427	0.05958
2927.69562	0.05954
2925.76697	0.05953
2923.83831	0.05950
2921.90966	0.05933
2919.98101	0.05893
2918.05235	0.05849
2916.12370	0.05801
2914.19505	0.05727
2912.26639	0.05650
2910.33774	0.05596
2908.40909	0.05553
2906.48043	0.05511
2904.55178	0.05464
2902.62313	0.05414
2900.69447	0.05376
2898.76582	0.05353
2896.83717	0.05335
2894.90851	0.05327
2892.97986	0.05315
2891.05121	0.05301
2889.12255	0.05305
2887.19390	0.05321
2885.26525	0.05326
2883.33659	0.05320
2881.40794	0.05308
2879.47929	0.05298
2877.55063	0.05283
2875.62198	0.05269
2873.69333	0.05267
2871.76467	0.05260
2869.83602	0.05238
2867.90737	0.05204
2865.97871	0.05168
2864.05006	0.05138
2862.12141	0.05098
2860.19276	0.05053
2858.26410	0.05029
2856.33545	0.05024
2854.40680	0.05025
2852.47814	0.05029
2850.54949	0.05013
2848.62084	0.04957
2846.69218	0.04897
2844.76353	0.04869
2842.83488	0.04849
2840.90622	0.04809
2838.97757	0.04774
2837.04892	0.04751
2835.12026	0.04725
2833.19161	0.04702
2831.26296	0.04683
2829.33430	0.04658
2827.40565	0.04636
2825.47700	0.04624
2823.54834	0.04603
2821.61969	0.04568
2819.69104	0.04558
2817.76238	0.04569
2815.83373	0.04554
2813.90508	0.04512
2811.97642	0.04485
2810.04777	0.04478
2808.11912	0.04470
2806.19046	0.04457
2804.26181	0.04449
2802.33316	0.04449
2800.40450	0.04454
2798.47585	0.04445
2796.54720	0.04412
2794.61855	0.04379
2792.68989	0.04370
2790.76124	0.04359
2788.83259	0.04331
2786.90393	0.04306
2784.97528	0.04296
2783.04663	0.04299
2781.11797	0.04298
2779.18932	0.04278
2777.26067	0.04258
2775.33201	0.04259
2773.40336	0.04260
2771.47471	0.04240
2769.54605	0.04207
2767.61740	0.04183
2765.68875	0.04179
2763.76009	0.04185
2761.83144	0.04186
2759.90279	0.04180
2757.97413	0.04165
2756.04548	0.04144
2754.11683	0.04128
2752.18817	0.04132
2750.25952	0.04145
2748.33087	0.04141
2746.40221	0.04122
2744.47356	0.04094
2742.54491	0.04067
2740.61625	0.04049
2738.68760	0.04039
2736.75895	0.04042
2734.83029	0.04050
2732.90164	0.04044
2730.97299	0.04022
2729.04433	0.03999
2727.11568	0.03993
2725.18703	0.04001
2723.25838	0.04003
2721.32972	0.03998
2719.40107	0.03980
2717.47242	0.03943
2715.54376	0.03911
2713.61511	0.03896
2711.68646	0.03886
2709.75780	0.03876
2707.82915	0.03871
2705.90050	0.03865
2703.97184	0.03853
2702.04319	0.03851
2700.11454	0.03858
2698.18588	0.03858
2696.25723	0.03847
2694.32858	0.03823
2692.39992	0.03787
2690.47127	0.03762
2688.54262	0.03769
2686.61396	0.03788
2684.68531	0.03789
2682.75666	0.03768
2680.82800	0.03748
2678.89935	0.03737
2676.97070	0.03724
2675.04204	0.03712
2673.11339	0.03715
2671.18474	0.03726
2669.25608	0.03723
2667.32743	0.03698
2665.39878	0.03672
2663.47012	0.03664
2661.54147	0.03659
2659.61282	0.03634
2657.68417	0.03603
2655.75551	0.03584
2653.82686	0.03573
2651.89821	0.03564
2649.96955	0.03546
2648.04090	0.03505
2646.11225	0.03460
2644.18359	0.03435
2642.25494	0.03420
2640.32629	0.03402
2638.39763	0.03378
2636.46898	0.03347
2634.54033	0.03327
2632.61167	0.03319
2630.68302	0.03310
2628.75437	0.03297
2626.82571	0.03281
2624.89706	0.03277
2622.96841	0.03287
2621.03975	0.03282
2619.11110	0.03242
2617.18245	0.03198
2615.25379	0.03182
2613.32514	0.03186
2611.39649	0.03186
2609.46783	0.03157
2607.53918	0.03103
2605.61053	0.03069
2603.68187	0.03062
2601.75322	0.03068
2599.82457	0.03081
2597.89591	0.03087
2595.96726	0.03078
2594.03861	0.03077
2592.10995	0.03093
2590.18130	0.03086
2588.25265	0.03026
2586.32400	0.02959
2584.39534	0.02929
2582.46669	0.02929
2580.53804	0.02931
2578.60938	0.02923
2576.68073	0.02913
2574.75208	0.02904
2572.82342	0.02906
2570.89477	0.02930
2568.96612	0.02938
2567.03746	0.02888
2565.10881	0.02819
2563.18016	0.02791
2561.25150	0.02793
2559.32285	0.02781
2557.39420	0.02789
2555.46554	0.02849
2553.53689	0.02897
2551.60824	0.02882
2549.67958	0.02840
2547.75093	0.02819
2545.82228	0.02832
2543.89362	0.02845
2541.96497	0.02829
2540.03632	0.02807
2538.10766	0.02801
2536.17901	0.02793
2534.25036	0.02763
2532.32170	0.02733
2530.39305	0.02725
2528.46440	0.02722
2526.53574	0.02706
2524.60709	0.02691
2522.67844	0.02698
2520.74978	0.02721
2518.82113	0.02734
2516.89248	0.02725
2514.96383	0.02689
2513.03517	0.02662
2511.10652	0.02667
2509.17787	0.02675
2507.24921	0.02681
2505.32056	0.02690
2503.39191	0.02701
2501.46325	0.02700
2499.53460	0.02648
2497.60595	0.02568
2495.67729	0.02563
2493.74864	0.02637
2491.81999	0.02688
2489.89133	0.02675
2487.96268	0.02655
2486.03403	0.02655
2484.10537	0.02659
2482.17672	0.02665
2480.24807	0.02663
2478.31941	0.02640
2476.39076	0.02629
2474.46211	0.02633
2472.53345	0.02617
2470.60480	0.02600
2468.67615	0.02601
2466.74749	0.02589
2464.81884	0.02570
2462.89019	0.02571
2460.96153	0.02580
2459.03288	0.02581
2457.10423	0.02579
2455.17557	0.02557
2453.24692	0.02512
2451.31827	0.02475
2449.38962	0.02463
2447.46096	0.02460
2445.53231	0.02465
2443.60366	0.02478
2441.67500	0.02486
2439.74635	0.02491
2437.81770	0.02507
2435.88904	0.02528
2433.96039	0.02538
2432.03174	0.02528
2430.10308	0.02506
2428.17443	0.02485
2426.24578	0.02470
2424.31712	0.02472
2422.38847	0.02489
2420.45982	0.02485
2418.53116	0.02484
2416.60251	0.02521
2414.67386	0.02539
2412.74520	0.02496
2410.81655	0.02454
2408.88790	0.02462
2406.95924	0.02499
2405.03059	0.02524
2403.10194	0.02528
2401.17328	0.02528
2399.24463	0.02522
2397.31598	0.02496
2395.38732	0.02480
2393.45867	0.02507
2391.53002	0.02549
2389.60136	0.02560
2387.67271	0.02555
2385.74406	0.02558
2383.81540	0.02551
2381.88675	0.02536
2379.95810	0.02544
2378.02945	0.02575
2376.10079	0.02602
2374.17214	0.02607
2372.24349	0.02595
2370.31483	0.02591
2368.38618	0.02599
2366.45753	0.02606
2364.52887	0.02600
2362.60022	0.02592
2360.67157	0.02599
2358.74291	0.02615
2356.81426	0.02616
2354.88561	0.02602
2352.95695	0.02587
2351.02830	0.02575
2349.09965	0.02569
2347.17099	0.02576
2345.24234	0.02579
2343.31369	0.02559
2341.38503	0.02537
2339.45638	0.02540
2337.52773	0.02553
2335.59907	0.02554
2333.67042	0.02547
2331.74177	0.02538
2329.81311	0.02523
2327.88446	0.02488
2325.95581	0.02425
2324.02715	0.02365
2322.09850	0.02349
2320.16985	0.02363
2318.24119	0.02364
2316.31254	0.02343
2314.38389	0.02326
2312.45524	0.02332
2310.52658	0.02346
2308.59793	0.02338
2306.66928	0.02302
2304.74062	0.02252
2302.81197	0.02205
2300.88332	0.02176
2298.95466	0.02163
2297.02601	0.02155
2295.09736	0.02133
2293.16870	0.02095
2291.24005	0.02068
2289.31140	0.02058
2287.38274	0.02041
2285.45409	0.02011
2283.52544	0.02006
2281.59678	0.02036
2279.66813	0.02043
2277.73948	0.02004
2275.81082	0.01958
2273.88217	0.01912
2271.95352	0.01864
2270.02486	0.01845
2268.09621	0.01863
2266.16756	0.01879
2264.23890	0.01878
2262.31025	0.01889
2260.38160	0.01899
2258.45294	0.01874
2256.52429	0.01832
2254.59564	0.01814
2252.66698	0.01797
2250.73833	0.01749
2248.80968	0.01715
2246.88102	0.01711
2244.95237	0.01661
2243.02372	0.01595
2241.09507	0.01590
2239.16641	0.01598
2237.23776	0.01580
2235.30911	0.01566
2233.38045	0.01586
2231.45180	0.01661
2229.52315	0.01738
2227.59449	0.01720
2225.66584	0.01637
2223.73719	0.01603
2221.80853	0.01608
2219.87988	0.01569
2217.95123	0.01499
2216.02257	0.01435
2214.09392	0.01361
2212.16527	0.01308
2210.23661	0.01323
2208.30796	0.01408
2206.37931	0.01479
2204.45065	0.01412
2202.52200	0.01268
2200.59335	0.01212
2198.66469	0.01240
2196.73604	0.01249
2194.80739	0.01223
2192.87873	0.01223
2190.95008	0.01278
2189.02143	0.01314
2187.09277	0.01279
2185.16412	0.01239
2183.23547	0.01232
2181.30681	0.01211
2179.37816	0.01156
2177.44951	0.01125
2175.52085	0.01107
2173.59220	0.01060
2171.66355	0.01023
2169.73490	0.01016
2167.80624	0.00993
2165.87759	0.00879
2163.94894	0.00701
2162.02028	0.00610
2160.09163	0.00646
2158.16298	0.00769
2156.23432	0.00962
2154.30567	0.01122
2152.37702	0.01148
2150.44836	0.01116
2148.51971	0.01148
2146.59106	0.01225
2144.66240	0.01317
2142.73375	0.01404
2140.80510	0.01464
2138.87644	0.01512
2136.94779	0.01559
2135.01914	0.01601
2133.09048	0.01628
2131.16183	0.01632
2129.23318	0.01605
2127.30452	0.01576
2125.37587	0.01606
2123.44722	0.01653
2121.51856	0.01629
2119.58991	0.01572
2117.66126	0.01570
2115.73260	0.01609
2113.80395	0.01631
2111.87530	0.01623
2109.94664	0.01588
2108.01799	0.01551
2106.08934	0.01543
2104.16069	0.01545
2102.23203	0.01501
2100.30338	0.01430
2098.37473	0.01395
2096.44607	0.01430
2094.51742	0.01476
2092.58877	0.01489
2090.66011	0.01506
2088.73146	0.01537
2086.80281	0.01532
2084.87415	0.01482
2082.94550	0.01432
2081.01685	0.01410
2079.08819	0.01364
2077.15954	0.01263
2075.23089	0.01182
2073.30223	0.01173
2071.37358	0.01184
2069.44493	0.01150
2067.51627	0.01111
2065.58762	0.01123
2063.65897	0.01161
2061.73031	0.01202
2059.80166	0.01228
2057.87301	0.01205
2055.94435	0.01163
2054.01570	0.01144
2052.08705	0.01130
2050.15839	0.01084
2048.22974	0.01033
2046.30109	0.01011
2044.37243	0.00972
2042.44378	0.00872
2040.51513	0.00759
2038.58647	0.00717
2036.65782	0.00796
2034.72917	0.00936
2032.80052	0.00994
2030.87186	0.00949
2028.94321	0.00890
2027.01456	0.00847
2025.08590	0.00783
2023.15725	0.00663
2021.22860	0.00574
2019.29994	0.00629
2017.37129	0.00773
2015.44264	0.00882
2013.51398	0.00930
2011.58533	0.00935
2009.65668	0.00904
2007.72802	0.00891
2005.79937	0.00944
2003.87072	0.01012
2001.94206	0.01056
2000.01341	0.01099
1998.08476	0.01133
1996.15610	0.01123
1994.22745	0.01049
1992.29880	0.00959
1990.37014	0.00930
1988.44149	0.00955
1986.51284	0.00974
1984.58418	0.00964
1982.65553	0.00904
1980.72688	0.00744
1978.79822	0.00567
1976.86957	0.00558
1974.94092	0.00651
1973.01226	0.00671
1971.08361	0.00700
1969.15496	0.00822
1967.22631	0.00935
1965.29765	0.00993
1963.36900	0.01028
1961.44035	0.01074
1959.51169	0.01139
1957.58304	0.01177
1955.65439	0.01162
1953.72573	0.01114
1951.79708	0.01057
1949.86843	0.01035
1947.93977	0.01057
1946.01112	0.01110
1944.08247	0.01179
1942.15381	0.01232
1940.22516	0.01266
1938.29651	0.01289
1936.36785	0.01284
1934.43920	0.01260
1932.51055	0.01244
1930.58189	0.01230
1928.65324	0.01220
1926.72459	0.01233
1924.79593	0.01257
1922.86728	0.01278
1920.93863	0.01273
1919.00997	0.01251
1917.08132	0.01271
1915.15267	0.01329
1913.22401	0.01366
1911.29536	0.01368
1909.36671	0.01338
1907.43805	0.01305
1905.50940	0.01303
1903.58075	0.01312
1901.65209	0.01309
1899.72344	0.01313
1897.79479	0.01332
1895.86614	0.01345
1893.93748	0.01331
1892.00883	0.01310
1890.08018	0.01321
1888.15152	0.01349
1886.22287	0.01357
1884.29422	0.01343
1882.36556	0.01330
1880.43691	0.01329
1878.50826	0.01333
1876.57960	0.01322
1874.65095	0.01301
1872.72230	0.01287
1870.79364	0.01286
1868.86499	0.01295
1866.93634	0.01305
1865.00768	0.01314
1863.07903	0.01323
1861.15038	0.01331
1859.22172	0.01341
1857.29307	0.01363
1855.36442	0.01390
1853.43576	0.01388
1851.50711	0.01346
1849.57846	0.01308
1847.64980	0.01298
1845.72115	0.01300
1843.79250	0.01315
1841.86384	0.01334
1839.93519	0.01321
1838.00654	0.01292
1836.07788	0.01288
1834.14923	0.01299
1832.22058	0.01305
1830.29192	0.01308
1828.36327	0.01305
1826.43462	0.01287
1824.50597	0.01257
1822.57731	0.01232
1820.64866	0.01229
1818.72001	0.01256
1816.79135	0.01305
1814.86270	0.01344
1812.93405	0.01359
1811.00539	0.01356
1809.07674	0.01336
1807.14809	0.01308
1805.21943	0.01295
1803.29078	0.01297
1801.36213	0.01297
1799.43347	0.01293
1797.50482	0.01289
1795.57617	0.01284
1793.64751	0.01274
1791.71886	0.01262
1789.79021	0.01255
1787.86155	0.01255
1785.93290	0.01252
1784.00425	0.01245
1782.07559	0.01236
1780.14694	0.01225
1778.21829	0.01218
1776.28963	0.01227
1774.36098	0.01251
1772.43233	0.01269
1770.50367	0.01265
1768.57502	0.01253
1766.64637	0.01248
1764.71771	0.01251
1762.78906	0.01249
1760.86041	0.01239
1758.93176	0.01236
1757.00310	0.01250
1755.07445	0.01267
1753.14580	0.01276
1751.21714	0.01282
1749.28849	0.01302
1747.35984	0.01328
1745.43118	0.01343
1743.50253	0.01356
1741.57388	0.01382
1739.64522	0.01412
1737.71657	0.01435
1735.78792	0.01460
1733.85926	0.01486
1731.93061	0.01498
1730.00196	0.01504
1728.07330	0.01525
1726.14465	0.01562
1724.21600	0.01593
1722.28734	0.01614
1720.35869	0.01634
1718.43004	0.01663
1716.50138	0.01705
1714.57273	0.01759
1712.64408	0.01817
1710.71542	0.01884
1708.78677	0.01973
1706.85812	0.02099
1704.92946	0.02255
1703.00081	0.02426
1701.07216	0.02615
1699.14350	0.02826
1697.21485	0.03048
1695.28620	0.03278
1693.35754	0.03510
1691.42889	0.03743
1689.50024	0.03977
1687.57159	0.04220
1685.64293	0.04483
1683.71428	0.04754
1681.78563	0.05026
1679.85697	0.05325
1677.92832	0.05665
1675.99967	0.06021
1674.07101	0.06369
1672.14236	0.06721
1670.21371	0.07090
1668.28505	0.07466
1666.35640	0.07830
1664.42775	0.08182
1662.49909	0.08526
1660.57044	0.08844
1658.64179	0.09121
1656.71313	0.09360
1654.78448	0.09577
1652.85583	0.09776
1650.92717	0.09940
1648.99852	0.10075
1647.06987	0.10200
1645.14121	0.10319
1643.21256	0.10427
1641.28391	0.10520
1639.35525	0.10593
1637.42660	0.10653
1635.49795	0.10703
1633.56929	0.10727
1631.64064	0.10712
1629.71199	0.10650
1627.78333	0.10528
1625.85468	0.10337
1623.92603	0.10083
1621.99738	0.09781
1620.06872	0.09445
1618.14007	0.09090
1616.21142	0.08728
1614.28276	0.08370
1612.35411	0.08022
1610.42546	0.07687
1608.49680	0.07367
1606.56815	0.07060
1604.63950	0.06771
1602.71084	0.06512
1600.78219	0.06284
1598.85354	0.06077
1596.92488	0.05888
1594.99623	0.05723
1593.06758	0.05594
1591.13892	0.05501
1589.21027	0.05439
1587.28162	0.05398
1585.35296	0.05373
1583.42431	0.05371
1581.49566	0.05401
1579.56700	0.05459
1577.63835	0.05540
1575.70970	0.05646
1573.78104	0.05783
1571.85239	0.05953
1569.92374	0.06150
1567.99508	0.06356
1566.06643	0.06571
1564.13778	0.06801
1562.20912	0.07036
1560.28047	0.07270
1558.35182	0.07498
1556.42316	0.07707
1554.49451	0.07891
1552.56586	0.08044
1550.63721	0.08166
1548.70855	0.08268
1546.77990	0.08358
1544.85125	0.08430
1542.92259	0.08476
1540.99394	0.08492
1539.06529	0.08482
1537.13663	0.08455
1535.20798	0.08424
1533.27933	0.08389
1531.35067	0.08340
1529.42202	0.08274
1527.49337	0.08196
1525.56471	0.08106
1523.63606	0.08005
1521.70741	0.07898
1519.77875	0.07787
1517.85010	0.07670
1515.92145	0.07535
1513.99279	0.07378
1512.06414	0.07200
1510.13549	0.07010
1508.20683	0.06809
1506.27818	0.06594
1504.34953	0.06367
1502.42087	0.06137
1500.49222	0.05913
1498.56357	0.05702
1496.63491	0.05499
1494.70626	0.05296
1492.77761	0.05097
1490.84895	0.04920
1488.92030	0.04769
1486.99165	0.04641
1485.06299	0.04541
1483.13434	0.04473
1481.20569	0.04436
1479.27704	0.04430
1477.34838	0.04463
1475.41973	0.04533
1473.49108	0.04626
1471.56242	0.04724
1469.63377	0.04821
1467.70512	0.04928
1465.77646	0.05049
1463.84781	0.05175
1461.91916	0.05305
1459.99050	0.05440
1458.06185	0.05575
1456.13320	0.05696
1454.20454	0.05787
1452.27589	0.05846
1450.34724	0.05874
1448.41858	0.05866
1446.48993	0.05828
1444.56128	0.05773
1442.63262	0.05712
1440.70397	0.05650
1438.77532	0.05582
1436.84666	0.05490
1434.91801	0.05365
1432.98936	0.05231
1431.06070	0.05120
1429.13205	0.05036
1427.20340	0.04976
1425.27474	0.04943
1423.34609	0.04926
1421.41744	0.04912
1419.48878	0.04898
1417.56013	0.04889
1415.63148	0.04886
1413.70283	0.04894
1411.77417	0.04915
1409.84552	0.04946
1407.91687	0.04988
1405.98821	0.05038
1404.05956	0.05076
1402.13091	0.05089
1400.20225	0.05078
1398.27360	0.05059
1396.34495	0.05045
1394.41629	0.05030
1392.48764	0.05015
1390.55899	0.05001
1388.63033	0.04981
1386.70168	0.04954
1384.77303	0.04925
1382.84437	0.04892
1380.91572	0.04857
1378.98707	0.04824
1377.05841	0.04788
1375.12976	0.04746
1373.20111	0.04689
1371.27245	0.04617
1369.34380	0.04536
1367.41515	0.04457
1365.48649	0.04383
1363.55784	0.04321
1361.62919	0.04271
1359.70053	0.04228
1357.77188	0.04195
1355.84323	0.04183
1353.91457	0.04196
1351.98592	0.04228
1350.05727	0.04277
1348.12861	0.04344
1346.19996	0.04418
1344.27131	0.04490
1342.34266	0.04555
1340.41400	0.04611
1338.48535	0.04651
1336.55670	0.04669
1334.62804	0.04661
1332.69939	0.04622
1330.77074	0.04560
1328.84208	0.04493
1326.91343	0.04430
1324.98478	0.04373
1323.05612	0.04329
1321.12747	0.04305
1319.19882	0.04292
1317.27016	0.04280
1315.34151	0.04261
1313.41286	0.04231
1311.48420	0.04200
1309.55555	0.04168
1307.62690	0.04130
1305.69824	0.04097
1303.76959	0.04081
1301.84094	0.04070
1299.91228	0.04049
1297.98363	0.04031
1296.05498	0.04028
1294.12632	0.04043
1292.19767	0.04075
1290.26902	0.04122
1288.34036	0.04176
1286.41171	0.04225
1284.48306	0.04273
1282.55440	0.04320
1280.62575	0.04354
1278.69710	0.04367
1276.76845	0.04364
1274.83979	0.04354
1272.91114	0.04352
1270.98249	0.04366
1269.05383	0.04390
1267.12518	0.04421
1265.19653	0.04457
1263.26787	0.04494
1261.33922	0.04534
1259.41057	0.04585
1257.48191	0.04649
1255.55326	0.04718
1253.62461	0.04795
1251.69595	0.04877
1249.76730	0.04959
1247.83865	0.05041
1245.90999	0.05125
1243.98134	0.05210
1242.05269	0.05295
1240.12403	0.05370
1238.19538	0.05423
1236.26673	0.05455
1234.33807	0.05469
1232.40942	0.05455
1230.48077	0.05404
1228.55211	0.05326
1226.62346	0.05232
1224.69481	0.05115
1222.76615	0.04982
1220.83750	0.04856
1218.90885	0.04747
1216.98019	0.04659
1215.05154	0.04601
1213.12289	0.04574
1211.19423	0.04567
1209.26558	0.04580
1207.33693	0.04609
1205.40828	0.04638
1203.47962	0.04647
1201.55097	0.04631
1199.62232	0.04602
1197.69366	0.04531
1195.76501	0.04439
1193.83636	0.04345
1191.90770	0.04257
1189.97905	0.04169
1188.05040	0.04084
1186.12174	0.04016
1184.19309	0.03962
1182.26444	0.03920
1180.33578	0.03893
1178.40713	0.03873
1176.47848	0.03862
1174.54982	0.03857
1172.62117	0.03849
1170.69252	0.03834
1168.76386	0.03825
1166.83521	0.03821
1164.90656	0.03823
1162.97790	0.03831
1161.04925	0.03827
1159.12060	0.03794
1157.19194	0.03739
1155.26329	0.03684
1153.33464	0.03631
1151.40598	0.03571
1149.47733	0.03504
1147.54868	0.03440
1145.62002	0.03391
1143.69137	0.03353
1141.76272	0.03320
1139.83406	0.03278
1137.90541	0.03225
1135.97676	0.03183
1134.04811	0.03171
1132.11945	0.03176
1130.19080	0.03183
1128.26215	0.03183
1126.33349	0.03172
1124.40484	0.03158
1122.47619	0.03151
1120.54753	0.03143
1118.61888	0.03130
1116.69023	0.03117
1114.76157	0.03108
1112.83292	0.03103
1110.90427	0.03110
1108.97561	0.03136
1107.04696	0.03169
1105.11831	0.03191
1103.18965	0.03211
1101.26100	0.03245
1099.33235	0.03286
1097.40369	0.03318
1095.47504	0.03345
1093.54639	0.03376
1091.61773	0.03426
1089.68908	0.03501
1087.76043	0.03588
1085.83177	0.03669
1083.90312	0.03740
1081.97447	0.03795
1080.04581	0.03827
1078.11716	0.03836
1076.18851	0.03820
1074.25985	0.03786
1072.33120	0.03749
1070.40255	0.03719
1068.47390	0.03700
1066.54524	0.03695
1064.61659	0.03698
1062.68794	0.03703
1060.75928	0.03711
1058.83063	0.03711
1056.90198	0.03681
1054.97332	0.03632
1053.04467	0.03595
1051.11602	0.03569
1049.18736	0.03528
1047.25871	0.03482
1045.33006	0.03460
1043.40140	0.03460
1041.47275	0.03462
1039.54410	0.03470
1037.61544	0.03489
1035.68679	0.03517
1033.75814	0.03547
1031.82948	0.03560
1029.90083	0.03541
1027.97218	0.03499
1026.04352	0.03450
1024.11487	0.03396
1022.18622	0.03332
1020.25756	0.03266
1018.32891	0.03215
1016.40026	0.03191
1014.47160	0.03174
1012.54295	0.03136
1010.61430	0.03081
1008.68564	0.03028
1006.75699	0.02982
1004.82834	0.02935
1002.89968	0.02884
1000.97103	0.02843
999.04238	0.02819
997.11373	0.02799
995.18507	0.02770
993.25642	0.02735
991.32777	0.02706
989.39911	0.02685
987.47046	0.02663
985.54181	0.02641
983.61315	0.02624
981.68450	0.02615
979.75585	0.02617
977.82719	0.02630
975.89854	0.02639
973.96989	0.02635
972.04123	0.02623
970.11258	0.02606
968.18393	0.02587
966.25527	0.02568
964.32662	0.02543
962.39797	0.02515
960.46931	0.02491
958.54066	0.02474
956.61201	0.02454
954.68335	0.02427
952.75470	0.02406
950.82605	0.02401
948.89739	0.02407
946.96874	0.02409
945.04009	0.02404
943.11143	0.02407
941.18278	0.02424
939.25413	0.02436
937.32547	0.02429
935.39682	0.02417
933.46817	0.02411
931.53952	0.02412
929.61086	0.02412
927.68221	0.02408
925.75356	0.02404
923.82490	0.02410
921.89625	0.02416
919.96760	0.02407
918.03894	0.02385
916.11029	0.02366
914.18164	0.02358
912.25298	0.02354
910.32433	0.02341
908.39568	0.02324
906.46702	0.02312
904.53837	0.02304
902.60972	0.02285
900.68106	0.02263
898.75241	0.02257
896.82376	0.02264
894.89510	0.02270
892.96645	0.02268
891.03780	0.02258
889.10914	0.02245
887.18049	0.02234
885.25184	0.02223
883.32318	0.02216
881.39453	0.02229
879.46588	0.02253
877.53722	0.02262
875.60857	0.02263
873.67992	0.02270
871.75126	0.02270
869.82261	0.02254
867.89396	0.02238
865.96530	0.02226
864.03665	0.02207
862.10800	0.02192
860.17935	0.02198
858.25069	0.02213
856.32204	0.02220
854.39339	0.02225
852.46473	0.02232
850.53608	0.02243
848.60743	0.02251
846.67877	0.02250
844.75012	0.02246
842.82147	0.02239
840.89281	0.02228
838.96416	0.02215
837.03551	0.02209
835.10685	0.02210
833.17820	0.02211
831.24955	0.02213
829.32089	0.02221
827.39224	0.02235
825.46359	0.02244
823.53493	0.02249
821.60628	0.02269
819.67763	0.02299
817.74897	0.02321
815.82032	0.02326
813.89167	0.02325
811.96301	0.02332
810.03436	0.02350
808.10571	0.02376
806.17705	0.02399
804.24840	0.02411
802.31975	0.02422
800.39109	0.02436
798.46244	0.02441
796.53379	0.02440
794.60513	0.02445
792.67648	0.02464
790.74783	0.02491
788.81918	0.02517
786.89052	0.02539
784.96187	0.02555
783.03322	0.02570
781.10456	0.02586
779.17591	0.02596
777.24726	0.02606
775.31860	0.02623
773.38995	0.02647
771.46130	0.02676
769.53264	0.02700
767.60399	0.02710
765.67534	0.02710
763.74668	0.02715
761.81803	0.02734
759.88938	0.02761
757.96072	0.02793
756.03207	0.02835
754.10342	0.02879
752.17476	0.02909
750.24611	0.02921
748.31746	0.02921
746.38880	0.02919
744.46015	0.02928
742.53150	0.02950
740.60284	0.02972
738.67419	0.02979
736.74554	0.02985
734.81688	0.03009
732.88823	0.03051
730.95958	0.03097
729.03092	0.03137
727.10227	0.03159
725.17362	0.03160
723.24497	0.03164
721.31631	0.03186
719.38766	0.03219
717.45901	0.03258
715.53035	0.03291
713.60170	0.03310
711.67305	0.03320
709.74439	0.03334
707.81574	0.03359
705.88709	0.03389
703.95843	0.03414
702.02978	0.03431
700.10113	0.03436
698.17247	0.03442
696.24382	0.03454
694.31517	0.03465
692.38651	0.03474
690.45786	0.03492
688.52921	0.03523
686.60055	0.03551
684.67190	0.03562
682.74325	0.03568
680.81459	0.03588
678.88594	0.03616
676.95729	0.03635
675.02863	0.03642
673.09998	0.03649
671.17133	0.03661
669.24267	0.03679
667.31402	0.03702
665.38537	0.03730
663.45671	0.03754
661.52806	0.03763
659.59941	0.03762
657.67075	0.03771
655.74210	0.03783
653.81345	0.03779
651.88480	0.03777
649.95614	0.03789
648.02749	0.03799
646.09884	0.03799
644.17018	0.03800
642.24153	0.03811
640.31288	0.03829
638.38422	0.03843
636.45557	0.03851
634.52692	0.03853
632.59826	0.03840
630.66961	0.03853
628.74096	0.03981
626.81230	0.03770
624.88365	0.03516
622.95500	0.03486
621.02634	0.03718
619.09769	0.03924
617.16904	0.04072
615.24038	0.04297
613.31173	0.04312
611.38308	0.03951
609.45442	0.03712
607.52577	0.03806
605.59712	0.03874
603.66846	0.03864
601.73981	0.03868
599.81116	0.03870
597.88250	0.03894
595.95385	0.03923
594.02520	0.03914
592.09654	0.03906
590.16789	0.03927
588.23924	0.03944
586.31059	0.03936
584.38193	0.03916
582.45328	0.03905
580.52463	0.03909
578.59597	0.03912
576.66732	0.03910
574.73867	0.03922
572.81001	0.03937
570.88136	0.03927
568.95271	0.03901
567.02405	0.03897
565.09540	0.03910
563.16675	0.03931
561.23809	0.03972
559.30944	0.04005
557.38079	0.03998
555.45213	0.03970
553.52348	0.03952
551.59483	0.03952
549.66617	0.03961
547.73752	0.03969
545.80887	0.03967
543.88021	0.03952
541.95156	0.03936
540.02291	0.03935
538.09425	0.03935
536.16560	0.03926
534.23695	0.03917
532.30829	0.03919
530.37964	0.03919
528.45099	0.03906
526.52233	0.03888
524.59368	0.03868
522.66503	0.03837
520.73637	0.03808
518.80772	0.03789
516.87907	0.03773
514.95042	0.03760
513.02176	0.03745
511.09311	0.03722
509.16446	0.03708
507.23580	0.03695
505.30715	0.03668
503.37850	0.03649
501.44984	0.03655
499.52119	0.03666
497.59254	0.03664
495.66388	0.03638
493.73523	0.03589
491.80658	0.03536
489.87792	0.03495
487.94927	0.03473
486.02062	0.03454
484.09196	0.03421
482.16331	0.03383
480.23466	0.03352
478.30600	0.03335
476.37735	0.03335
474.44870	0.03341
472.52004	0.03330
470.59139	0.03300
468.66274	0.03264
466.73408	0.03234
464.80543	0.03211
462.87678	0.03194
460.94812	0.03177
459.01947	0.03150
457.09082	0.03120
455.16216	0.03093
453.23351	0.03063
451.30486	0.03029
449.37620	0.03002
447.44755	0.02986
445.51890	0.02967
443.59025	0.02945
441.66159	0.02919
439.73294	0.02894
437.80429	0.02878
435.87563	0.02871
433.94698	0.02868
432.01833	0.02860
430.08967	0.02838
428.16102	0.02808
426.23237	0.02776
424.30371	0.02747
422.37506	0.02731
420.44641	0.02723
418.51775	0.02706
416.58910	0.02673
414.66045	0.02645
412.73179	0.02637
410.80314	0.02636
408.87449	0.02625
406.94583	0.02605
405.01718	0.02589
403.08853	0.02574
401.15987	0.02557
399.23122	0.02546
