3996.16951	0.03392
3994.24086	0.03431
3992.31221	0.03474
3990.38355	0.03467
3988.45490	0.03428
3986.52625	0.03428
3984.59759	0.03465
3982.66894	0.03497
3980.74029	0.03507
3978.81163	0.03507
3976.88298	0.03511
3974.95433	0.03524
3973.02567	0.03536
3971.09702	0.03531
3969.16837	0.03506
3967.23972	0.03472
3965.31106	0.03423
3963.38241	0.03364
3961.45376	0.03347
3959.52510	0.03382
3957.59645	0.03406
3955.66780	0.03396
3953.73914	0.03378
3951.81049	0.03354
3949.88184	0.03328
3947.95318	0.03333
3946.02453	0.03381
3944.09588	0.03432
3942.16722	0.03454
3940.23857	0.03444
3938.30992	0.03409
3936.38126	0.03353
3934.45261	0.03277
3932.52396	0.03224
3930.59530	0.03238
3928.66665	0.03285
3926.73800	0.03302
3924.80934	0.03280
3922.88069	0.03281
3920.95204	0.03306
3919.02338	0.03331
3917.09473	0.03378
3915.16608	0.03432
3913.23742	0.03409
3911.30877	0.03331
3909.38012	0.03292
3907.45146	0.03292
3905.52281	0.03267
3903.59416	0.03247
3901.66550	0.03281
3899.73685	0.03335
3897.80820	0.03378
3895.87955	0.03377
3893.95089	0.03315
3892.02224	0.03236
3890.09359	0.03219
3888.16493	0.03243
3886.23628	0.03275
3884.30763	0.03335
3882.37897	0.03353
3880.45032	0.03340
3878.52167	0.03358
3876.59301	0.03351
3874.66436	0.03291
3872.73571	0.03219
3870.80705	0.03153
3868.87840	0.03163
3866.94975	0.03218
3865.02109	0.03256
3863.09244	0.03285
3861.16379	0.03301
3859.23513	0.03342
3857.30648	0.03381
3855.37783	0.03321
3853.44917	0.03247
3851.52052	0.03263
3849.59187	0.03279
3847.66321	0.03263
3845.73456	0.03241
3843.80591	0.03238
3841.87725	0.03245
3839.94860	0.03203
3838.01995	0.03138
3836.09129	0.03140
3834.16264	0.03156
3832.23399	0.03134
3830.30534	0.03107
3828.37668	0.03112
3826.44803	0.03159
3824.51938	0.03206
3822.59072	0.03187
3820.66207	0.03161
3818.73342	0.03149
3816.80476	0.03093
3814.87611	0.03084
3812.94746	0.03125
3811.01880	0.03173
3809.09015	0.03208
3807.16150	0.03206
3805.23284	0.03234
3803.30419	0.03237
3801.37554	0.03198
3799.44688	0.03191
3797.51823	0.03158
3795.58958	0.03119
3793.66092	0.03109
3791.73227	0.03106
3789.80362	0.03100
3787.87496	0.03077
3785.94631	0.03033
3784.01766	0.03008
3782.08900	0.03025
3780.16035	0.03053
3778.23170	0.03076
3776.30304	0.03097
3774.37439	0.03126
3772.44574	0.03149
3770.51708	0.03135
3768.58843	0.03106
3766.65978	0.03061
3764.73112	0.03013
3762.80247	0.02983
3760.87382	0.02963
3758.94517	0.02971
3757.01651	0.03010
3755.08786	0.03067
3753.15921	0.03107
3751.23055	0.03121
3749.30190	0.03114
3747.37325	0.03118
3745.44459	0.03067
3743.51594	0.03031
3741.58729	0.03046
3739.65863	0.03069
3737.72998	0.03087
3735.80133	0.03091
3733.87267	0.03097
3731.94402	0.03056
3730.01537	0.03019
3728.08671	0.03002
3726.15806	0.02983
3724.22941	0.02948
3722.30075	0.02900
3720.37210	0.02864
3718.44345	0.02852
3716.51479	0.02881
3714.58614	0.02917
3712.65749	0.02904
3710.72883	0.02892
3708.80018	0.02915
3706.87153	0.02934
3704.94287	0.02914
3703.01422	0.02870
3701.08557	0.02832
3699.15691	0.02810
3697.22826	0.02788
3695.29961	0.02768
3693.37095	0.02769
3691.44230	0.02824
3689.51365	0.02898
3687.58500	0.02936
3685.65634	0.02912
3683.72769	0.02858
3681.79904	0.02861
3679.87038	0.02916
3677.94173	0.02962
3676.01308	0.02953
3674.08442	0.02947
3672.15577	0.02912
3670.22712	0.02897
3668.29846	0.02964
3666.36981	0.03011
3664.44116	0.03021
3662.51250	0.03020
3660.58385	0.03008
3658.65520	0.02975
3656.72654	0.02932
3654.79789	0.02932
3652.86924	0.02948
3650.94058	0.02956
3649.01193	0.02999
3647.08328	0.03044
3645.15462	0.03046
3643.22597	0.03067
3641.29732	0.03134
3639.36866	0.03184
3637.44001	0.03194
3635.51136	0.03222
3633.58270	0.03313
3631.65405	0.03388
3629.72540	0.03356
3627.79674	0.03342
3625.86809	0.03392
3623.93944	0.03420
3622.01079	0.03425
3620.08213	0.03432
3618.15348	0.03459
3616.22483	0.03499
3614.29617	0.03550
3612.36752	0.03589
3610.43887	0.03576
3608.51021	0.03553
3606.58156	0.03579
3604.65291	0.03610
3602.72425	0.03632
3600.79560	0.03690
3598.86695	0.03777
3596.93829	0.03814
3595.00964	0.03795
3593.08099	0.03798
3591.15233	0.03864
3589.22368	0.03956
3587.29503	0.04020
3585.36637	0.04024
3583.43772	0.03997
3581.50907	0.03998
3579.58041	0.04041
3577.65176	0.04092
3575.72311	0.04139
3573.79445	0.04189
3571.86580	0.04243
3569.93715	0.04285
3568.00849	0.04304
3566.07984	0.04340
3564.15119	0.04412
3562.22253	0.04484
3560.29388	0.04525
3558.36523	0.04524
3556.43657	0.04503
3554.50792	0.04503
3552.57927	0.04539
3550.65062	0.04606
3548.72196	0.04686
3546.79331	0.04756
3544.86466	0.04781
3542.93600	0.04762
3541.00735	0.04756
3539.07870	0.04792
3537.15004	0.04847
3535.22139	0.04906
3533.29274	0.04963
3531.36408	0.05013
3529.43543	0.05061
3527.50678	0.05074
3525.57812	0.05040
3523.64947	0.05027
3521.72082	0.05071
3519.79216	0.05140
3517.86351	0.05211
3515.93486	0.05274
3514.00620	0.05299
3512.07755	0.05286
3510.14890	0.05277
3508.22024	0.05298
3506.29159	0.05342
3504.36294	0.05373
3502.43428	0.05371
3500.50563	0.05381
3498.57698	0.05454
3496.64832	0.05531
3494.71967	0.05556
3492.79102	0.05586
3490.86236	0.05652
3488.93371	0.05703
3487.00506	0.05732
3485.07641	0.05761
3483.14775	0.05769
3481.21910	0.05751
3479.29045	0.05732
3477.36179	0.05739
3475.43314	0.05768
3473.50449	0.05790
3471.57583	0.05819
3469.64718	0.05876
3467.71853	0.05937
3465.78987	0.05976
3463.86122	0.05997
3461.93257	0.06007
3460.00391	0.05995
3458.07526	0.05980
3456.14661	0.06013
3454.21795	0.06088
3452.28930	0.06166
3450.36065	0.06214
3448.43199	0.06216
3446.50334	0.06196
3444.57469	0.06201
3442.64603	0.06219
3440.71738	0.06237
3438.78873	0.06283
3436.86007	0.06346
3434.93142	0.06382
3433.00277	0.06390
3431.07411	0.06388
3429.14546	0.06400
3427.21681	0.06451
3425.28815	0.06509
3423.35950	0.06520
3421.43085	0.06494
3419.50219	0.06498
3417.57354	0.06559
3415.64489	0.06631
3413.71624	0.06680
3411.78758	0.06722
3409.85893	0.06762
3407.93028	0.06768
3406.00162	0.06753
3404.07297	0.06764
3402.14432	0.06793
3400.21566	0.06805
3398.28701	0.06812
3396.35836	0.06835
3394.42970	0.06863
3392.50105	0.06899
3390.57240	0.06935
3388.64374	0.06937
3386.71509	0.06908
3384.78644	0.06871
3382.85778	0.06861
3380.92913	0.06887
3379.00048	0.06912
3377.07182	0.06933
3375.14317	0.06972
3373.21452	0.07034
3371.28586	0.07098
3369.35721	0.07115
3367.42856	0.07082
3365.49990	0.07057
3363.57125	0.07070
3361.64260	0.07097
3359.71394	0.07106
3357.78529	0.07109
3355.85664	0.07127
3353.92798	0.07141
3351.99933	0.07140
3350.07068	0.07154
3348.14202	0.07181
3346.21337	0.07183
3344.28472	0.07176
3342.35607	0.07198
3340.42741	0.07236
3338.49876	0.07265
3336.57011	0.07284
3334.64145	0.07309
3332.71280	0.07338
3330.78415	0.07337
3328.85549	0.07317
3326.92684	0.07323
3324.99819	0.07353
3323.06953	0.07375
3321.14088	0.07381
3319.21223	0.07388
3317.28357	0.07420
3315.35492	0.07463
3313.42627	0.07481
3311.49761	0.07460
3309.56896	0.07427
3307.64031	0.07415
3305.71165	0.07434
3303.78300	0.07449
3301.85435	0.07407
3299.92569	0.07344
3297.99704	0.07327
3296.06839	0.07350
3294.13973	0.07388
3292.21108	0.07424
3290.28243	0.07432
3288.35377	0.07413
3286.42512	0.07394
3284.49647	0.07394
3282.56781	0.07411
3280.63916	0.07437
3278.71051	0.07473
3276.78186	0.07487
3274.85320	0.07437
3272.92455	0.07361
3270.99590	0.07340
3269.06724	0.07378
3267.13859	0.07397
3265.20994	0.07366
3263.28128	0.07336
3261.35263	0.07335
3259.42398	0.07338
3257.49532	0.07322
3255.56667	0.07289
3253.63802	0.07254
3251.70936	0.07229
3249.78071	0.07227
3247.85206	0.07230
3245.92340	0.07214
3243.99475	0.07201
3242.06610	0.07218
3240.13744	0.07236
3238.20879	0.07217
3236.28014	0.07183
3234.35148	0.07163
3232.42283	0.07147
3230.49418	0.07131
3228.56552	0.07137
3226.63687	0.07162
3224.70822	0.07185
3222.77956	0.07193
3220.85091	0.07185
3218.92226	0.07166
3216.99360	0.07129
3215.06495	0.07077
3213.13630	0.07040
3211.20764	0.07036
3209.27899	0.07037
3207.35034	0.07028
3205.42169	0.07025
3203.49303	0.07039
3201.56438	0.07059
3199.63573	0.07057
3197.70707	0.07020
3195.77842	0.06986
3193.84977	0.06964
3191.92111	0.06902
3189.99246	0.06827
3188.06381	0.06813
3186.13515	0.06842
3184.20650	0.06865
3182.27785	0.06869
3180.34919	0.06859
3178.42054	0.06834
3176.49189	0.06794
3174.56323	0.06753
3172.63458	0.06723
3170.70593	0.06697
3168.77727	0.06677
3166.84862	0.06672
3164.91997	0.06674
3162.99131	0.06667
3161.06266	0.06650
3159.13401	0.06642
3157.20535	0.06646
3155.27670	0.06635
3153.34805	0.06588
3151.41939	0.06538
3149.49074	0.06517
3147.56209	0.06514
3145.63343	0.06526
3143.70478	0.06536
3141.77613	0.06510
3139.84748	0.06455
3137.91882	0.06410
3135.99017	0.06388
3134.06152	0.06385
3132.13286	0.06402
3130.20421	0.06419
3128.27556	0.06406
3126.34690	0.06373
3124.41825	0.06361
3122.48960	0.06366
3120.56094	0.06352
3118.63229	0.06322
3116.70364	0.06298
3114.77498	0.06280
3112.84633	0.06278
3110.91768	0.06278
3108.98902	0.06250
3107.06037	0.06236
3105.13172	0.06268
3103.20306	0.06282
3101.27441	0.06255
3099.34576	0.06233
3097.41710	0.06234
3095.48845	0.06245
3093.55980	0.06268
3091.63114	0.06293
3089.70249	0.06292
3087.77384	0.06265
3085.84518	0.06238
3083.91653	0.06208
3081.98788	0.06190
3080.05922	0.06198
3078.13057	0.06215
3076.20192	0.06209
3074.27326	0.06174
3072.34461	0.06137
3070.41596	0.06120
3068.48731	0.06115
3066.55865	0.06123
3064.63000	0.06151
3062.70135	0.06176
3060.77269	0.06178
3058.84404	0.06155
3056.91539	0.06121
3054.98673	0.06103
3053.05808	0.06097
3051.12943	0.06057
3049.20077	0.05988
3047.27212	0.05944
3045.34347	0.05948
3043.41481	0.05967
3041.48616	0.05955
3039.55751	0.05918
3037.62885	0.05888
3035.70020	0.05870
3033.77155	0.05851
3031.84289	0.05838
3029.91424	0.05832
3027.98559	0.05813
3026.05693	0.05775
3024.12828	0.05738
3022.19963	0.05718
3020.27097	0.05711
3018.34232	0.05700
3016.41367	0.05687
3014.48501	0.05685
3012.55636	0.05686
3010.62771	0.05664
3008.69905	0.05623
3006.77040	0.05612
3004.84175	0.05643
3002.91309	0.05658
3000.98444	0.05630
2999.05579	0.05602
2997.12714	0.05603
2995.19848	0.05601
2993.26983	0.05576
2991.34118	0.05561
2989.41252	0.05570
2987.48387	0.05584
2985.55522	0.05593
2983.62656	0.05592
2981.69791	0.05588
2979.76926	0.05593
2977.84060	0.05595
2975.91195	0.05596
2973.98330	0.05610
2972.05464	0.05602
2970.12599	0.05557
2968.19734	0.05521
2966.26868	0.05533
2964.34003	0.05554
2962.41138	0.05551
2960.48272	0.05538
2958.55407	0.05536
2956.62542	0.05539
2954.69676	0.05523
2952.76811	0.05493
2950.83946	0.05489
2948.91080	0.05500
2946.98215	0.05480
2945.05350	0.05430
2943.12484	0.05394
2941.19619	0.05392
2939.26754	0.05406
2937.33888	0.05401
2935.41023	0.05365
2933.48158	0.05334
2931.55293	0.05326
2929.62427	0.05321
2927.69562	0.05322
2925.76697	0.05319
2923.83831	0.05293
2921.90966	0.05283
2919.98101	0.05302
2918.05235	0.05308
2916.12370	0.05278
2914.19505	0.05239
2912.26639	0.05226
2910.33774	0.05216
2908.40909	0.05182
2906.48043	0.05147
2904.55178	0.05128
2902.62313	0.05121
2900.69447	0.05111
2898.76582	0.05091
2896.83717	0.05078
2894.90851	0.05070
2892.97986	0.05048
2891.05121	0.05013
2889.12255	0.04996
2887.19390	0.05006
2885.26525	0.05006
2883.33659	0.04983
2881.40794	0.04961
2879.47929	0.04954
2877.55063	0.04948
2875.62198	0.04930
2873.69333	0.04901
2871.76467	0.04878
2869.83602	0.04874
2867.90737	0.04875
2865.97871	0.04857
2864.05006	0.04825
2862.12141	0.04796
2860.19276	0.04771
2858.26410	0.04740
2856.33545	0.04699
2854.40680	0.04664
2852.47814	0.04649
2850.54949	0.04652
2848.62084	0.04659
2846.69218	0.04653
2844.76353	0.04623
2842.83488	0.04591
2840.90622	0.04588
2838.97757	0.04605
2837.04892	0.04600
2835.12026	0.04554
2833.19161	0.04501
2831.26296	0.04478
2829.33430	0.04480
2827.40565	0.04484
2825.47700	0.04482
2823.54834	0.04465
2821.61969	0.04437
2819.69104	0.04420
2817.76238	0.04411
2815.83373	0.04398
2813.90508	0.04391
2811.97642	0.04392
2810.04777	0.04385
2808.11912	0.04365
2806.19046	0.04332
2804.26181	0.04295
2802.33316	0.04271
2800.40450	0.04278
2798.47585	0.04298
2796.54720	0.04291
2794.61855	0.04256
2792.68989	0.04236
2790.76124	0.04243
2788.83259	0.04252
2786.90393	0.04238
2784.97528	0.04216
2783.04663	0.04210
2781.11797	0.04210
2779.18932	0.04201
2777.26067	0.04186
2775.33201	0.04166
2773.40336	0.04143
2771.47471	0.04119
2769.54605	0.04097
2767.61740	0.04082
2765.68875	0.04075
2763.76009	0.04074
2761.83144	0.04081
2759.90279	0.04085
2757.97413	0.04072
2756.04548	0.04042
2754.11683	0.04018
2752.18817	0.04009
2750.25952	0.04006
2748.33087	0.03988
2746.40221	0.03948
2744.47356	0.03910
2742.54491	0.03896
2740.61625	0.03905
2738.68760	0.03919
2736.75895	0.03924
2734.83029	0.03920
2732.90164	0.03915
2730.97299	0.03903
2729.04433	0.03876
2727.11568	0.03847
2725.18703	0.03831
2723.25838	0.03833
2721.32972	0.03840
2719.40107	0.03829
2717.47242	0.03810
2715.54376	0.03803
2713.61511	0.03804
2711.68646	0.03799
2709.75780	0.03788
2707.82915	0.03756
2705.90050	0.03713
2703.97184	0.03698
2702.04319	0.03710
2700.11454	0.03720
2698.18588	0.03719
2696.25723	0.03704
2694.32858	0.03692
2692.39992	0.03698
2690.47127	0.03707
2688.54262	0.03703
2686.61396	0.03679
2684.68531	0.03646
2682.75666	0.03625
2680.82800	0.03617
2678.89935	0.03610
2676.97070	0.03596
2675.04204	0.03570
2673.11339	0.03551
2671.18474	0.03556
2669.25608	0.03568
2667.32743	0.03562
2665.39878	0.03540
2663.47012	0.03510
2661.54147	0.03481
2659.61282	0.03466
2657.68417	0.03464
2655.75551	0.03459
2653.82686	0.03454
2651.89821	0.03454
2649.96955	0.03441
2648.04090	0.03398
2646.11225	0.03348
2644.18359	0.03310
2642.25494	0.03296
2640.32629	0.03315
2638.39763	0.03335
2636.46898	0.03307
2634.54033	0.03246
2632.61167	0.03198
2630.68302	0.03178
2628.75437	0.03162
2626.82571	0.03138
2624.89706	0.03131
2622.96841	0.03147
2621.03975	0.03145
2619.11110	0.03119
2617.18245	0.03088
2615.25379	0.03063
2613.32514	0.03048
2611.39649	0.03038
2609.46783	0.03018
2607.53918	0.02983
2605.61053	0.02948
2603.68187	0.02943
2601.75322	0.02960
2599.82457	0.02970
2597.89591	0.02965
2595.96726	0.02951
2594.03861	0.02929
2592.10995	0.02906
2590.18130	0.02877
2588.25265	0.02848
2586.32400	0.02836
2584.39534	0.02845
2582.46669	0.02861
2580.53804	0.02871
2578.60938	0.02862
2576.68073	0.02838
2574.75208	0.02812
2572.82342	0.02786
2570.89477	0.02755
2568.96612	0.02740
2567.03746	0.02762
2565.10881	0.02789
2563.18016	0.02779
2561.25150	0.02752
2559.32285	0.02749
2557.39420	0.02760
2555.46554	0.02753
2553.53689	0.02739
2551.60824	0.02741
2549.67958	0.02749
2547.75093	0.02743
2545.82228	0.02712
2543.89362	0.02660
2541.96497	0.02628
2540.03632	0.02633
2538.10766	0.02651
2536.17901	0.02653
2534.25036	0.02629
2532.32170	0.02599
2530.39305	0.02585
2528.46440	0.02592
2526.53574	0.02606
2524.60709	0.02619
2522.67844	0.02634
2520.74978	0.02651
2518.82113	0.02655
2516.89248	0.02650
2514.96383	0.02655
2513.03517	0.02661
2511.10652	0.02658
2509.17787	0.02655
2507.24921	0.02634
2505.32056	0.02594
2503.39191	0.02559
2501.46325	0.02523
2499.53460	0.02490
2497.60595	0.02485
2495.67729	0.02496
2493.74864	0.02509
2491.81999	0.02538
2489.89133	0.02560
2487.96268	0.02538
2486.03403	0.02502
2484.10537	0.02499
2482.17672	0.02517
2480.24807	0.02527
2478.31941	0.02521
2476.39076	0.02511
2474.46211	0.02503
2472.53345	0.02500
2470.60480	0.02508
2468.67615	0.02519
2466.74749	0.02516
2464.81884	0.02507
2462.89019	0.02504
2460.96153	0.02488
2459.03288	0.02452
2457.10423	0.02427
2455.17557	0.02438
2453.24692	0.02465
2451.31827	0.02484
2449.38962	0.02483
2447.46096	0.02485
2445.53231	0.02496
2443.60366	0.02481
2441.67500	0.02448
2439.74635	0.02440
2437.81770	0.02453
2435.88904	0.02446
2433.96039	0.02425
2432.03174	0.02426
2430.10308	0.02442
2428.17443	0.02443
2426.24578	0.02424
2424.31712	0.02405
2422.38847	0.02405
2420.45982	0.02428
2418.53116	0.02444
2416.60251	0.02424
2414.67386	0.02400
2412.74520	0.02405
2410.81655	0.02408
2408.88790	0.02389
2406.95924	0.02384
2405.03059	0.02397
2403.10194	0.02403
2401.17328	0.02421
2399.24463	0.02443
2397.31598	0.02440
2395.38732	0.02424
2393.45867	0.02420
2391.53002	0.02431
2389.60136	0.02457
2387.67271	0.02486
2385.74406	0.02493
2383.81540	0.02472
2381.88675	0.02441
2379.95810	0.02421
2378.02945	0.02420
2376.10079	0.02425
2374.17214	0.02426
2372.24349	0.02418
2370.31483	0.02401
2368.38618	0.02403
2366.45753	0.02434
2364.52887	0.02455
2362.60022	0.02451
2360.67157	0.02445
2358.74291	0.02452
2356.81426	0.02472
2354.88561	0.02488
2352.95695	0.02479
2351.02830	0.02463
2349.09965	0.02470
2347.17099	0.02488
2345.24234	0.02488
2343.31369	0.02475
2341.38503	0.02470
2339.45638	0.02469
2337.52773	0.02461
2335.59907	0.02447
2333.67042	0.02437
2331.74177	0.02443
2329.81311	0.02444
2327.88446	0.02421
2325.95581	0.02388
2324.02715	0.02368
2322.09850	0.02374
2320.16985	0.02391
2318.24119	0.02384
2316.31254	0.02357
2314.38389	0.02327
2312.45524	0.02299
2310.52658	0.02282
2308.59793	0.02282
2306.66928	0.02289
2304.74062	0.02275
2302.81197	0.02239
2300.88332	0.02212
2298.95466	0.02196
2297.02601	0.02180
2295.09736	0.02185
2293.16870	0.02202
2291.24005	0.02189
2289.31140	0.02162
2287.38274	0.02147
2285.45409	0.02120
2283.52544	0.02068
2281.59678	0.02023
2279.66813	0.01995
2277.73948	0.01965
2275.81082	0.01939
2273.88217	0.01939
2271.95352	0.01943
2270.02486	0.01930
2268.09621	0.01916
2266.16756	0.01894
2264.23890	0.01842
2262.31025	0.01783
2260.38160	0.01752
2258.45294	0.01756
2256.52429	0.01781
2254.59564	0.01791
2252.66698	0.01753
2250.73833	0.01694
2248.80968	0.01680
2246.88102	0.01744
2244.95237	0.01828
2243.02372	0.01826
2241.09507	0.01780
2239.16641	0.01767
2237.23776	0.01758
2235.30911	0.01714
2233.38045	0.01626
2231.45180	0.01540
2229.52315	0.01513
2227.59449	0.01520
2225.66584	0.01494
2223.73719	0.01452
2221.80853	0.01446
2219.87988	0.01428
2217.95123	0.01378
2216.02257	0.01390
2214.09392	0.01473
2212.16527	0.01487
2210.23661	0.01407
2208.30796	0.01369
2206.37931	0.01380
2204.45065	0.01323
2202.52200	0.01246
2200.59335	0.01273
2198.66469	0.01354
2196.73604	0.01383
2194.80739	0.01348
2192.87873	0.01241
2190.95008	0.01080
2189.02143	0.00961
2187.09277	0.00947
2185.16412	0.00986
2183.23547	0.00983
2181.30681	0.00958
2179.37816	0.00978
2177.44951	0.01023
2175.52085	0.01068
2173.59220	0.01098
2171.66355	0.01076
2169.73490	0.01056
2167.80624	0.01083
2165.87759	0.01074
2163.94894	0.00989
2162.02028	0.00874
2160.09163	0.00811
2158.16298	0.00825
2156.23432	0.00869
2154.30567	0.00975
2152.37702	0.01126
2150.44836	0.01183
2148.51971	0.01118
2146.59106	0.01038
2144.66240	0.01022
2142.73375	0.01070
2140.80510	0.01117
2138.87644	0.01104
2136.94779	0.01095
2135.01914	0.01170
2133.09048	0.01264
2131.16183	0.01314
2129.23318	0.01322
2127.30452	0.01296
2125.37587	0.01314
2123.44722	0.01392
2121.51856	0.01418
2119.58991	0.01399
2117.66126	0.01390
2115.73260	0.01368
2113.80395	0.01329
2111.87530	0.01314
2109.94664	0.01332
2108.01799	0.01360
2106.08934	0.01394
2104.16069	0.01422
2102.23203	0.01411
2100.30338	0.01394
2098.37473	0.01410
2096.44607	0.01423
2094.51742	0.01386
2092.58877	0.01342
2090.66011	0.01328
2088.73146	0.01303
2086.80281	0.01244
2084.87415	0.01208
2082.94550	0.01214
2081.01685	0.01220
2079.08819	0.01208
2077.15954	0.01175
2075.23089	0.01101
2073.30223	0.01012
2071.37358	0.00961
2069.44493	0.00958
2067.51627	0.00980
2065.58762	0.00985
2063.65897	0.00930
2061.73031	0.00848
2059.80166	0.00840
2057.87301	0.00891
2055.94435	0.00887
2054.01570	0.00828
2052.08705	0.00778
2050.15839	0.00731
2048.22974	0.00695
2046.30109	0.00696
2044.37243	0.00697
2042.44378	0.00658
2040.51513	0.00572
2038.58647	0.00465
2036.65782	0.00394
2034.72917	0.00391
2032.80052	0.00407
2030.87186	0.00404
2028.94321	0.00432
2027.01456	0.00490
2025.08590	0.00493
2023.15725	0.00467
2021.22860	0.00509
2019.29994	0.00565
2017.37129	0.00552
2015.44264	0.00537
2013.51398	0.00552
2011.58533	0.00532
2009.65668	0.00479
2007.72802	0.00467
2005.79937	0.00514
2003.87072	0.00611
2001.94206	0.00740
2000.01341	0.00810
1998.08476	0.00794
1996.15610	0.00796
1994.22745	0.00845
1992.29880	0.00879
1990.37014	0.00875
1988.44149	0.00841
1986.51284	0.00848
1984.58418	0.00905
1982.65553	0.00888
1980.72688	0.00754
1978.79822	0.00623
1976.86957	0.00620
1974.94092	0.00743
1973.01226	0.00863
1971.08361	0.00889
1969.15496	0.00869
1967.22631	0.00870
1965.29765	0.00872
1963.36900	0.00868
1961.44035	0.00883
1959.51169	0.00923
1957.58304	0.00997
1955.65439	0.01095
1953.72573	0.01154
1951.79708	0.01163
1949.86843	0.01156
1947.93977	0.01128
1946.01112	0.01081
1944.08247	0.01075
1942.15381	0.01131
1940.22516	0.01202
1938.29651	0.01255
1936.36785	0.01301
1934.43920	0.01339
1932.51055	0.01346
1930.58189	0.01300
1928.65324	0.01237
1926.72459	0.01234
1924.79593	0.01284
1922.86728	0.01311
1920.93863	0.01309
1919.00997	0.01322
1917.08132	0.01352
1915.15267	0.01377
1913.22401	0.01389
1911.29536	0.01372
1909.36671	0.01329
1907.43805	0.01300
1905.50940	0.01298
1903.58075	0.01293
1901.65209	0.01285
1899.72344	0.01297
1897.79479	0.01321
1895.86614	0.01347
1893.93748	0.01377
1892.00883	0.01375
1890.08018	0.01333
1888.15152	0.01296
1886.22287	0.01276
1884.29422	0.01272
1882.36556	0.01291
1880.43691	0.01325
1878.50826	0.01356
1876.57960	0.01376
1874.65095	0.01385
1872.72230	0.01385
1870.79364	0.01373
1868.86499	0.01358
1866.93634	0.01353
1865.00768	0.01355
1863.07903	0.01363
1861.15038	0.01367
1859.22172	0.01350
1857.29307	0.01323
1855.36442	0.01305
1853.43576	0.01299
1851.50711	0.01298
1849.57846	0.01311
1847.64980	0.01345
1845.72115	0.01370
1843.79250	0.01382
1841.86384	0.01400
1839.93519	0.01398
1838.00654	0.01375
1836.07788	0.01362
1834.14923	0.01365
1832.22058	0.01361
1830.29192	0.01345
1828.36327	0.01343
1826.43462	0.01348
1824.50597	0.01350
1822.57731	0.01354
1820.64866	0.01360
1818.72001	0.01371
1816.79135	0.01388
1814.86270	0.01398
1812.93405	0.01395
1811.00539	0.01390
1809.07674	0.01390
1807.14809	0.01398
1805.21943	0.01410
1803.29078	0.01416
1801.36213	0.01417
1799.43347	0.01421
1797.50482	0.01422
1795.57617	0.01414
1793.64751	0.01400
1791.71886	0.01401
1789.79021	0.01422
1787.86155	0.01425
1785.93290	0.01402
1784.00425	0.01390
1782.07559	0.01401
1780.14694	0.01413
1778.21829	0.01417
1776.28963	0.01415
1774.36098	0.01405
1772.43233	0.01400
1770.50367	0.01416
1768.57502	0.01434
1766.64637	0.01457
1764.71771	0.01468
1762.78906	0.01449
1760.86041	0.01437
1758.93176	0.01436
1757.00310	0.01429
1755.07445	0.01425
1753.14580	0.01419
1751.21714	0.01411
1749.28849	0.01417
1747.35984	0.01427
1745.43118	0.01435
1743.50253	0.01440
1741.57388	0.01442
1739.64522	0.01441
1737.71657	0.01455
1735.78792	0.01467
1733.85926	0.01480
1731.93061	0.01505
1730.00196	0.01510
1728.07330	0.01508
1726.14465	0.01514
1724.21600	0.01527
1722.28734	0.01551
1720.35869	0.01574
1718.43004	0.01586
1716.50138	0.01619
1714.57273	0.01666
1712.64408	0.01706
1710.71542	0.01762
1708.78677	0.01843
1706.85812	0.01932
1704.92946	0.02044
1703.00081	0.02183
1701.07216	0.02315
1699.14350	0.02477
1697.21485	0.02637
1695.28620	0.02787
1693.35754	0.02969
1691.42889	0.03138
1689.50024	0.03310
1687.57159	0.03491
1685.64293	0.03647
1683.71428	0.03816
1681.78563	0.03997
1679.85697	0.04151
1677.92832	0.04308
1675.99967	0.04468
1674.07101	0.04638
1672.14236	0.04798
1670.21371	0.04935
1668.28505	0.05078
1666.35640	0.05227
1664.42775	0.05366
1662.49909	0.05504
1660.57044	0.05635
1658.64179	0.05745
1656.71313	0.05852
1654.78448	0.05942
1652.85583	0.06024
1650.92717	0.06117
1648.99852	0.06159
1647.06987	0.06172
1645.14121	0.06206
1643.21256	0.06233
1641.28391	0.06226
1639.35525	0.06203
1637.42660	0.06160
1635.49795	0.06099
1633.56929	0.06032
1631.64064	0.05930
1629.71199	0.05803
1627.78333	0.05677
1625.85468	0.05552
1623.92603	0.05418
1621.99738	0.05284
1620.06872	0.05153
1618.14007	0.05016
1616.21142	0.04891
1614.28276	0.04779
1612.35411	0.04650
1610.42546	0.04533
1608.49680	0.04443
1606.56815	0.04366
1604.63950	0.04294
1602.71084	0.04226
1600.78219	0.04168
1598.85354	0.04119
1596.92488	0.04080
1594.99623	0.04050
1593.06758	0.04032
1591.13892	0.04027
1589.21027	0.04030
1587.28162	0.04033
1585.35296	0.04034
1583.42431	0.04040
1581.49566	0.04061
1579.56700	0.04098
1577.63835	0.04128
1575.70970	0.04163
1573.78104	0.04216
1571.85239	0.04250
1569.92374	0.04277
1567.99508	0.04322
1566.06643	0.04365
1564.13778	0.04407
1562.20912	0.04453
1560.28047	0.04484
1558.35182	0.04532
1556.42316	0.04590
1554.49451	0.04619
1552.56586	0.04657
1550.63721	0.04704
1548.70855	0.04748
1546.77990	0.04786
1544.85125	0.04815
1542.92259	0.04842
1540.99394	0.04854
1539.06529	0.04870
1537.13663	0.04899
1535.20798	0.04898
1533.27933	0.04881
1531.35067	0.04885
1529.42202	0.04897
1527.49337	0.04909
1525.56471	0.04924
1523.63606	0.04939
1521.70741	0.04948
1519.77875	0.04978
1517.85010	0.05006
1515.92145	0.05026
1513.99279	0.05042
1512.06414	0.05054
1510.13549	0.05075
1508.20683	0.05091
1506.27818	0.05111
1504.34953	0.05147
1502.42087	0.05164
1500.49222	0.05167
1498.56357	0.05171
1496.63491	0.05172
1494.70626	0.05181
1492.77761	0.05192
1490.84895	0.05198
1488.92030	0.05210
1486.99165	0.05225
1485.06299	0.05251
1483.13434	0.05291
1481.20569	0.05345
1479.27704	0.05408
1477.34838	0.05480
1475.41973	0.05560
1473.49108	0.05630
1471.56242	0.05689
1469.63377	0.05734
1467.70512	0.05766
1465.77646	0.05800
1463.84781	0.05850
1461.91916	0.05912
1459.99050	0.05983
1458.06185	0.06060
1456.13320	0.06156
1454.20454	0.06250
1452.27589	0.06306
1450.34724	0.06342
1448.41858	0.06367
1446.48993	0.06380
1444.56128	0.06376
1442.63262	0.06364
1440.70397	0.06356
1438.77532	0.06344
1436.84666	0.06329
1434.91801	0.06332
1432.98936	0.06338
1431.06070	0.06343
1429.13205	0.06368
1427.20340	0.06417
1425.27474	0.06480
1423.34609	0.06558
1421.41744	0.06635
1419.48878	0.06695
1417.56013	0.06746
1415.63148	0.06772
1413.70283	0.06771
1411.77417	0.06751
1409.84552	0.06715
1407.91687	0.06659
1405.98821	0.06576
1404.05956	0.06465
1402.13091	0.06329
1400.20225	0.06174
1398.27360	0.06015
1396.34495	0.05847
1394.41629	0.05657
1392.48764	0.05459
1390.55899	0.05264
1388.63033	0.05075
1386.70168	0.04891
1384.77303	0.04711
1382.84437	0.04532
1380.91572	0.04354
1378.98707	0.04177
1377.05841	0.04012
1375.12976	0.03853
1373.20111	0.03697
1371.27245	0.03553
1369.34380	0.03421
1367.41515	0.03302
1365.48649	0.03192
1363.55784	0.03088
1361.62919	0.02992
1359.70053	0.02909
1357.77188	0.02843
1355.84323	0.02788
1353.91457	0.02738
1351.98592	0.02695
1350.05727	0.02663
1348.12861	0.02638
1346.19996	0.02618
1344.27131	0.02601
1342.34266	0.02584
1340.41400	0.02564
1338.48535	0.02545
1336.55670	0.02528
1334.62804	0.02508
1332.69939	0.02480
1330.77074	0.02452
1328.84208	0.02428
1326.91343	0.02407
1324.98478	0.02388
1323.05612	0.02368
1321.12747	0.02346
1319.19882	0.02324
1317.27016	0.02304
1315.34151	0.02282
1313.41286	0.02258
1311.48420	0.02238
1309.55555	0.02219
1307.62690	0.02192
1305.69824	0.02161
1303.76959	0.02139
1301.84094	0.02128
1299.91228	0.02118
1297.98363	0.02102
1296.05498	0.02084
1294.12632	0.02071
1292.19767	0.02067
1290.26902	0.02072
1288.34036	0.02077
1286.41171	0.02081
1284.48306	0.02084
1282.55440	0.02088
1280.62575	0.02093
1278.69710	0.02093
1276.76845	0.02078
1274.83979	0.02059
1272.91114	0.02050
1270.98249	0.02053
1269.05383	0.02058
1267.12518	0.02060
1265.19653	0.02064
1263.26787	0.02071
1261.33922	0.02079
1259.41057	0.02090
1257.48191	0.02096
1255.55326	0.02097
1253.62461	0.02100
1251.69595	0.02107
1249.76730	0.02113
1247.83865	0.02116
1245.90999	0.02113
1243.98134	0.02105
1242.05269	0.02098
1240.12403	0.02093
1238.19538	0.02089
1236.26673	0.02079
1234.33807	0.02064
1232.40942	0.02041
1230.48077	0.02012
1228.55211	0.01985
1226.62346	0.01956
1224.69481	0.01919
1222.76615	0.01877
1220.83750	0.01846
1218.90885	0.01827
1216.98019	0.01809
1215.05154	0.01787
1213.12289	0.01763
1211.19423	0.01744
1209.26558	0.01732
1207.33693	0.01728
1205.40828	0.01733
1203.47962	0.01740
1201.55097	0.01750
1199.62232	0.01763
1197.69366	0.01758
1195.76501	0.01743
1193.83636	0.01730
1191.90770	0.01717
1189.97905	0.01704
1188.05040	0.01697
1186.12174	0.01702
1184.19309	0.01712
1182.26444	0.01723
1180.33578	0.01736
1178.40713	0.01755
1176.47848	0.01782
1174.54982	0.01814
1172.62117	0.01853
1170.69252	0.01898
1168.76386	0.01949
1166.83521	0.02001
1164.90656	0.02052
1162.97790	0.02117
1161.04925	0.02192
1159.12060	0.02265
1157.19194	0.02340
1155.26329	0.02423
1153.33464	0.02523
1151.40598	0.02637
1149.47733	0.02739
1147.54868	0.02827
1145.62002	0.02929
1143.69137	0.03064
1141.76272	0.03223
1139.83406	0.03385
1137.90541	0.03539
1135.97676	0.03702
1134.04811	0.03891
1132.11945	0.04101
1130.19080	0.04329
1128.26215	0.04587
1126.33349	0.04874
1124.40484	0.05186
1122.47619	0.05520
1120.54753	0.05868
1118.61888	0.06225
1116.69023	0.06586
1114.76157	0.06955
1112.83292	0.07330
1110.90427	0.07708
1108.97561	0.08087
1107.04696	0.08460
1105.11831	0.08825
1103.18965	0.09188
1101.26100	0.09550
1099.33235	0.09894
1097.40369	0.10213
1095.47504	0.10512
1093.54639	0.10799
1091.61773	0.11085
1089.68908	0.11366
1087.76043	0.11637
1085.83177	0.11915
1083.90312	0.12205
1081.97447	0.12496
1080.04581	0.12784
1078.11716	0.13082
1076.18851	0.13392
1074.25985	0.13717
1072.33120	0.14060
1070.40255	0.14412
1068.47390	0.14759
1066.54524	0.15106
1064.61659	0.15460
1062.68794	0.15818
1060.75928	0.16183
1058.83063	0.16556
1056.90198	0.16913
1054.97332	0.17236
1053.04467	0.17545
1051.11602	0.17870
1049.18736	0.18209
1047.25871	0.18565
1045.33006	0.18937
1043.40140	0.19303
1041.47275	0.19651
1039.54410	0.20006
1037.61544	0.20380
1035.68679	0.20754
1033.75814	0.21109
1031.82948	0.21434
1029.90083	0.21723
1027.97218	0.21976
1026.04352	0.22193
1024.11487	0.22367
1022.18622	0.22497
1020.25756	0.22590
1018.32891	0.22627
1016.40026	0.22589
1014.47160	0.22479
1012.54295	0.22316
1010.61430	0.22106
1008.68564	0.21842
1006.75699	0.21528
1004.82834	0.21163
1002.89968	0.20737
1000.97103	0.20250
999.04238	0.19725
997.11373	0.19175
995.18507	0.18595
993.25642	0.17992
991.32777	0.17381
989.39911	0.16757
987.47046	0.16110
985.54181	0.15445
983.61315	0.14783
981.68450	0.14135
979.75585	0.13490
977.82719	0.12853
975.89854	0.12257
973.96989	0.11723
972.04123	0.11248
970.11258	0.10839
968.18393	0.10519
966.25527	0.10305
964.32662	0.10186
962.39797	0.10130
960.46931	0.10074
958.54066	0.09969
956.61201	0.09800
954.68335	0.09568
952.75470	0.09292
950.82605	0.08995
948.89739	0.08694
946.96874	0.08400
945.04009	0.08121
943.11143	0.07860
941.18278	0.07613
939.25413	0.07368
937.32547	0.07111
935.39682	0.06862
933.46817	0.06635
931.53952	0.06428
929.61086	0.06237
927.68221	0.06065
925.75356	0.05910
923.82490	0.05761
921.89625	0.05624
919.96760	0.05512
918.03894	0.05415
916.11029	0.05310
914.18164	0.05206
912.25298	0.05124
910.32433	0.05059
908.39568	0.04990
906.46702	0.04921
904.53837	0.04854
902.60972	0.04798
900.68106	0.04762
898.75241	0.04735
896.82376	0.04692
894.89510	0.04633
892.96645	0.04587
891.03780	0.04576
889.10914	0.04595
887.18049	0.04648
885.25184	0.04754
883.32318	0.04936
881.39453	0.05182
879.46588	0.05420
877.53722	0.05585
875.60857	0.05692
873.67992	0.05767
871.75126	0.05771
869.82261	0.05693
867.89396	0.05567
865.96530	0.05413
864.03665	0.05241
862.10800	0.05062
860.17935	0.04890
858.25069	0.04743
856.32204	0.04624
854.39339	0.04529
852.46473	0.04451
850.53608	0.04387
848.60743	0.04330
846.67877	0.04278
844.75012	0.04236
842.82147	0.04191
840.89281	0.04131
838.96416	0.04067
837.03551	0.04018
835.10685	0.03980
833.17820	0.03945
831.24955	0.03917
829.32089	0.03897
827.39224	0.03873
825.46359	0.03838
823.53493	0.03798
821.60628	0.03773
819.67763	0.03771
817.74897	0.03767
815.82032	0.03732
813.89167	0.03689
811.96301	0.03674
810.03436	0.03679
808.10571	0.03669
806.17705	0.03643
804.24840	0.03617
802.31975	0.03597
800.39109	0.03587
798.46244	0.03599
796.53379	0.03623
794.60513	0.03634
792.67648	0.03623
790.74783	0.03609
788.81918	0.03612
786.89052	0.03618
784.96187	0.03620
783.03322	0.03625
781.10456	0.03623
779.17591	0.03608
777.24726	0.03595
775.31860	0.03589
773.38995	0.03580
771.46130	0.03568
769.53264	0.03558
767.60399	0.03549
765.67534	0.03543
763.74668	0.03531
761.81803	0.03521
759.88938	0.03535
757.96072	0.03568
756.03207	0.03588
754.10342	0.03593
752.17476	0.03595
750.24611	0.03601
748.31746	0.03611
746.38880	0.03614
744.46015	0.03613
742.53150	0.03599
740.60284	0.03571
738.67419	0.03568
736.74554	0.03600
734.81688	0.03626
732.88823	0.03631
730.95958	0.03623
729.03092	0.03598
727.10227	0.03584
725.17362	0.03602
723.24497	0.03627
721.31631	0.03648
719.38766	0.03661
717.45901	0.03665
715.53035	0.03651
713.60170	0.03637
711.67305	0.03643
709.74439	0.03658
707.81574	0.03664
705.88709	0.03657
703.95843	0.03642
702.02978	0.03634
700.10113	0.03641
698.17247	0.03654
696.24382	0.03661
694.31517	0.03657
692.38651	0.03643
690.45786	0.03633
688.52921	0.03639
686.60055	0.03646
684.67190	0.03640
682.74325	0.03630
680.81459	0.03622
678.88594	0.03614
676.95729	0.03609
675.02863	0.03611
673.09998	0.03613
671.17133	0.03608
669.24267	0.03603
667.31402	0.03600
665.38537	0.03594
663.45671	0.03582
661.52806	0.03561
659.59941	0.03538
657.67075	0.03523
655.74210	0.03511
653.81345	0.03509
651.88480	0.03529
649.95614	0.03550
648.02749	0.03556
646.09884	0.03556
644.17018	0.03561
642.24153	0.03580
640.31288	0.03629
638.38422	0.03694
636.45557	0.03751
634.52692	0.03792
632.59826	0.03833
630.66961	0.03919
628.74096	0.04092
626.81230	0.04127
624.88365	0.04137
622.95500	0.04215
621.02634	0.04328
619.09769	0.04520
617.16904	0.04915
615.24038	0.05389
613.31173	0.05752
611.38308	0.06057
609.45442	0.06555
607.52577	0.07274
605.59712	0.07997
603.66846	0.08596
601.73981	0.08954
599.81116	0.09020
597.88250	0.08893
595.95385	0.08674
594.02520	0.08440
592.09654	0.08268
590.16789	0.08197
588.23924	0.08229
586.31059	0.08329
584.38193	0.08473
582.45328	0.08663
580.52463	0.08901
578.59597	0.09203
576.66732	0.09565
574.73867	0.09930
572.81001	0.10256
570.88136	0.10563
568.95271	0.10903
567.02405	0.11298
565.09540	0.11714
563.16675	0.12081
561.23809	0.12305
559.30944	0.12312
557.38079	0.12101
555.45213	0.11724
553.52348	0.11251
551.59483	0.10740
549.66617	0.10223
547.73752	0.09736
545.80887	0.09308
543.88021	0.08916
541.95156	0.08520
540.02291	0.08141
538.09425	0.07834
536.16560	0.07597
534.23695	0.07374
532.30829	0.07140
530.37964	0.06905
528.45099	0.06678
526.52233	0.06457
524.59368	0.06246
522.66503	0.06040
520.73637	0.05830
518.80772	0.05610
516.87907	0.05402
514.95042	0.05232
513.02176	0.05099
511.09311	0.04984
509.16446	0.04870
507.23580	0.04747
505.30715	0.04622
503.37850	0.04515
501.44984	0.04419
499.52119	0.04318
497.59254	0.04220
495.66388	0.04131
493.73523	0.04051
491.80658	0.03992
489.87792	0.03951
487.94927	0.03910
486.02062	0.03867
484.09196	0.03838
482.16331	0.03818
480.23466	0.03794
478.30600	0.03773
476.37735	0.03758
474.44870	0.03743
472.52004	0.03733
470.59139	0.03726
468.66274	0.03703
466.73408	0.03665
464.80543	0.03622
462.87678	0.03567
460.94812	0.03509
459.01947	0.03454
457.09082	0.03404
455.16216	0.03359
453.23351	0.03317
451.30486	0.03274
449.37620	0.03230
447.44755	0.03194
445.51890	0.03172
443.59025	0.03155
441.66159	0.03135
439.73294	0.03113
437.80429	0.03089
435.87563	0.03059
433.94698	0.03023
432.01833	0.02985
430.08967	0.02963
428.16102	0.02953
426.23237	0.02937
424.30371	0.02912
422.37506	0.02884
420.44641	0.02854
418.51775	0.02831
416.58910	0.02820
414.66045	0.02813
412.73179	0.02803
410.80314	0.02785
408.87449	0.02768
406.94583	0.02765
405.01718	0.02772
403.08853	0.02777
401.15987	0.02776
399.23122	0.02769
