3996.16951	0.05307
3994.24086	0.05264
3992.31221	0.05224
3990.38355	0.05230
3988.45490	0.05262
3986.52625	0.05248
3984.59759	0.05192
3982.66894	0.05190
3980.74029	0.05249
3978.81163	0.05280
3976.88298	0.05255
3974.95433	0.05212
3973.02567	0.05190
3971.09702	0.05197
3969.16837	0.05207
3967.23972	0.05200
3965.31106	0.05179
3963.38241	0.05176
3961.45376	0.05225
3959.52510	0.05293
3957.59645	0.05311
3955.66780	0.05291
3953.73914	0.05290
3951.81049	0.05307
3949.88184	0.05290
3947.95318	0.05231
3946.02453	0.05167
3944.09588	0.05114
3942.16722	0.05066
3940.23857	0.05026
3938.30992	0.04992
3936.38126	0.04984
3934.45261	0.05020
3932.52396	0.05057
3930.59530	0.05044
3928.66665	0.05009
3926.73800	0.05009
3924.80934	0.05037
3922.88069	0.05058
3920.95204	0.05065
3919.02338	0.05078
3917.09473	0.05095
3915.16608	0.05091
3913.23742	0.05059
3911.30877	0.05029
3909.38012	0.05017
3907.45146	0.05006
3905.52281	0.05006
3903.59416	0.05033
3901.66550	0.05051
3899.73685	0.05039
3897.80820	0.05019
3895.87955	0.04992
3893.95089	0.04977
3892.02224	0.04981
3890.09359	0.04948
3888.16493	0.04892
3886.23628	0.04885
3884.30763	0.04892
3882.37897	0.04843
3880.45032	0.04770
3878.52167	0.04755
3876.59301	0.04820
3874.66436	0.04900
3872.73571	0.04940
3870.80705	0.04954
3868.87840	0.04963
3866.94975	0.04967
3865.02109	0.04975
3863.09244	0.04982
3861.16379	0.04951
3859.23513	0.04873
3857.30648	0.04817
3855.37783	0.04851
3853.44917	0.04931
3851.52052	0.04969
3849.59187	0.04960
3847.66321	0.04906
3845.73456	0.04781
3843.80591	0.04628
3841.87725	0.04557
3839.94860	0.04603
3838.01995	0.04671
3836.09129	0.04675
3834.16264	0.04639
3832.23399	0.04621
3830.30534	0.04628
3828.37668	0.04624
3826.44803	0.04590
3824.51938	0.04566
3822.59072	0.04592
3820.66207	0.04642
3818.73342	0.04659
3816.80476	0.04635
3814.87611	0.04601
3812.94746	0.04589
3811.01880	0.04602
3809.09015	0.04617
3807.16150	0.04619
3805.23284	0.04613
3803.30419	0.04602
3801.37554	0.04594
3799.44688	0.04582
3797.51823	0.04546
3795.58958	0.04487
3793.66092	0.04452
3791.73227	0.04478
3789.80362	0.04519
3787.87496	0.04534
3785.94631	0.04518
3784.01766	0.04461
3782.08900	0.04410
3780.16035	0.04425
3778.23170	0.04446
3776.30304	0.04420
3774.37439	0.04419
3772.44574	0.04473
3770.51708	0.04510
3768.58843	0.04506
3766.65978	0.04487
3764.73112	0.04443
3762.80247	0.04371
3760.87382	0.04322
3758.94517	0.04354
3757.01651	0.04425
3755.08786	0.04448
3753.15921	0.04456
3751.23055	0.04495
3749.30190	0.04487
3747.37325	0.04415
3745.44459	0.04358
3743.51594	0.04340
3741.58729	0.04343
3739.65863	0.04349
3737.72998	0.04363
3735.80133	0.04402
3733.87267	0.04407
3731.94402	0.04315
3730.01537	0.04209
3728.08671	0.04202
3726.15806	0.04269
3724.22941	0.04300
3722.30075	0.04263
3720.37210	0.04180
3718.44345	0.04082
3716.51479	0.04024
3714.58614	0.04016
3712.65749	0.04025
3710.72883	0.04071
3708.80018	0.04144
3706.87153	0.04164
3704.94287	0.04115
3703.01422	0.04069
3701.08557	0.04069
3699.15691	0.04081
3697.22826	0.04080
3695.29961	0.04095
3693.37095	0.04157
3691.44230	0.04218
3689.51365	0.04200
3687.58500	0.04137
3685.65634	0.04098
3683.72769	0.04094
3681.79904	0.04116
3679.87038	0.04143
3677.94173	0.04152
3676.01308	0.04132
3674.08442	0.04103
3672.15577	0.04108
3670.22712	0.04152
3668.29846	0.04192
3666.36981	0.04199
3664.44116	0.04183
3662.51250	0.04180
3660.58385	0.04206
3658.65520	0.04264
3656.72654	0.04331
3654.79789	0.04336
3652.86924	0.04287
3650.94058	0.04310
3649.01193	0.04404
3647.08328	0.04449
3645.15462	0.04477
3643.22597	0.04560
3641.29732	0.04632
3639.36866	0.04642
3637.44001	0.04638
3635.51136	0.04649
3633.58270	0.04670
3631.65405	0.04703
3629.72540	0.04775
3627.79674	0.04856
3625.86809	0.04890
3623.93944	0.04910
3622.01079	0.04977
3620.08213	0.05069
3618.15348	0.05144
3616.22483	0.05189
3614.29617	0.05202
3612.36752	0.05216
3610.43887	0.05268
3608.51021	0.05330
3606.58156	0.05373
3604.65291	0.05421
3602.72425	0.05485
3600.79560	0.05556
3598.86695	0.05619
3596.93829	0.05658
3595.00964	0.05701
3593.08099	0.05772
3591.15233	0.05823
3589.22368	0.05809
3587.29503	0.05776
3585.36637	0.05807
3583.43772	0.05924
3581.50907	0.06071
3579.58041	0.06195
3577.65176	0.06284
3575.72311	0.06333
3573.79445	0.06367
3571.86580	0.06417
3569.93715	0.06475
3568.00849	0.06532
3566.07984	0.06595
3564.15119	0.06652
3562.22253	0.06683
3560.29388	0.06745
3558.36523	0.06885
3556.43657	0.07018
3554.50792	0.07057
3552.57927	0.07045
3550.65062	0.07070
3548.72196	0.07166
3546.79331	0.07274
3544.86466	0.07343
3542.93600	0.07413
3541.00735	0.07482
3539.07870	0.07500
3537.15004	0.07490
3535.22139	0.07504
3533.29274	0.07574
3531.36408	0.07694
3529.43543	0.07795
3527.50678	0.07855
3525.57812	0.07936
3523.64947	0.08041
3521.72082	0.08116
3519.79216	0.08163
3517.86351	0.08233
3515.93486	0.08338
3514.00620	0.08440
3512.07755	0.08508
3510.14890	0.08541
3508.22024	0.08565
3506.29159	0.08615
3504.36294	0.08687
3502.43428	0.08742
3500.50563	0.08771
3498.57698	0.08802
3496.64832	0.08851
3494.71967	0.08936
3492.79102	0.09066
3490.86236	0.09189
3488.93371	0.09237
3487.00506	0.09210
3485.07641	0.09184
3483.14775	0.09207
3481.21910	0.09246
3479.29045	0.09283
3477.36179	0.09339
3475.43314	0.09401
3473.50449	0.09424
3471.57583	0.09428
3469.64718	0.09482
3467.71853	0.09588
3465.78987	0.09694
3463.86122	0.09766
3461.93257	0.09806
3460.00391	0.09828
3458.07526	0.09848
3456.14661	0.09879
3454.21795	0.09933
3452.28930	0.10005
3450.36065	0.10065
3448.43199	0.10108
3446.50334	0.10141
3444.57469	0.10144
3442.64603	0.10132
3440.71738	0.10137
3438.78873	0.10174
3436.86007	0.10253
3434.93142	0.10352
3433.00277	0.10449
3431.07411	0.10548
3429.14546	0.10629
3427.21681	0.10663
3425.28815	0.10679
3423.35950	0.10718
3421.43085	0.10759
3419.50219	0.10772
3417.57354	0.10807
3415.64489	0.10897
3413.71624	0.10967
3411.78758	0.10974
3409.85893	0.10996
3407.93028	0.11069
3406.00162	0.11126
3404.07297	0.11145
3402.14432	0.11169
3400.21566	0.11217
3398.28701	0.11260
3396.35836	0.11302
3394.42970	0.11366
3392.50105	0.11412
3390.57240	0.11417
3388.64374	0.11435
3386.71509	0.11482
3384.78644	0.11515
3382.85778	0.11546
3380.92913	0.11618
3379.00048	0.11707
3377.07182	0.11762
3375.14317	0.11792
3373.21452	0.11827
3371.28586	0.11880
3369.35721	0.11968
3367.42856	0.12080
3365.49990	0.12181
3363.57125	0.12251
3361.64260	0.12310
3359.71394	0.12375
3357.78529	0.12447
3355.85664	0.12537
3353.92798	0.12653
3351.99933	0.12797
3350.07068	0.12949
3348.14202	0.13080
3346.21337	0.13176
3344.28472	0.13257
3342.35607	0.13356
3340.42741	0.13461
3338.49876	0.13533
3336.57011	0.13608
3334.64145	0.13728
3332.71280	0.13857
3330.78415	0.13954
3328.85549	0.14044
3326.92684	0.14134
3324.99819	0.14190
3323.06953	0.14220
3321.14088	0.14264
3319.21223	0.14329
3317.28357	0.14385
3315.35492	0.14415
3313.42627	0.14433
3311.49761	0.14459
3309.56896	0.14504
3307.64031	0.14559
3305.71165	0.14594
3303.78300	0.14610
3301.85435	0.14634
3299.92569	0.14656
3297.99704	0.14661
3296.06839	0.14657
3294.13973	0.14658
3292.21108	0.14667
3290.28243	0.14685
3288.35377	0.14708
3286.42512	0.14726
3284.49647	0.14729
3282.56781	0.14722
3280.63916	0.14703
3278.71051	0.14669
3276.78186	0.14645
3274.85320	0.14622
3272.92455	0.14549
3270.99590	0.14442
3269.06724	0.14373
3267.13859	0.14354
3265.20994	0.14346
3263.28128	0.14306
3261.35263	0.14233
3259.42398	0.14167
3257.49532	0.14117
3255.56667	0.14045
3253.63802	0.13950
3251.70936	0.13880
3249.78071	0.13846
3247.85206	0.13805
3245.92340	0.13756
3243.99475	0.13721
3242.06610	0.13682
3240.13744	0.13641
3238.20879	0.13629
3236.28014	0.13615
3234.35148	0.13537
3232.42283	0.13424
3230.49418	0.13353
3228.56552	0.13337
3226.63687	0.13344
3224.70822	0.13328
3222.77956	0.13275
3220.85091	0.13217
3218.92226	0.13194
3216.99360	0.13189
3215.06495	0.13158
3213.13630	0.13078
3211.20764	0.12977
3209.27899	0.12913
3207.35034	0.12902
3205.42169	0.12905
3203.49303	0.12905
3201.56438	0.12908
3199.63573	0.12873
3197.70707	0.12768
3195.77842	0.12626
3193.84977	0.12500
3191.92111	0.12432
3189.99246	0.12425
3188.06381	0.12435
3186.13515	0.12402
3184.20650	0.12304
3182.27785	0.12199
3180.34919	0.12131
3178.42054	0.12067
3176.49189	0.11973
3174.56323	0.11863
3172.63458	0.11777
3170.70593	0.11707
3168.77727	0.11635
3166.84862	0.11572
3164.91997	0.11507
3162.99131	0.11426
3161.06266	0.11344
3159.13401	0.11274
3157.20535	0.11195
3155.27670	0.11098
3153.34805	0.11004
3151.41939	0.10924
3149.49074	0.10856
3147.56209	0.10800
3145.63343	0.10746
3143.70478	0.10681
3141.77613	0.10603
3139.84748	0.10535
3137.91882	0.10483
3135.99017	0.10422
3134.06152	0.10348
3132.13286	0.10294
3130.20421	0.10258
3128.27556	0.10212
3126.34690	0.10161
3124.41825	0.10126
3122.48960	0.10100
3120.56094	0.10083
3118.63229	0.10079
3116.70364	0.10077
3114.77498	0.10067
3112.84633	0.10068
3110.91768	0.10080
3108.98902	0.10069
3107.06037	0.10038
3105.13172	0.10032
3103.20306	0.10058
3101.27441	0.10082
3099.34576	0.10088
3097.41710	0.10083
3095.48845	0.10086
3093.55980	0.10116
3091.63114	0.10167
3089.70249	0.10222
3087.77384	0.10262
3085.84518	0.10268
3083.91653	0.10260
3081.98788	0.10284
3080.05922	0.10326
3078.13057	0.10347
3076.20192	0.10343
3074.27326	0.10321
3072.34461	0.10298
3070.41596	0.10302
3068.48731	0.10322
3066.55865	0.10310
3064.63000	0.10265
3062.70135	0.10233
3060.77269	0.10219
3058.84404	0.10187
3056.91539	0.10119
3054.98673	0.10040
3053.05808	0.09969
3051.12943	0.09891
3049.20077	0.09807
3047.27212	0.09733
3045.34347	0.09660
3043.41481	0.09579
3041.48616	0.09510
3039.55751	0.09467
3037.62885	0.09417
3035.70020	0.09339
3033.77155	0.09265
3031.84289	0.09220
3029.91424	0.09182
3027.98559	0.09122
3026.05693	0.09051
3024.12828	0.08988
3022.19963	0.08925
3020.27097	0.08854
3018.34232	0.08789
3016.41367	0.08738
3014.48501	0.08696
3012.55636	0.08677
3010.62771	0.08677
3008.69905	0.08667
3006.77040	0.08636
3004.84175	0.08602
3002.91309	0.08588
3000.98444	0.08596
2999.05579	0.08610
2997.12714	0.08615
2995.19848	0.08621
2993.26983	0.08645
2991.34118	0.08682
2989.41252	0.08721
2987.48387	0.08770
2985.55522	0.08840
2983.62656	0.08922
2981.69791	0.09000
2979.76926	0.09058
2977.84060	0.09095
2975.91195	0.09121
2973.98330	0.09152
2972.05464	0.09194
2970.12599	0.09249
2968.19734	0.09322
2966.26868	0.09388
2964.34003	0.09429
2962.41138	0.09471
2960.48272	0.09527
2958.55407	0.09580
2956.62542	0.09611
2954.69676	0.09615
2952.76811	0.09603
2950.83946	0.09579
2948.91080	0.09567
2946.98215	0.09604
2945.05350	0.09665
2943.12484	0.09705
2941.19619	0.09752
2939.26754	0.09816
2937.33888	0.09858
2935.41023	0.09871
2933.48158	0.09872
2931.55293	0.09872
2929.62427	0.09889
2927.69562	0.09919
2925.76697	0.09937
2923.83831	0.09933
2921.90966	0.09902
2919.98101	0.09837
2918.05235	0.09753
2916.12370	0.09644
2914.19505	0.09489
2912.26639	0.09328
2910.33774	0.09196
2908.40909	0.09086
2906.48043	0.08992
2904.55178	0.08897
2902.62313	0.08798
2900.69447	0.08722
2898.76582	0.08677
2896.83717	0.08656
2894.90851	0.08638
2892.97986	0.08596
2891.05121	0.08548
2889.12255	0.08532
2887.19390	0.08538
2885.26525	0.08530
2883.33659	0.08511
2881.40794	0.08506
2879.47929	0.08526
2877.55063	0.08545
2875.62198	0.08541
2873.69333	0.08516
2871.76467	0.08472
2869.83602	0.08421
2867.90737	0.08371
2865.97871	0.08307
2864.05006	0.08228
2862.12141	0.08157
2860.19276	0.08108
2858.26410	0.08079
2856.33545	0.08069
2854.40680	0.08078
2852.47814	0.08074
2850.54949	0.08023
2848.62084	0.07928
2846.69218	0.07822
2844.76353	0.07724
2842.83488	0.07636
2840.90622	0.07559
2838.97757	0.07494
2837.04892	0.07437
2835.12026	0.07388
2833.19161	0.07336
2831.26296	0.07284
2829.33430	0.07241
2827.40565	0.07191
2825.47700	0.07130
2823.54834	0.07089
2821.61969	0.07084
2819.69104	0.07093
2817.76238	0.07087
2815.83373	0.07062
2813.90508	0.07036
2811.97642	0.07012
2810.04777	0.06972
2808.11912	0.06918
2806.19046	0.06879
2804.26181	0.06856
2802.33316	0.06841
2800.40450	0.06839
2798.47585	0.06835
2796.54720	0.06806
2794.61855	0.06756
2792.68989	0.06718
2790.76124	0.06708
2788.83259	0.06703
2786.90393	0.06679
2784.97528	0.06635
2783.04663	0.06584
2781.11797	0.06544
2779.18932	0.06528
2777.26067	0.06530
2775.33201	0.06536
2773.40336	0.06527
2771.47471	0.06491
2769.54605	0.06443
2767.61740	0.06406
2765.68875	0.06385
2763.76009	0.06373
2761.83144	0.06361
2759.90279	0.06344
2757.97413	0.06320
2756.04548	0.06287
2754.11683	0.06259
2752.18817	0.06260
2750.25952	0.06271
2748.33087	0.06249
2746.40221	0.06208
2744.47356	0.06175
2742.54491	0.06146
2740.61625	0.06117
2738.68760	0.06099
2736.75895	0.06090
2734.83029	0.06085
2732.90164	0.06084
2730.97299	0.06076
2729.04433	0.06040
2727.11568	0.06002
2725.18703	0.05989
2723.25838	0.05984
2721.32972	0.05973
2719.40107	0.05966
2717.47242	0.05950
2715.54376	0.05915
2713.61511	0.05882
2711.68646	0.05860
2709.75780	0.05848
2707.82915	0.05841
2705.90050	0.05823
2703.97184	0.05791
2702.04319	0.05759
2700.11454	0.05738
2698.18588	0.05733
2696.25723	0.05733
2694.32858	0.05717
2692.39992	0.05690
2690.47127	0.05680
2688.54262	0.05683
2686.61396	0.05681
2684.68531	0.05665
2682.75666	0.05643
2680.82800	0.05618
2678.89935	0.05600
2676.97070	0.05598
2675.04204	0.05605
2673.11339	0.05606
2671.18474	0.05599
2669.25608	0.05576
2667.32743	0.05539
2665.39878	0.05516
2663.47012	0.05514
2661.54147	0.05505
2659.61282	0.05474
2657.68417	0.05433
2655.75551	0.05388
2653.82686	0.05346
2651.89821	0.05319
2649.96955	0.05303
2648.04090	0.05290
2646.11225	0.05269
2644.18359	0.05230
2642.25494	0.05180
2640.32629	0.05145
2638.39763	0.05131
2636.46898	0.05105
2634.54033	0.05050
2632.61167	0.04994
2630.68302	0.04963
2628.75437	0.04950
2626.82571	0.04944
2624.89706	0.04938
2622.96841	0.04919
2621.03975	0.04875
2619.11110	0.04820
2617.18245	0.04786
2615.25379	0.04781
2613.32514	0.04776
2611.39649	0.04748
2609.46783	0.04704
2607.53918	0.04665
2605.61053	0.04648
2603.68187	0.04661
2601.75322	0.04675
2599.82457	0.04653
2597.89591	0.04600
2595.96726	0.04548
2594.03861	0.04526
2592.10995	0.04529
2590.18130	0.04528
2588.25265	0.04505
2586.32400	0.04469
2584.39534	0.04445
2582.46669	0.04448
2580.53804	0.04443
2578.60938	0.04409
2576.68073	0.04380
2574.75208	0.04378
2572.82342	0.04382
2570.89477	0.04374
2568.96612	0.04352
2567.03746	0.04319
2565.10881	0.04292
2563.18016	0.04275
2561.25150	0.04235
2559.32285	0.04181
2557.39420	0.04165
2555.46554	0.04204
2553.53689	0.04248
2551.60824	0.04259
2549.67958	0.04243
2547.75093	0.04205
2545.82228	0.04178
2543.89362	0.04188
2541.96497	0.04194
2540.03632	0.04177
2538.10766	0.04162
2536.17901	0.04125
2534.25036	0.04057
2532.32170	0.04016
2530.39305	0.04031
2528.46440	0.04047
2526.53574	0.04028
2524.60709	0.04003
2522.67844	0.04000
2520.74978	0.04007
2518.82113	0.03998
2516.89248	0.03969
2514.96383	0.03940
2513.03517	0.03948
2511.10652	0.03979
2509.17787	0.03985
2507.24921	0.03982
2505.32056	0.04006
2503.39191	0.04032
2501.46325	0.04022
2499.53460	0.03968
2497.60595	0.03906
2495.67729	0.03886
2493.74864	0.03908
2491.81999	0.03915
2489.89133	0.03895
2487.96268	0.03892
2486.03403	0.03897
2484.10537	0.03884
2482.17672	0.03876
2480.24807	0.03878
2478.31941	0.03867
2476.39076	0.03856
2474.46211	0.03856
2472.53345	0.03825
2470.60480	0.03772
2468.67615	0.03755
2466.74749	0.03757
2464.81884	0.03762
2462.89019	0.03791
2460.96153	0.03809
2459.03288	0.03786
2457.10423	0.03761
2455.17557	0.03752
2453.24692	0.03729
2451.31827	0.03683
2449.38962	0.03638
2447.46096	0.03619
2445.53231	0.03637
2443.60366	0.03658
2441.67500	0.03652
2439.74635	0.03660
2437.81770	0.03698
2435.88904	0.03701
2433.96039	0.03653
2432.03174	0.03616
2430.10308	0.03624
2428.17443	0.03646
2426.24578	0.03648
2424.31712	0.03648
2422.38847	0.03656
2420.45982	0.03647
2418.53116	0.03640
2416.60251	0.03676
2414.67386	0.03706
2412.74520	0.03681
2410.81655	0.03651
2408.88790	0.03653
2406.95924	0.03652
2405.03059	0.03623
2403.10194	0.03598
2401.17328	0.03609
2399.24463	0.03634
2397.31598	0.03652
2395.38732	0.03661
2393.45867	0.03671
2391.53002	0.03677
2389.60136	0.03683
2387.67271	0.03697
2385.74406	0.03712
2383.81540	0.03714
2381.88675	0.03708
2379.95810	0.03708
2378.02945	0.03731
2376.10079	0.03762
2374.17214	0.03766
2372.24349	0.03746
2370.31483	0.03742
2368.38618	0.03770
2366.45753	0.03801
2364.52887	0.03799
2362.60022	0.03773
2360.67157	0.03761
2358.74291	0.03779
2356.81426	0.03804
2354.88561	0.03807
2352.95695	0.03787
2351.02830	0.03760
2349.09965	0.03751
2347.17099	0.03770
2345.24234	0.03793
2343.31369	0.03781
2341.38503	0.03752
2339.45638	0.03744
2337.52773	0.03751
2335.59907	0.03752
2333.67042	0.03746
2331.74177	0.03729
2329.81311	0.03700
2327.88446	0.03655
2325.95581	0.03592
2324.02715	0.03546
2322.09850	0.03554
2320.16985	0.03582
2318.24119	0.03568
2316.31254	0.03508
2314.38389	0.03449
2312.45524	0.03437
2310.52658	0.03456
2308.59793	0.03455
2306.66928	0.03419
2304.74062	0.03369
2302.81197	0.03324
2300.88332	0.03297
2298.95466	0.03290
2297.02601	0.03280
2295.09736	0.03248
2293.16870	0.03206
2291.24005	0.03161
2289.31140	0.03114
2287.38274	0.03073
2285.45409	0.03026
2283.52544	0.02995
2281.59678	0.02998
2279.66813	0.02987
2277.73948	0.02934
2275.81082	0.02877
2273.88217	0.02832
2271.95352	0.02799
2270.02486	0.02797
2268.09621	0.02806
2266.16756	0.02775
2264.23890	0.02748
2262.31025	0.02793
2260.38160	0.02839
2258.45294	0.02801
2256.52429	0.02756
2254.59564	0.02772
2252.66698	0.02766
2250.73833	0.02700
2248.80968	0.02660
2246.88102	0.02636
2244.95237	0.02582
2243.02372	0.02522
2241.09507	0.02471
2239.16641	0.02436
2237.23776	0.02433
2235.30911	0.02444
2233.38045	0.02457
2231.45180	0.02450
2229.52315	0.02423
2227.59449	0.02428
2225.66584	0.02492
2223.73719	0.02556
2221.80853	0.02525
2219.87988	0.02396
2217.95123	0.02292
2216.02257	0.02245
2214.09392	0.02184
2212.16527	0.02105
2210.23661	0.02035
2208.30796	0.02028
2206.37931	0.02083
2204.45065	0.02099
2202.52200	0.02074
2200.59335	0.02075
2198.66469	0.02078
2196.73604	0.02087
2194.80739	0.02118
2192.87873	0.02128
2190.95008	0.02083
2189.02143	0.01982
2187.09277	0.01864
2185.16412	0.01763
2183.23547	0.01701
2181.30681	0.01736
2179.37816	0.01830
2177.44951	0.01830
2175.52085	0.01684
2173.59220	0.01498
2171.66355	0.01384
2169.73490	0.01381
2167.80624	0.01449
2165.87759	0.01458
2163.94894	0.01332
2162.02028	0.01172
2160.09163	0.01141
2158.16298	0.01301
2156.23432	0.01528
2154.30567	0.01662
2152.37702	0.01715
2150.44836	0.01796
2148.51971	0.01890
2146.59106	0.01922
2144.66240	0.01952
2142.73375	0.02039
2140.80510	0.02159
2138.87644	0.02247
2136.94779	0.02242
2135.01914	0.02197
2133.09048	0.02179
2131.16183	0.02207
2129.23318	0.02276
2127.30452	0.02344
2125.37587	0.02413
2123.44722	0.02483
2121.51856	0.02503
2119.58991	0.02483
2117.66126	0.02451
2115.73260	0.02386
2113.80395	0.02316
2111.87530	0.02275
2109.94664	0.02249
2108.01799	0.02263
2106.08934	0.02306
2104.16069	0.02308
2102.23203	0.02260
2100.30338	0.02205
2098.37473	0.02182
2096.44607	0.02215
2094.51742	0.02252
2092.58877	0.02237
2090.66011	0.02210
2088.73146	0.02204
2086.80281	0.02198
2084.87415	0.02202
2082.94550	0.02214
2081.01685	0.02187
2079.08819	0.02116
2077.15954	0.02056
2075.23089	0.02031
2073.30223	0.02018
2071.37358	0.01981
2069.44493	0.01913
2067.51627	0.01868
2065.58762	0.01856
2063.65897	0.01850
2061.73031	0.01887
2059.80166	0.01938
2057.87301	0.01914
2055.94435	0.01833
2054.01570	0.01774
2052.08705	0.01757
2050.15839	0.01744
2048.22974	0.01717
2046.30109	0.01716
2044.37243	0.01740
2042.44378	0.01704
2040.51513	0.01595
2038.58647	0.01504
2036.65782	0.01493
2034.72917	0.01529
2032.80052	0.01523
2030.87186	0.01449
2028.94321	0.01408
2027.01456	0.01436
2025.08590	0.01416
2023.15725	0.01276
2021.22860	0.01147
2019.29994	0.01169
2017.37129	0.01288
2015.44264	0.01412
2013.51398	0.01534
2011.58533	0.01612
2009.65668	0.01589
2007.72802	0.01490
2005.79937	0.01388
2003.87072	0.01365
2001.94206	0.01451
2000.01341	0.01568
1998.08476	0.01644
1996.15610	0.01664
1994.22745	0.01623
1992.29880	0.01588
1990.37014	0.01611
1988.44149	0.01650
1986.51284	0.01680
1984.58418	0.01676
1982.65553	0.01607
1980.72688	0.01515
1978.79822	0.01474
1976.86957	0.01461
1974.94092	0.01405
1973.01226	0.01306
1971.08361	0.01245
1969.15496	0.01296
1967.22631	0.01421
1965.29765	0.01547
1963.36900	0.01660
1961.44035	0.01738
1959.51169	0.01742
1957.58304	0.01701
1955.65439	0.01677
1953.72573	0.01676
1951.79708	0.01692
1949.86843	0.01735
1947.93977	0.01780
1946.01112	0.01802
1944.08247	0.01831
1942.15381	0.01893
1940.22516	0.01942
1938.29651	0.01926
1936.36785	0.01880
1934.43920	0.01861
1932.51055	0.01864
1930.58189	0.01864
1928.65324	0.01874
1926.72459	0.01899
1924.79593	0.01930
1922.86728	0.01969
1920.93863	0.01986
1919.00997	0.01969
1917.08132	0.01969
1915.15267	0.01993
1913.22401	0.02000
1911.29536	0.01977
1909.36671	0.01944
1907.43805	0.01931
1905.50940	0.01950
1903.58075	0.01969
1901.65209	0.01970
1899.72344	0.01982
1897.79479	0.02013
1895.86614	0.02021
1893.93748	0.01999
1892.00883	0.01986
1890.08018	0.02006
1888.15152	0.02033
1886.22287	0.02043
1884.29422	0.02039
1882.36556	0.02020
1880.43691	0.01989
1878.50826	0.01971
1876.57960	0.01969
1874.65095	0.01967
1872.72230	0.01966
1870.79364	0.01966
1868.86499	0.01964
1866.93634	0.01971
1865.00768	0.01980
1863.07903	0.01980
1861.15038	0.01980
1859.22172	0.01985
1857.29307	0.01994
1855.36442	0.02003
1853.43576	0.01994
1851.50711	0.01962
1849.57846	0.01924
1847.64980	0.01910
1845.72115	0.01930
1843.79250	0.01960
1841.86384	0.01961
1839.93519	0.01931
1838.00654	0.01910
1836.07788	0.01919
1834.14923	0.01932
1832.22058	0.01928
1830.29192	0.01926
1828.36327	0.01935
1826.43462	0.01935
1824.50597	0.01918
1822.57731	0.01898
1820.64866	0.01888
1818.72001	0.01898
1816.79135	0.01928
1814.86270	0.01955
1812.93405	0.01952
1811.00539	0.01927
1809.07674	0.01895
1807.14809	0.01869
1805.21943	0.01867
1803.29078	0.01881
1801.36213	0.01884
1799.43347	0.01869
1797.50482	0.01859
1795.57617	0.01871
1793.64751	0.01897
1791.71886	0.01915
1789.79021	0.01913
1787.86155	0.01900
1785.93290	0.01892
1784.00425	0.01891
1782.07559	0.01885
1780.14694	0.01877
1778.21829	0.01872
1776.28963	0.01866
1774.36098	0.01862
1772.43233	0.01865
1770.50367	0.01866
1768.57502	0.01859
1766.64637	0.01851
1764.71771	0.01852
1762.78906	0.01858
1760.86041	0.01862
1758.93176	0.01871
1757.00310	0.01891
1755.07445	0.01917
1753.14580	0.01941
1751.21714	0.01966
1749.28849	0.02001
1747.35984	0.02038
1745.43118	0.02073
1743.50253	0.02113
1741.57388	0.02157
1739.64522	0.02197
1737.71657	0.02241
1735.78792	0.02295
1733.85926	0.02346
1731.93061	0.02385
1730.00196	0.02419
1728.07330	0.02465
1726.14465	0.02522
1724.21600	0.02576
1722.28734	0.02621
1720.35869	0.02665
1718.43004	0.02722
1716.50138	0.02803
1714.57273	0.02898
1712.64408	0.02999
1710.71542	0.03118
1708.78677	0.03279
1706.85812	0.03490
1704.92946	0.03743
1703.00081	0.04032
1701.07216	0.04362
1699.14350	0.04726
1697.21485	0.05108
1695.28620	0.05493
1693.35754	0.05869
1691.42889	0.06245
1689.50024	0.06639
1687.57159	0.07051
1685.64293	0.07484
1683.71428	0.07935
1681.78563	0.08401
1679.85697	0.08902
1677.92832	0.09448
1675.99967	0.10024
1674.07101	0.10616
1672.14236	0.11220
1670.21371	0.11845
1668.28505	0.12479
1666.35640	0.13101
1664.42775	0.13710
1662.49909	0.14298
1660.57044	0.14845
1658.64179	0.15340
1656.71313	0.15790
1654.78448	0.16210
1652.85583	0.16591
1650.92717	0.16907
1648.99852	0.17175
1647.06987	0.17432
1645.14121	0.17677
1643.21256	0.17898
1641.28391	0.18100
1639.35525	0.18296
1637.42660	0.18487
1635.49795	0.18660
1633.56929	0.18782
1631.64064	0.18845
1629.71199	0.18846
1627.78333	0.18752
1625.85468	0.18531
1623.92603	0.18186
1621.99738	0.17745
1620.06872	0.17241
1618.14007	0.16697
1616.21142	0.16124
1614.28276	0.15530
1612.35411	0.14925
1610.42546	0.14325
1608.49680	0.13739
1606.56815	0.13172
1604.63950	0.12634
1602.71084	0.12135
1600.78219	0.11677
1598.85354	0.11258
1596.92488	0.10885
1594.99623	0.10566
1593.06758	0.10302
1591.13892	0.10089
1589.21027	0.09924
1587.28162	0.09804
1585.35296	0.09726
1583.42431	0.09693
1581.49566	0.09716
1579.56700	0.09791
1577.63835	0.09909
1575.70970	0.10074
1573.78104	0.10295
1571.85239	0.10576
1569.92374	0.10907
1567.99508	0.11263
1566.06643	0.11638
1564.13778	0.12032
1562.20912	0.12437
1560.28047	0.12846
1558.35182	0.13245
1556.42316	0.13614
1554.49451	0.13947
1552.56586	0.14235
1550.63721	0.14477
1548.70855	0.14684
1546.77990	0.14861
1544.85125	0.15004
1542.92259	0.15110
1540.99394	0.15179
1539.06529	0.15221
1537.13663	0.15234
1535.20798	0.15215
1533.27933	0.15169
1531.35067	0.15099
1529.42202	0.15013
1527.49337	0.14914
1525.56471	0.14794
1523.63606	0.14655
1521.70741	0.14507
1519.77875	0.14347
1517.85010	0.14168
1515.92145	0.13957
1513.99279	0.13707
1512.06414	0.13416
1510.13549	0.13092
1508.20683	0.12733
1506.27818	0.12342
1504.34953	0.11932
1502.42087	0.11518
1500.49222	0.11109
1498.56357	0.10701
1496.63491	0.10296
1494.70626	0.09895
1492.77761	0.09508
1490.84895	0.09150
1488.92030	0.08833
1486.99165	0.08566
1485.06299	0.08355
1483.13434	0.08208
1481.20569	0.08125
1479.27704	0.08098
1477.34838	0.08121
1475.41973	0.08202
1473.49108	0.08341
1471.56242	0.08520
1469.63377	0.08719
1467.70512	0.08936
1465.77646	0.09165
1463.84781	0.09395
1461.91916	0.09629
1459.99050	0.09877
1458.06185	0.10137
1456.13320	0.10383
1454.20454	0.10574
1452.27589	0.10699
1450.34724	0.10762
1448.41858	0.10765
1446.48993	0.10714
1444.56128	0.10629
1442.63262	0.10522
1440.70397	0.10393
1438.77532	0.10237
1436.84666	0.10054
1434.91801	0.09844
1432.98936	0.09618
1431.06070	0.09406
1429.13205	0.09234
1427.20340	0.09105
1425.27474	0.09018
1423.34609	0.08968
1421.41744	0.08947
1419.48878	0.08940
1417.56013	0.08935
1415.63148	0.08938
1413.70283	0.08958
1411.77417	0.08997
1409.84552	0.09049
1407.91687	0.09112
1405.98821	0.09179
1404.05956	0.09227
1402.13091	0.09249
1400.20225	0.09253
1398.27360	0.09246
1396.34495	0.09226
1394.41629	0.09191
1392.48764	0.09148
1390.55899	0.09111
1388.63033	0.09085
1386.70168	0.09059
1384.77303	0.09022
1382.84437	0.08977
1380.91572	0.08930
1378.98707	0.08881
1377.05841	0.08814
1375.12976	0.08721
1373.20111	0.08608
1371.27245	0.08480
1369.34380	0.08334
1367.41515	0.08180
1365.48649	0.08032
1363.55784	0.07897
1361.62919	0.07776
1359.70053	0.07674
1357.77188	0.07607
1355.84323	0.07592
1353.91457	0.07629
1351.98592	0.07694
1350.05727	0.07777
1348.12861	0.07888
1346.19996	0.08027
1344.27131	0.08170
1342.34266	0.08299
1340.41400	0.08406
1338.48535	0.08484
1336.55670	0.08528
1334.62804	0.08527
1332.69939	0.08469
1330.77074	0.08362
1328.84208	0.08234
1326.91343	0.08114
1324.98478	0.08013
1323.05612	0.07930
1321.12747	0.07873
1319.19882	0.07839
1317.27016	0.07816
1315.34151	0.07783
1313.41286	0.07729
1311.48420	0.07667
1309.55555	0.07609
1307.62690	0.07555
1305.69824	0.07507
1303.76959	0.07472
1301.84094	0.07437
1299.91228	0.07394
1297.98363	0.07360
1296.05498	0.07356
1294.12632	0.07380
1292.19767	0.07431
1290.26902	0.07509
1288.34036	0.07603
1286.41171	0.07700
1284.48306	0.07793
1282.55440	0.07873
1280.62575	0.07929
1278.69710	0.07957
1276.76845	0.07964
1274.83979	0.07964
1272.91114	0.07970
1270.98249	0.07989
1269.05383	0.08023
1267.12518	0.08072
1265.19653	0.08133
1263.26787	0.08201
1261.33922	0.08283
1259.41057	0.08383
1257.48191	0.08498
1255.55326	0.08621
1253.62461	0.08756
1251.69595	0.08904
1249.76730	0.09061
1247.83865	0.09227
1245.90999	0.09401
1243.98134	0.09578
1242.05269	0.09744
1240.12403	0.09883
1238.19538	0.09988
1236.26673	0.10062
1234.33807	0.10098
1232.40942	0.10080
1230.48077	0.10000
1228.55211	0.09871
1226.62346	0.09707
1224.69481	0.09513
1222.76615	0.09296
1220.83750	0.09079
1218.90885	0.08887
1216.98019	0.08736
1215.05154	0.08625
1213.12289	0.08550
1211.19423	0.08519
1209.26558	0.08538
1207.33693	0.08590
1205.40828	0.08644
1203.47962	0.08674
1201.55097	0.08658
1199.62232	0.08589
1197.69366	0.08472
1195.76501	0.08325
1193.83636	0.08167
1191.90770	0.08009
1189.97905	0.07855
1188.05040	0.07709
1186.12174	0.07581
1184.19309	0.07468
1182.26444	0.07371
1180.33578	0.07296
1178.40713	0.07247
1176.47848	0.07218
1174.54982	0.07196
1172.62117	0.07171
1170.69252	0.07145
1168.76386	0.07125
1166.83521	0.07119
1164.90656	0.07129
1162.97790	0.07133
1161.04925	0.07112
1159.12060	0.07054
1157.19194	0.06966
1155.26329	0.06863
1153.33464	0.06749
1151.40598	0.06623
1149.47733	0.06487
1147.54868	0.06357
1145.62002	0.06251
1143.69137	0.06160
1141.76272	0.06073
1139.83406	0.05992
1137.90541	0.05924
1135.97676	0.05866
1134.04811	0.05816
1132.11945	0.05776
1130.19080	0.05750
1128.26215	0.05733
1126.33349	0.05717
1124.40484	0.05701
1122.47619	0.05680
1120.54753	0.05646
1118.61888	0.05614
1116.69023	0.05604
1114.76157	0.05600
1112.83292	0.05592
1110.90427	0.05605
1108.97561	0.05647
1107.04696	0.05691
1105.11831	0.05722
1103.18965	0.05759
1101.26100	0.05812
1099.33235	0.05870
1097.40369	0.05929
1095.47504	0.05998
1093.54639	0.06085
1091.61773	0.06196
1089.68908	0.06331
1087.76043	0.06479
1085.83177	0.06628
1083.90312	0.06772
1081.97447	0.06894
1080.04581	0.06963
1078.11716	0.06977
1076.18851	0.06956
1074.25985	0.06910
1072.33120	0.06859
1070.40255	0.06816
1068.47390	0.06787
1066.54524	0.06777
1064.61659	0.06779
1062.68794	0.06781
1060.75928	0.06768
1058.83063	0.06731
1056.90198	0.06676
1054.97332	0.06615
1053.04467	0.06551
1051.11602	0.06485
1049.18736	0.06421
1047.25871	0.06361
1045.33006	0.06319
1043.40140	0.06296
1041.47275	0.06290
1039.54410	0.06308
1037.61544	0.06348
1035.68679	0.06404
1033.75814	0.06463
1031.82948	0.06492
1029.90083	0.06465
1027.97218	0.06384
1026.04352	0.06268
1024.11487	0.06143
1022.18622	0.06026
1020.25756	0.05918
1018.32891	0.05828
1016.40026	0.05756
1014.47160	0.05687
1012.54295	0.05615
1010.61430	0.05542
1008.68564	0.05462
1006.75699	0.05376
1004.82834	0.05291
1002.89968	0.05210
1000.97103	0.05133
999.04238	0.05061
997.11373	0.05001
995.18507	0.04948
993.25642	0.04887
991.32777	0.04825
989.39911	0.04771
987.47046	0.04728
985.54181	0.04691
983.61315	0.04664
981.68450	0.04660
979.75585	0.04683
977.82719	0.04711
975.89854	0.04725
973.96989	0.04729
972.04123	0.04721
970.11258	0.04689
968.18393	0.04643
966.25527	0.04601
964.32662	0.04558
962.39797	0.04518
960.46931	0.04491
958.54066	0.04469
956.61201	0.04435
954.68335	0.04398
952.75470	0.04371
950.82605	0.04355
948.89739	0.04347
946.96874	0.04343
945.04009	0.04339
943.11143	0.04345
941.18278	0.04369
939.25413	0.04388
937.32547	0.04386
935.39682	0.04381
933.46817	0.04384
931.53952	0.04383
929.61086	0.04373
927.68221	0.04359
925.75356	0.04351
923.82490	0.04354
921.89625	0.04350
919.96760	0.04329
918.03894	0.04302
916.11029	0.04278
914.18164	0.04254
912.25298	0.04224
910.32433	0.04193
908.39568	0.04175
906.46702	0.04167
904.53837	0.04153
902.60972	0.04130
900.68106	0.04110
898.75241	0.04096
896.82376	0.04078
894.89510	0.04049
892.96645	0.04021
891.03780	0.04011
889.10914	0.04015
887.18049	0.04012
885.25184	0.04004
883.32318	0.04007
881.39453	0.04023
879.46588	0.04038
877.53722	0.04044
875.60857	0.04043
873.67992	0.04039
871.75126	0.04026
869.82261	0.04006
867.89396	0.03995
865.96530	0.03986
864.03665	0.03965
862.10800	0.03946
860.17935	0.03947
858.25069	0.03966
856.32204	0.03992
854.39339	0.04010
852.46473	0.04015
850.53608	0.04012
848.60743	0.03998
846.67877	0.03984
844.75012	0.03981
842.82147	0.03977
840.89281	0.03963
838.96416	0.03944
837.03551	0.03932
835.10685	0.03924
833.17820	0.03916
831.24955	0.03921
829.32089	0.03944
827.39224	0.03959
825.46359	0.03966
823.53493	0.03990
821.60628	0.04035
819.67763	0.04079
817.74897	0.04115
815.82032	0.04149
813.89167	0.04166
811.96301	0.04167
810.03436	0.04181
808.10571	0.04214
806.17705	0.04245
804.24840	0.04259
802.31975	0.04267
800.39109	0.04281
798.46244	0.04306
796.53379	0.04342
794.60513	0.04384
792.67648	0.04422
790.74783	0.04455
788.81918	0.04478
786.89052	0.04497
784.96187	0.04520
783.03322	0.04550
781.10456	0.04581
779.17591	0.04605
777.24726	0.04615
775.31860	0.04626
773.38995	0.04665
771.46130	0.04726
769.53264	0.04774
767.60399	0.04793
765.67534	0.04806
763.74668	0.04843
761.81803	0.04896
759.88938	0.04934
757.96072	0.04962
756.03207	0.05003
754.10342	0.05059
752.17476	0.05106
750.24611	0.05134
748.31746	0.05160
746.38880	0.05207
744.46015	0.05261
742.53150	0.05287
740.60284	0.05289
738.67419	0.05298
736.74554	0.05333
734.81688	0.05387
732.88823	0.05445
730.95958	0.05509
729.03092	0.05580
727.10227	0.05636
725.17362	0.05664
723.24497	0.05674
721.31631	0.05704
719.38766	0.05747
717.45901	0.05796
715.53035	0.05840
713.60170	0.05870
711.67305	0.05901
709.74439	0.05943
707.81574	0.05991
705.88709	0.06041
703.95843	0.06090
702.02978	0.06130
700.10113	0.06155
698.17247	0.06179
696.24382	0.06212
694.31517	0.06241
692.38651	0.06257
690.45786	0.06274
688.52921	0.06297
686.60055	0.06326
684.67190	0.06361
682.74325	0.06405
680.81459	0.06450
678.88594	0.06484
676.95729	0.06502
675.02863	0.06513
673.09998	0.06534
671.17133	0.06569
669.24267	0.06608
667.31402	0.06640
665.38537	0.06666
663.45671	0.06694
661.52806	0.06725
659.59941	0.06749
657.67075	0.06765
655.74210	0.06777
653.81345	0.06785
651.88480	0.06798
649.95614	0.06826
648.02749	0.06865
646.09884	0.06896
644.17018	0.06901
642.24153	0.06891
640.31288	0.06894
638.38422	0.06912
636.45557	0.06925
634.52692	0.06932
632.59826	0.06937
630.66961	0.06945
628.74096	0.06955
626.81230	0.06885
624.88365	0.06839
622.95500	0.06853
621.02634	0.06782
619.09769	0.06682
617.16904	0.06857
615.24038	0.07185
613.31173	0.07409
611.38308	0.07534
609.45442	0.07509
607.52577	0.07340
605.59712	0.07220
603.66846	0.07173
601.73981	0.07144
599.81116	0.07117
597.88250	0.07090
595.95385	0.07054
594.02520	0.07028
592.09654	0.07050
590.16789	0.07098
588.23924	0.07113
586.31059	0.07107
584.38193	0.07114
582.45328	0.07128
580.52463	0.07137
578.59597	0.07138
576.66732	0.07144
574.73867	0.07173
572.81001	0.07198
570.88136	0.07191
568.95271	0.07189
567.02405	0.07221
565.09540	0.07259
563.16675	0.07280
561.23809	0.07297
559.30944	0.07316
557.38079	0.07332
555.45213	0.07336
553.52348	0.07313
551.59483	0.07267
549.66617	0.07232
547.73752	0.07230
545.80887	0.07235
543.88021	0.07220
541.95156	0.07189
540.02291	0.07173
538.09425	0.07187
536.16560	0.07209
534.23695	0.07219
532.30829	0.07230
530.37964	0.07248
528.45099	0.07250
526.52233	0.07226
524.59368	0.07194
522.66503	0.07163
520.73637	0.07134
518.80772	0.07108
516.87907	0.07090
514.95042	0.07077
513.02176	0.07054
511.09311	0.07015
509.16446	0.06973
507.23580	0.06939
505.30715	0.06903
503.37850	0.06858
501.44984	0.06817
499.52119	0.06792
497.59254	0.06762
495.66388	0.06714
493.73523	0.06675
491.80658	0.06650
489.87792	0.06609
487.94927	0.06554
486.02062	0.06507
484.09196	0.06463
482.16331	0.06422
480.23466	0.06395
478.30600	0.06371
476.37735	0.06337
474.44870	0.06298
472.52004	0.06258
470.59139	0.06215
468.66274	0.06179
466.73408	0.06160
464.80543	0.06141
462.87678	0.06101
460.94812	0.06043
459.01947	0.05987
457.09082	0.05940
455.16216	0.05887
453.23351	0.05825
451.30486	0.05770
449.37620	0.05726
447.44755	0.05680
445.51890	0.05636
443.59025	0.05608
441.66159	0.05581
439.73294	0.05541
437.80429	0.05505
435.87563	0.05475
433.94698	0.05443
432.01833	0.05410
430.08967	0.05378
428.16102	0.05344
426.23237	0.05307
424.30371	0.05267
422.37506	0.05230
420.44641	0.05194
418.51775	0.05158
416.58910	0.05124
414.66045	0.05089
412.73179	0.05057
410.80314	0.05034
408.87449	0.05010
406.94583	0.04980
405.01718	0.04948
403.08853	0.04924
401.15987	0.04904
399.23122	0.04874
