3996.16951	0.03863
3994.24086	0.03897
3992.31221	0.03918
3990.38355	0.03897
3988.45490	0.03857
3986.52625	0.03849
3984.59759	0.03875
3982.66894	0.03893
3980.74029	0.03867
3978.81163	0.03809
3976.88298	0.03779
3974.95433	0.03794
3973.02567	0.03805
3971.09702	0.03782
3969.16837	0.03742
3967.23972	0.03715
3965.31106	0.03709
3963.38241	0.03704
3961.45376	0.03705
3959.52510	0.03720
3957.59645	0.03705
3955.66780	0.03654
3953.73914	0.03636
3951.81049	0.03652
3949.88184	0.03647
3947.95318	0.03635
3946.02453	0.03653
3944.09588	0.03679
3942.16722	0.03687
3940.23857	0.03699
3938.30992	0.03714
3936.38126	0.03680
3934.45261	0.03578
3932.52396	0.03495
3930.59530	0.03519
3928.66665	0.03600
3926.73800	0.03629
3924.80934	0.03610
3922.88069	0.03627
3920.95204	0.03671
3919.02338	0.03694
3917.09473	0.03714
3915.16608	0.03725
3913.23742	0.03678
3911.30877	0.03605
3909.38012	0.03588
3907.45146	0.03619
3905.52281	0.03623
3903.59416	0.03597
3901.66550	0.03581
3899.73685	0.03574
3897.80820	0.03576
3895.87955	0.03590
3893.95089	0.03605
3892.02224	0.03610
3890.09359	0.03604
3888.16493	0.03573
3886.23628	0.03536
3884.30763	0.03523
3882.37897	0.03536
3880.45032	0.03563
3878.52167	0.03591
3876.59301	0.03597
3874.66436	0.03580
3872.73571	0.03549
3870.80705	0.03524
3868.87840	0.03536
3866.94975	0.03583
3865.02109	0.03612
3863.09244	0.03621
3861.16379	0.03661
3859.23513	0.03719
3857.30648	0.03721
3855.37783	0.03648
3853.44917	0.03574
3851.52052	0.03564
3849.59187	0.03586
3847.66321	0.03581
3845.73456	0.03560
3843.80591	0.03578
3841.87725	0.03610
3839.94860	0.03578
3838.01995	0.03487
3836.09129	0.03404
3834.16264	0.03357
3832.23399	0.03329
3830.30534	0.03335
3828.37668	0.03390
3826.44803	0.03441
3824.51938	0.03429
3822.59072	0.03388
3820.66207	0.03379
3818.73342	0.03392
3816.80476	0.03378
3814.87611	0.03344
3812.94746	0.03346
3811.01880	0.03397
3809.09015	0.03438
3807.16150	0.03447
3805.23284	0.03443
3803.30419	0.03431
3801.37554	0.03415
3799.44688	0.03415
3797.51823	0.03414
3795.58958	0.03374
3793.66092	0.03315
3791.73227	0.03273
3789.80362	0.03261
3787.87496	0.03283
3785.94631	0.03303
3784.01766	0.03298
3782.08900	0.03309
3780.16035	0.03328
3778.23170	0.03312
3776.30304	0.03296
3774.37439	0.03303
3772.44574	0.03286
3770.51708	0.03249
3768.58843	0.03247
3766.65978	0.03277
3764.73112	0.03264
3762.80247	0.03189
3760.87382	0.03132
3758.94517	0.03137
3757.01651	0.03186
3755.08786	0.03259
3753.15921	0.03320
3751.23055	0.03315
3749.30190	0.03256
3747.37325	0.03220
3745.44459	0.03219
3743.51594	0.03195
3741.58729	0.03153
3739.65863	0.03154
3737.72998	0.03198
3735.80133	0.03247
3733.87267	0.03273
3731.94402	0.03245
3730.01537	0.03169
3728.08671	0.03111
3726.15806	0.03117
3724.22941	0.03150
3722.30075	0.03123
3720.37210	0.03051
3718.44345	0.03050
3716.51479	0.03119
3714.58614	0.03130
3712.65749	0.03055
3710.72883	0.02998
3708.80018	0.03014
3706.87153	0.03057
3704.94287	0.03097
3703.01422	0.03139
3701.08557	0.03161
3699.15691	0.03130
3697.22826	0.03075
3695.29961	0.03061
3693.37095	0.03072
3691.44230	0.03072
3689.51365	0.03088
3687.58500	0.03102
3685.65634	0.03052
3683.72769	0.02978
3681.79904	0.02968
3679.87038	0.03016
3677.94173	0.03056
3676.01308	0.03066
3674.08442	0.03062
3672.15577	0.03065
3670.22712	0.03077
3668.29846	0.03070
3666.36981	0.03065
3664.44116	0.03099
3662.51250	0.03150
3660.58385	0.03166
3658.65520	0.03126
3656.72654	0.03068
3654.79789	0.03041
3652.86924	0.03065
3650.94058	0.03127
3649.01193	0.03199
3647.08328	0.03257
3645.15462	0.03302
3643.22597	0.03354
3641.29732	0.03401
3639.36866	0.03401
3637.44001	0.03369
3635.51136	0.03359
3633.58270	0.03390
3631.65405	0.03450
3629.72540	0.03523
3627.79674	0.03594
3625.86809	0.03657
3623.93944	0.03660
3622.01079	0.03590
3620.08213	0.03554
3618.15348	0.03607
3616.22483	0.03690
3614.29617	0.03766
3612.36752	0.03825
3610.43887	0.03853
3608.51021	0.03855
3606.58156	0.03844
3604.65291	0.03824
3602.72425	0.03812
3600.79560	0.03841
3598.86695	0.03907
3596.93829	0.03958
3595.00964	0.03971
3593.08099	0.03989
3591.15233	0.04038
3589.22368	0.04109
3587.29503	0.04186
3585.36637	0.04244
3583.43772	0.04276
3581.50907	0.04307
3579.58041	0.04344
3577.65176	0.04353
3575.72311	0.04352
3573.79445	0.04410
3571.86580	0.04523
3569.93715	0.04611
3568.00849	0.04632
3566.07984	0.04636
3564.15119	0.04687
3562.22253	0.04775
3560.29388	0.04817
3558.36523	0.04797
3556.43657	0.04794
3554.50792	0.04844
3552.57927	0.04925
3550.65062	0.05007
3548.72196	0.05066
3546.79331	0.05123
3544.86466	0.05182
3542.93600	0.05213
3541.00735	0.05229
3539.07870	0.05264
3537.15004	0.05306
3535.22139	0.05346
3533.29274	0.05391
3531.36408	0.05447
3529.43543	0.05522
3527.50678	0.05593
3525.57812	0.05633
3523.64947	0.05667
3521.72082	0.05718
3519.79216	0.05770
3517.86351	0.05807
3515.93486	0.05828
3514.00620	0.05856
3512.07755	0.05902
3510.14890	0.05950
3508.22024	0.05998
3506.29159	0.06045
3504.36294	0.06073
3502.43428	0.06082
3500.50563	0.06099
3498.57698	0.06156
3496.64832	0.06243
3494.71967	0.06317
3492.79102	0.06356
3490.86236	0.06386
3488.93371	0.06409
3487.00506	0.06414
3485.07641	0.06443
3483.14775	0.06505
3481.21910	0.06550
3479.29045	0.06560
3477.36179	0.06569
3475.43314	0.06601
3473.50449	0.06643
3471.57583	0.06688
3469.64718	0.06757
3467.71853	0.06835
3465.78987	0.06885
3463.86122	0.06914
3461.93257	0.06942
3460.00391	0.06947
3458.07526	0.06935
3456.14661	0.06955
3454.21795	0.07017
3452.28930	0.07085
3450.36065	0.07132
3448.43199	0.07154
3446.50334	0.07178
3444.57469	0.07206
3442.64603	0.07216
3440.71738	0.07224
3438.78873	0.07253
3436.86007	0.07273
3434.93142	0.07284
3433.00277	0.07323
3431.07411	0.07390
3429.14546	0.07453
3427.21681	0.07499
3425.28815	0.07535
3423.35950	0.07562
3421.43085	0.07579
3419.50219	0.07609
3417.57354	0.07653
3415.64489	0.07694
3413.71624	0.07728
3411.78758	0.07762
3409.85893	0.07802
3407.93028	0.07850
3406.00162	0.07891
3404.07297	0.07908
3402.14432	0.07904
3400.21566	0.07913
3398.28701	0.07962
3396.35836	0.08034
3394.42970	0.08082
3392.50105	0.08092
3390.57240	0.08094
3388.64374	0.08105
3386.71509	0.08095
3384.78644	0.08084
3382.85778	0.08147
3380.92913	0.08248
3379.00048	0.08300
3377.07182	0.08325
3375.14317	0.08385
3373.21452	0.08478
3371.28586	0.08569
3369.35721	0.08633
3367.42856	0.08671
3365.49990	0.08706
3363.57125	0.08747
3361.64260	0.08791
3359.71394	0.08854
3357.78529	0.08935
3355.85664	0.09002
3353.92798	0.09053
3351.99933	0.09122
3350.07068	0.09212
3348.14202	0.09296
3346.21337	0.09343
3344.28472	0.09378
3342.35607	0.09451
3340.42741	0.09548
3338.49876	0.09635
3336.57011	0.09718
3334.64145	0.09801
3332.71280	0.09851
3330.78415	0.09853
3328.85549	0.09856
3326.92684	0.09903
3324.99819	0.09979
3323.06953	0.10047
3321.14088	0.10093
3319.21223	0.10121
3317.28357	0.10145
3315.35492	0.10173
3313.42627	0.10206
3311.49761	0.10231
3309.56896	0.10245
3307.64031	0.10251
3305.71165	0.10263
3303.78300	0.10286
3301.85435	0.10295
3299.92569	0.10275
3297.99704	0.10251
3296.06839	0.10258
3294.13973	0.10279
3292.21108	0.10279
3290.28243	0.10260
3288.35377	0.10238
3286.42512	0.10221
3284.49647	0.10230
3282.56781	0.10258
3280.63916	0.10261
3278.71051	0.10231
3276.78186	0.10190
3274.85320	0.10135
3272.92455	0.10076
3270.99590	0.10046
3269.06724	0.10041
3267.13859	0.10017
3265.20994	0.09963
3263.28128	0.09899
3261.35263	0.09835
3259.42398	0.09769
3257.49532	0.09686
3255.56667	0.09589
3253.63802	0.09519
3251.70936	0.09505
3249.78071	0.09518
3247.85206	0.09519
3245.92340	0.09491
3243.99475	0.09440
3242.06610	0.09396
3240.13744	0.09351
3238.20879	0.09258
3236.28014	0.09166
3234.35148	0.09152
3232.42283	0.09180
3230.49418	0.09185
3228.56552	0.09149
3226.63687	0.09083
3224.70822	0.09026
3222.77956	0.09000
3220.85091	0.08987
3218.92226	0.08980
3216.99360	0.08969
3215.06495	0.08931
3213.13630	0.08875
3211.20764	0.08832
3209.27899	0.08811
3207.35034	0.08783
3205.42169	0.08733
3203.49303	0.08682
3201.56438	0.08663
3199.63573	0.08665
3197.70707	0.08645
3195.77842	0.08591
3193.84977	0.08519
3191.92111	0.08439
3189.99246	0.08379
3188.06381	0.08346
3186.13515	0.08317
3184.20650	0.08277
3182.27785	0.08223
3180.34919	0.08155
3178.42054	0.08082
3176.49189	0.08024
3174.56323	0.07990
3172.63458	0.07950
3170.70593	0.07881
3168.77727	0.07799
3166.84862	0.07732
3164.91997	0.07684
3162.99131	0.07643
3161.06266	0.07595
3159.13401	0.07543
3157.20535	0.07512
3155.27670	0.07495
3153.34805	0.07457
3151.41939	0.07392
3149.49074	0.07329
3147.56209	0.07287
3145.63343	0.07247
3143.70478	0.07174
3141.77613	0.07079
3139.84748	0.07016
3137.91882	0.07015
3135.99017	0.07025
3134.06152	0.06989
3132.13286	0.06937
3130.20421	0.06897
3128.27556	0.06848
3126.34690	0.06810
3124.41825	0.06812
3122.48960	0.06812
3120.56094	0.06782
3118.63229	0.06762
3116.70364	0.06763
3114.77498	0.06758
3112.84633	0.06766
3110.91768	0.06797
3108.98902	0.06801
3107.06037	0.06781
3105.13172	0.06781
3103.20306	0.06789
3101.27441	0.06778
3099.34576	0.06765
3097.41710	0.06762
3095.48845	0.06769
3093.55980	0.06798
3091.63114	0.06841
3089.70249	0.06860
3087.77384	0.06868
3085.84518	0.06905
3083.91653	0.06949
3081.98788	0.06972
3080.05922	0.06984
3078.13057	0.06994
3076.20192	0.06997
3074.27326	0.06994
3072.34461	0.06978
3070.41596	0.06937
3068.48731	0.06877
3066.55865	0.06834
3064.63000	0.06822
3062.70135	0.06833
3060.77269	0.06848
3058.84404	0.06830
3056.91539	0.06781
3054.98673	0.06732
3053.05808	0.06693
3051.12943	0.06639
3049.20077	0.06572
3047.27212	0.06522
3045.34347	0.06503
3043.41481	0.06494
3041.48616	0.06456
3039.55751	0.06380
3037.62885	0.06306
3035.70020	0.06254
3033.77155	0.06210
3031.84289	0.06179
3029.91424	0.06162
3027.98559	0.06129
3026.05693	0.06073
3024.12828	0.06005
3022.19963	0.05939
3020.27097	0.05903
3018.34232	0.05893
3016.41367	0.05880
3014.48501	0.05859
3012.55636	0.05834
3010.62771	0.05800
3008.69905	0.05762
3006.77040	0.05748
3004.84175	0.05761
3002.91309	0.05765
3000.98444	0.05745
2999.05579	0.05731
2997.12714	0.05752
2995.19848	0.05796
2993.26983	0.05838
2991.34118	0.05885
2989.41252	0.05937
2987.48387	0.05959
2985.55522	0.05954
2983.62656	0.05969
2981.69791	0.06002
2979.76926	0.06028
2977.84060	0.06048
2975.91195	0.06071
2973.98330	0.06101
2972.05464	0.06128
2970.12599	0.06124
2968.19734	0.06119
2966.26868	0.06158
2964.34003	0.06211
2962.41138	0.06233
2960.48272	0.06246
2958.55407	0.06268
2956.62542	0.06288
2954.69676	0.06298
2952.76811	0.06304
2950.83946	0.06304
2948.91080	0.06285
2946.98215	0.06267
2945.05350	0.06263
2943.12484	0.06262
2941.19619	0.06267
2939.26754	0.06279
2937.33888	0.06296
2935.41023	0.06291
2933.48158	0.06254
2931.55293	0.06227
2929.62427	0.06226
2927.69562	0.06226
2925.76697	0.06202
2923.83831	0.06157
2921.90966	0.06123
2919.98101	0.06099
2918.05235	0.06052
2916.12370	0.05981
2914.19505	0.05910
2912.26639	0.05857
2910.33774	0.05816
2908.40909	0.05766
2906.48043	0.05710
2904.55178	0.05660
2902.62313	0.05626
2900.69447	0.05613
2898.76582	0.05600
2896.83717	0.05567
2894.90851	0.05533
2892.97986	0.05522
2891.05121	0.05522
2889.12255	0.05523
2887.19390	0.05523
2885.26525	0.05521
2883.33659	0.05525
2881.40794	0.05533
2879.47929	0.05529
2877.55063	0.05513
2875.62198	0.05506
2873.69333	0.05502
2871.76467	0.05478
2869.83602	0.05434
2867.90737	0.05381
2865.97871	0.05334
2864.05006	0.05299
2862.12141	0.05265
2860.19276	0.05220
2858.26410	0.05175
2856.33545	0.05132
2854.40680	0.05082
2852.47814	0.05029
2850.54949	0.05005
2848.62084	0.05008
2846.69218	0.04997
2844.76353	0.04961
2842.83488	0.04927
2840.90622	0.04911
2838.97757	0.04905
2837.04892	0.04885
2835.12026	0.04847
2833.19161	0.04811
2831.26296	0.04793
2829.33430	0.04777
2827.40565	0.04755
2825.47700	0.04734
2823.54834	0.04714
2821.61969	0.04699
2819.69104	0.04692
2817.76238	0.04683
2815.83373	0.04676
2813.90508	0.04676
2811.97642	0.04655
2810.04777	0.04607
2808.11912	0.04569
2806.19046	0.04566
2804.26181	0.04574
2802.33316	0.04564
2800.40450	0.04544
2798.47585	0.04523
2796.54720	0.04498
2794.61855	0.04488
2792.68989	0.04502
2790.76124	0.04513
2788.83259	0.04499
2786.90393	0.04469
2784.97528	0.04445
2783.04663	0.04434
2781.11797	0.04422
2779.18932	0.04407
2777.26067	0.04396
2775.33201	0.04380
2773.40336	0.04353
2771.47471	0.04328
2769.54605	0.04313
2767.61740	0.04299
2765.68875	0.04288
2763.76009	0.04279
2761.83144	0.04277
2759.90279	0.04280
2757.97413	0.04268
2756.04548	0.04241
2754.11683	0.04216
2752.18817	0.04201
2750.25952	0.04202
2748.33087	0.04204
2746.40221	0.04180
2744.47356	0.04138
2742.54491	0.04113
2740.61625	0.04107
2738.68760	0.04093
2736.75895	0.04074
2734.83029	0.04074
2732.90164	0.04090
2730.97299	0.04090
2729.04433	0.04058
2727.11568	0.04023
2725.18703	0.04005
2723.25838	0.03999
2721.32972	0.04007
2719.40107	0.04019
2717.47242	0.04009
2715.54376	0.03973
2713.61511	0.03938
2711.68646	0.03928
2709.75780	0.03937
2707.82915	0.03936
2705.90050	0.03922
2703.97184	0.03921
2702.04319	0.03916
2700.11454	0.03882
2698.18588	0.03845
2696.25723	0.03834
2694.32858	0.03840
2692.39992	0.03838
2690.47127	0.03825
2688.54262	0.03812
2686.61396	0.03799
2684.68531	0.03790
2682.75666	0.03805
2680.82800	0.03827
2678.89935	0.03831
2676.97070	0.03814
2675.04204	0.03782
2673.11339	0.03764
2671.18474	0.03772
2669.25608	0.03778
2667.32743	0.03762
2665.39878	0.03736
2663.47012	0.03711
2661.54147	0.03693
2659.61282	0.03683
2657.68417	0.03673
2655.75551	0.03654
2653.82686	0.03635
2651.89821	0.03625
2649.96955	0.03615
2648.04090	0.03607
2646.11225	0.03604
2644.18359	0.03578
2642.25494	0.03536
2640.32629	0.03518
2638.39763	0.03524
2636.46898	0.03512
2634.54033	0.03469
2632.61167	0.03430
2630.68302	0.03419
2628.75437	0.03415
2626.82571	0.03400
2624.89706	0.03397
2622.96841	0.03403
2621.03975	0.03382
2619.11110	0.03342
2617.18245	0.03304
2615.25379	0.03270
2613.32514	0.03251
2611.39649	0.03244
2609.46783	0.03245
2607.53918	0.03255
2605.61053	0.03252
2603.68187	0.03236
2601.75322	0.03227
2599.82457	0.03226
2597.89591	0.03234
2595.96726	0.03229
2594.03861	0.03197
2592.10995	0.03166
2590.18130	0.03141
2588.25265	0.03112
2586.32400	0.03100
2584.39534	0.03121
2582.46669	0.03143
2580.53804	0.03126
2578.60938	0.03086
2576.68073	0.03058
2574.75208	0.03048
2572.82342	0.03034
2570.89477	0.03002
2568.96612	0.02983
2567.03746	0.03002
2565.10881	0.03026
2563.18016	0.03008
2561.25150	0.02952
2559.32285	0.02915
2557.39420	0.02934
2555.46554	0.02964
2553.53689	0.02970
2551.60824	0.02961
2549.67958	0.02941
2547.75093	0.02916
2545.82228	0.02887
2543.89362	0.02845
2541.96497	0.02810
2540.03632	0.02807
2538.10766	0.02818
2536.17901	0.02825
2534.25036	0.02827
2532.32170	0.02812
2530.39305	0.02796
2528.46440	0.02808
2526.53574	0.02823
2524.60709	0.02823
2522.67844	0.02823
2520.74978	0.02822
2518.82113	0.02823
2516.89248	0.02832
2514.96383	0.02830
2513.03517	0.02813
2511.10652	0.02816
2509.17787	0.02836
2507.24921	0.02821
2505.32056	0.02776
2503.39191	0.02745
2501.46325	0.02723
2499.53460	0.02713
2497.60595	0.02733
2495.67729	0.02742
2493.74864	0.02713
2491.81999	0.02702
2489.89133	0.02717
2487.96268	0.02712
2486.03403	0.02709
2484.10537	0.02724
2482.17672	0.02711
2480.24807	0.02684
2478.31941	0.02688
2476.39076	0.02695
2474.46211	0.02674
2472.53345	0.02666
2470.60480	0.02703
2468.67615	0.02744
2466.74749	0.02742
2464.81884	0.02703
2462.89019	0.02669
2460.96153	0.02649
2459.03288	0.02624
2457.10423	0.02615
2455.17557	0.02629
2453.24692	0.02644
2451.31827	0.02651
2449.38962	0.02640
2447.46096	0.02626
2445.53231	0.02616
2443.60366	0.02607
2441.67500	0.02609
2439.74635	0.02612
2437.81770	0.02607
2435.88904	0.02613
2433.96039	0.02623
2432.03174	0.02619
2430.10308	0.02600
2428.17443	0.02573
2426.24578	0.02550
2424.31712	0.02546
2422.38847	0.02564
2420.45982	0.02602
2418.53116	0.02627
2416.60251	0.02606
2414.67386	0.02570
2412.74520	0.02549
2410.81655	0.02529
2408.88790	0.02513
2406.95924	0.02524
2405.03059	0.02549
2403.10194	0.02573
2401.17328	0.02594
2399.24463	0.02603
2397.31598	0.02583
2395.38732	0.02556
2393.45867	0.02558
2391.53002	0.02583
2389.60136	0.02600
2387.67271	0.02593
2385.74406	0.02568
2383.81540	0.02545
2381.88675	0.02531
2379.95810	0.02528
2378.02945	0.02538
2376.10079	0.02560
2374.17214	0.02573
2372.24349	0.02551
2370.31483	0.02512
2368.38618	0.02523
2366.45753	0.02566
2364.52887	0.02597
2362.60022	0.02596
2360.67157	0.02605
2358.74291	0.02591
2356.81426	0.02622
2354.88561	0.02619
2352.95695	0.02602
2351.02830	0.02614
2349.09965	0.02633
2347.17099	0.02648
2345.24234	0.02661
2343.31369	0.02651
2341.38503	0.02607
2339.45638	0.02578
2337.52773	0.02570
2335.59907	0.02575
2333.67042	0.02579
2331.74177	0.02583
2329.81311	0.02592
2327.88446	0.02602
2325.95581	0.02598
2324.02715	0.02569
2322.09850	0.02527
2320.16985	0.02493
2318.24119	0.02469
2316.31254	0.02457
2314.38389	0.02442
2312.45524	0.02413
2310.52658	0.02391
2308.59793	0.02392
2306.66928	0.02398
2304.74062	0.02392
2302.81197	0.02364
2300.88332	0.02315
2298.95466	0.02268
2297.02601	0.02245
2295.09736	0.02265
2293.16870	0.02293
2291.24005	0.02286
2289.31140	0.02270
2287.38274	0.02255
2285.45409	0.02200
2283.52544	0.02128
2281.59678	0.02086
2279.66813	0.02064
2277.73948	0.02062
2275.81082	0.02089
2273.88217	0.02116
2271.95352	0.02110
2270.02486	0.02086
2268.09621	0.02061
2266.16756	0.02011
2264.23890	0.01942
2262.31025	0.01896
2260.38160	0.01890
2258.45294	0.01900
2256.52429	0.01897
2254.59564	0.01891
2252.66698	0.01889
2250.73833	0.01879
2248.80968	0.01867
2246.88102	0.01864
2244.95237	0.01848
2243.02372	0.01829
2241.09507	0.01834
2239.16641	0.01837
2237.23776	0.01802
2235.30911	0.01748
2233.38045	0.01713
2231.45180	0.01709
2229.52315	0.01723
2227.59449	0.01721
2225.66584	0.01683
2223.73719	0.01635
2221.80853	0.01607
2219.87988	0.01584
2217.95123	0.01546
2216.02257	0.01533
2214.09392	0.01597
2212.16527	0.01657
2210.23661	0.01627
2208.30796	0.01568
2206.37931	0.01511
2204.45065	0.01401
2202.52200	0.01296
2200.59335	0.01293
2198.66469	0.01359
2196.73604	0.01435
2194.80739	0.01508
2192.87873	0.01508
2190.95008	0.01388
2189.02143	0.01229
2187.09277	0.01155
2185.16412	0.01217
2183.23547	0.01347
2181.30681	0.01424
2179.37816	0.01401
2177.44951	0.01329
2175.52085	0.01308
2173.59220	0.01335
2171.66355	0.01307
2169.73490	0.01279
2167.80624	0.01337
2165.87759	0.01381
2163.94894	0.01318
2162.02028	0.01201
2160.09163	0.01146
2158.16298	0.01172
2156.23432	0.01178
2154.30567	0.01166
2152.37702	0.01222
2150.44836	0.01325
2148.51971	0.01403
2146.59106	0.01437
2144.66240	0.01444
2142.73375	0.01463
2140.80510	0.01485
2138.87644	0.01457
2136.94779	0.01416
2135.01914	0.01435
2133.09048	0.01490
2131.16183	0.01538
2129.23318	0.01569
2127.30452	0.01568
2125.37587	0.01590
2123.44722	0.01679
2121.51856	0.01749
2119.58991	0.01745
2117.66126	0.01697
2115.73260	0.01644
2113.80395	0.01627
2111.87530	0.01654
2109.94664	0.01692
2108.01799	0.01714
2106.08934	0.01714
2104.16069	0.01685
2102.23203	0.01633
2100.30338	0.01587
2098.37473	0.01552
2096.44607	0.01519
2094.51742	0.01519
2092.58877	0.01593
2090.66011	0.01699
2088.73146	0.01738
2086.80281	0.01679
2084.87415	0.01588
2082.94550	0.01531
2081.01685	0.01509
2079.08819	0.01513
2077.15954	0.01525
2075.23089	0.01505
2073.30223	0.01446
2071.37358	0.01401
2069.44493	0.01388
2067.51627	0.01365
2065.58762	0.01343
2063.65897	0.01339
2061.73031	0.01303
2059.80166	0.01270
2057.87301	0.01309
2055.94435	0.01344
2054.01570	0.01296
2052.08705	0.01232
2050.15839	0.01202
2048.22974	0.01170
2046.30109	0.01141
2044.37243	0.01152
2042.44378	0.01179
2040.51513	0.01184
2038.58647	0.01197
2036.65782	0.01223
2034.72917	0.01182
2032.80052	0.01064
2030.87186	0.00960
2028.94321	0.00943
2027.01456	0.00998
2025.08590	0.01011
2023.15725	0.00973
2021.22860	0.01040
2019.29994	0.01188
2017.37129	0.01224
2015.44264	0.01141
2013.51398	0.01068
2011.58533	0.01006
2009.65668	0.00938
2007.72802	0.00931
2005.79937	0.01001
2003.87072	0.01094
2001.94206	0.01166
2000.01341	0.01182
1998.08476	0.01147
1996.15610	0.01121
1994.22745	0.01137
1992.29880	0.01169
1990.37014	0.01185
1988.44149	0.01191
1986.51284	0.01233
1984.58418	0.01254
1982.65553	0.01140
1980.72688	0.00923
1978.79822	0.00766
1976.86957	0.00789
1974.94092	0.00952
1973.01226	0.01132
1971.08361	0.01238
1969.15496	0.01222
1967.22631	0.01143
1965.29765	0.01114
1963.36900	0.01160
1961.44035	0.01214
1959.51169	0.01215
1957.58304	0.01162
1955.65439	0.01103
1953.72573	0.01113
1951.79708	0.01219
1949.86843	0.01327
1947.93977	0.01336
1946.01112	0.01277
1944.08247	0.01240
1942.15381	0.01227
1940.22516	0.01217
1938.29651	0.01241
1936.36785	0.01310
1934.43920	0.01375
1932.51055	0.01380
1930.58189	0.01340
1928.65324	0.01332
1926.72459	0.01371
1924.79593	0.01388
1922.86728	0.01360
1920.93863	0.01341
1919.00997	0.01363
1917.08132	0.01406
1915.15267	0.01446
1913.22401	0.01455
1911.29536	0.01408
1909.36671	0.01342
1907.43805	0.01330
1905.50940	0.01364
1903.58075	0.01378
1901.65209	0.01369
1899.72344	0.01370
1897.79479	0.01382
1895.86614	0.01407
1893.93748	0.01434
1892.00883	0.01431
1890.08018	0.01409
1888.15152	0.01383
1886.22287	0.01362
1884.29422	0.01371
1882.36556	0.01400
1880.43691	0.01411
1878.50826	0.01403
1876.57960	0.01389
1874.65095	0.01377
1872.72230	0.01385
1870.79364	0.01400
1868.86499	0.01393
1866.93634	0.01364
1865.00768	0.01343
1863.07903	0.01347
1861.15038	0.01365
1859.22172	0.01374
1857.29307	0.01366
1855.36442	0.01354
1853.43576	0.01343
1851.50711	0.01329
1849.57846	0.01319
1847.64980	0.01335
1845.72115	0.01362
1843.79250	0.01373
1841.86384	0.01366
1839.93519	0.01353
1838.00654	0.01339
1836.07788	0.01333
1834.14923	0.01331
1832.22058	0.01323
1830.29192	0.01318
1828.36327	0.01321
1826.43462	0.01324
1824.50597	0.01335
1822.57731	0.01354
1820.64866	0.01360
1818.72001	0.01347
1816.79135	0.01343
1814.86270	0.01347
1812.93405	0.01337
1811.00539	0.01319
1809.07674	0.01308
1807.14809	0.01302
1805.21943	0.01300
1803.29078	0.01304
1801.36213	0.01312
1799.43347	0.01315
1797.50482	0.01311
1795.57617	0.01309
1793.64751	0.01309
1791.71886	0.01310
1789.79021	0.01308
1787.86155	0.01298
1785.93290	0.01288
1784.00425	0.01287
1782.07559	0.01287
1780.14694	0.01275
1778.21829	0.01258
1776.28963	0.01252
1774.36098	0.01260
1772.43233	0.01267
1770.50367	0.01264
1768.57502	0.01265
1766.64637	0.01282
1764.71771	0.01294
1762.78906	0.01286
1760.86041	0.01278
1758.93176	0.01290
1757.00310	0.01308
1755.07445	0.01313
1753.14580	0.01318
1751.21714	0.01333
1749.28849	0.01352
1747.35984	0.01374
1745.43118	0.01399
1743.50253	0.01431
1741.57388	0.01462
1739.64522	0.01489
1737.71657	0.01522
1735.78792	0.01566
1733.85926	0.01604
1731.93061	0.01631
1730.00196	0.01662
1728.07330	0.01700
1726.14465	0.01740
1724.21600	0.01777
1722.28734	0.01809
1720.35869	0.01845
1718.43004	0.01901
1716.50138	0.01968
1714.57273	0.02032
1712.64408	0.02105
1710.71542	0.02210
1708.78677	0.02355
1706.85812	0.02531
1704.92946	0.02741
1703.00081	0.02984
1701.07216	0.03251
1699.14350	0.03532
1697.21485	0.03827
1695.28620	0.04137
1693.35754	0.04451
1691.42889	0.04770
1689.50024	0.05107
1687.57159	0.05461
1685.64293	0.05829
1683.71428	0.06214
1681.78563	0.06613
1679.85697	0.07033
1677.92832	0.07486
1675.99967	0.07968
1674.07101	0.08463
1672.14236	0.08974
1670.21371	0.09502
1668.28505	0.10028
1666.35640	0.10531
1664.42775	0.11015
1662.49909	0.11476
1660.57044	0.11886
1658.64179	0.12231
1656.71313	0.12533
1654.78448	0.12813
1652.85583	0.13062
1650.92717	0.13254
1648.99852	0.13394
1647.06987	0.13513
1645.14121	0.13614
1643.21256	0.13696
1641.28391	0.13772
1639.35525	0.13847
1637.42660	0.13907
1635.49795	0.13934
1633.56929	0.13907
1631.64064	0.13812
1629.71199	0.13645
1627.78333	0.13389
1625.85468	0.13042
1623.92603	0.12617
1621.99738	0.12135
1620.06872	0.11628
1618.14007	0.11120
1616.21142	0.10611
1614.28276	0.10102
1612.35411	0.09613
1610.42546	0.09155
1608.49680	0.08731
1606.56815	0.08333
1604.63950	0.07965
1602.71084	0.07637
1600.78219	0.07354
1598.85354	0.07111
1596.92488	0.06897
1594.99623	0.06710
1593.06758	0.06565
1591.13892	0.06463
1589.21027	0.06393
1587.28162	0.06350
1585.35296	0.06335
1583.42431	0.06352
1581.49566	0.06415
1579.56700	0.06524
1577.63835	0.06670
1575.70970	0.06843
1573.78104	0.07042
1571.85239	0.07269
1569.92374	0.07527
1567.99508	0.07811
1566.06643	0.08111
1564.13778	0.08420
1562.20912	0.08736
1560.28047	0.09061
1558.35182	0.09378
1556.42316	0.09655
1554.49451	0.09887
1552.56586	0.10082
1550.63721	0.10241
1548.70855	0.10365
1546.77990	0.10455
1544.85125	0.10509
1542.92259	0.10529
1540.99394	0.10525
1539.06529	0.10505
1537.13663	0.10462
1535.20798	0.10391
1533.27933	0.10302
1531.35067	0.10198
1529.42202	0.10079
1527.49337	0.09950
1525.56471	0.09812
1523.63606	0.09662
1521.70741	0.09502
1519.77875	0.09333
1517.85010	0.09155
1515.92145	0.08952
1513.99279	0.08715
1512.06414	0.08452
1510.13549	0.08184
1508.20683	0.07908
1506.27818	0.07610
1504.34953	0.07302
1502.42087	0.07010
1500.49222	0.06737
1498.56357	0.06472
1496.63491	0.06206
1494.70626	0.05947
1492.77761	0.05710
1490.84895	0.05502
1488.92030	0.05322
1486.99165	0.05173
1485.06299	0.05070
1483.13434	0.05017
1481.20569	0.05001
1479.27704	0.05014
1477.34838	0.05059
1475.41973	0.05139
1473.49108	0.05252
1471.56242	0.05389
1469.63377	0.05534
1467.70512	0.05684
1465.77646	0.05847
1463.84781	0.06017
1461.91916	0.06184
1459.99050	0.06361
1458.06185	0.06547
1456.13320	0.06711
1454.20454	0.06826
1452.27589	0.06885
1450.34724	0.06893
1448.41858	0.06865
1446.48993	0.06804
1444.56128	0.06712
1442.63262	0.06607
1440.70397	0.06500
1438.77532	0.06385
1436.84666	0.06255
1434.91801	0.06115
1432.98936	0.05974
1431.06070	0.05839
1429.13205	0.05723
1427.20340	0.05639
1425.27474	0.05586
1423.34609	0.05562
1421.41744	0.05558
1419.48878	0.05562
1417.56013	0.05567
1415.63148	0.05576
1413.70283	0.05598
1411.77417	0.05634
1409.84552	0.05680
1407.91687	0.05732
1405.98821	0.05783
1404.05956	0.05823
1402.13091	0.05839
1400.20225	0.05833
1398.27360	0.05815
1396.34495	0.05791
1394.41629	0.05760
1392.48764	0.05723
1390.55899	0.05687
1388.63033	0.05661
1386.70168	0.05635
1384.77303	0.05600
1382.84437	0.05561
1380.91572	0.05518
1378.98707	0.05469
1377.05841	0.05413
1375.12976	0.05344
1373.20111	0.05261
1371.27245	0.05172
1369.34380	0.05080
1367.41515	0.04984
1365.48649	0.04891
1363.55784	0.04806
1361.62919	0.04735
1359.70053	0.04686
1357.77188	0.04666
1355.84323	0.04671
1353.91457	0.04706
1351.98592	0.04766
1350.05727	0.04840
1348.12861	0.04922
1346.19996	0.05009
1344.27131	0.05095
1342.34266	0.05173
1340.41400	0.05244
1338.48535	0.05299
1336.55670	0.05322
1334.62804	0.05304
1332.69939	0.05248
1330.77074	0.05168
1328.84208	0.05082
1326.91343	0.04999
1324.98478	0.04928
1323.05612	0.04874
1321.12747	0.04836
1319.19882	0.04809
1317.27016	0.04787
1315.34151	0.04767
1313.41286	0.04740
1311.48420	0.04703
1309.55555	0.04662
1307.62690	0.04628
1305.69824	0.04601
1303.76959	0.04579
1301.84094	0.04564
1299.91228	0.04554
1297.98363	0.04545
1296.05498	0.04545
1294.12632	0.04569
1292.19767	0.04620
1290.26902	0.04689
1288.34036	0.04769
1286.41171	0.04844
1284.48306	0.04901
1282.55440	0.04939
1280.62575	0.04966
1278.69710	0.04979
1276.76845	0.04977
1274.83979	0.04974
1272.91114	0.04986
1270.98249	0.05006
1269.05383	0.05030
1267.12518	0.05066
1265.19653	0.05119
1263.26787	0.05179
1261.33922	0.05244
1259.41057	0.05314
1257.48191	0.05392
1255.55326	0.05477
1253.62461	0.05568
1251.69595	0.05670
1249.76730	0.05784
1247.83865	0.05901
1245.90999	0.06014
1243.98134	0.06123
1242.05269	0.06226
1240.12403	0.06314
1238.19538	0.06377
1236.26673	0.06403
1234.33807	0.06391
1232.40942	0.06342
1230.48077	0.06258
1228.55211	0.06142
1226.62346	0.05999
1224.69481	0.05837
1222.76615	0.05666
1220.83750	0.05504
1218.90885	0.05373
1216.98019	0.05278
1215.05154	0.05211
1213.12289	0.05168
1211.19423	0.05153
1209.26558	0.05169
1207.33693	0.05207
1205.40828	0.05244
1203.47962	0.05254
1201.55097	0.05225
1199.62232	0.05159
1197.69366	0.05067
1195.76501	0.04953
1193.83636	0.04829
1191.90770	0.04708
1189.97905	0.04598
1188.05040	0.04509
1186.12174	0.04437
1184.19309	0.04369
1182.26444	0.04312
1180.33578	0.04269
1178.40713	0.04236
1176.47848	0.04207
1174.54982	0.04185
1172.62117	0.04172
1170.69252	0.04168
1168.76386	0.04170
1166.83521	0.04167
1164.90656	0.04157
1162.97790	0.04153
1161.04925	0.04148
1159.12060	0.04118
1157.19194	0.04047
1155.26329	0.03956
1153.33464	0.03883
1151.40598	0.03825
1149.47733	0.03752
1147.54868	0.03661
1145.62002	0.03575
1143.69137	0.03516
1141.76272	0.03483
1139.83406	0.03455
1137.90541	0.03426
1135.97676	0.03403
1134.04811	0.03384
1132.11945	0.03362
1130.19080	0.03340
1128.26215	0.03330
1126.33349	0.03324
1124.40484	0.03314
1122.47619	0.03311
1120.54753	0.03315
1118.61888	0.03312
1116.69023	0.03311
1114.76157	0.03319
1112.83292	0.03330
1110.90427	0.03343
1108.97561	0.03359
1107.04696	0.03370
1105.11831	0.03385
1103.18965	0.03422
1101.26100	0.03474
1099.33235	0.03518
1097.40369	0.03550
1095.47504	0.03588
1093.54639	0.03649
1091.61773	0.03734
1089.68908	0.03835
1087.76043	0.03939
1085.83177	0.04047
1083.90312	0.04144
1081.97447	0.04209
1080.04581	0.04233
1078.11716	0.04224
1076.18851	0.04193
1074.25985	0.04153
1072.33120	0.04103
1070.40255	0.04060
1068.47390	0.04042
1066.54524	0.04045
1064.61659	0.04047
1062.68794	0.04031
1060.75928	0.04003
1058.83063	0.03979
1056.90198	0.03951
1054.97332	0.03913
1053.04467	0.03870
1051.11602	0.03821
1049.18736	0.03771
1047.25871	0.03743
1045.33006	0.03738
1043.40140	0.03730
1041.47275	0.03711
1039.54410	0.03711
1037.61544	0.03742
1035.68679	0.03786
1033.75814	0.03824
1031.82948	0.03837
1029.90083	0.03806
1027.97218	0.03741
1026.04352	0.03663
1024.11487	0.03585
1022.18622	0.03512
1020.25756	0.03447
1018.32891	0.03394
1016.40026	0.03351
1014.47160	0.03305
1012.54295	0.03250
1010.61430	0.03191
1008.68564	0.03132
1006.75699	0.03080
1004.82834	0.03034
1002.89968	0.02991
1000.97103	0.02956
999.04238	0.02923
997.11373	0.02886
995.18507	0.02848
993.25642	0.02811
991.32777	0.02776
989.39911	0.02750
987.47046	0.02737
985.54181	0.02732
983.61315	0.02723
981.68450	0.02719
979.75585	0.02725
977.82719	0.02734
975.89854	0.02739
973.96989	0.02738
972.04123	0.02720
970.11258	0.02688
968.18393	0.02662
966.25527	0.02642
964.32662	0.02620
962.39797	0.02603
960.46931	0.02587
958.54066	0.02564
956.61201	0.02537
954.68335	0.02514
952.75470	0.02501
950.82605	0.02488
948.89739	0.02479
946.96874	0.02489
945.04009	0.02518
943.11143	0.02544
941.18278	0.02564
939.25413	0.02573
937.32547	0.02568
935.39682	0.02559
933.46817	0.02538
931.53952	0.02512
929.61086	0.02504
927.68221	0.02512
925.75356	0.02522
923.82490	0.02526
921.89625	0.02527
919.96760	0.02527
918.03894	0.02521
916.11029	0.02503
914.18164	0.02481
912.25298	0.02464
910.32433	0.02443
908.39568	0.02416
906.46702	0.02393
904.53837	0.02379
902.60972	0.02373
900.68106	0.02370
898.75241	0.02365
896.82376	0.02360
894.89510	0.02349
892.96645	0.02323
891.03780	0.02303
889.10914	0.02308
887.18049	0.02322
885.25184	0.02333
883.32318	0.02340
881.39453	0.02341
879.46588	0.02346
877.53722	0.02359
875.60857	0.02377
873.67992	0.02384
871.75126	0.02365
869.82261	0.02337
867.89396	0.02331
865.96530	0.02345
864.03665	0.02353
862.10800	0.02341
860.17935	0.02326
858.25069	0.02326
856.32204	0.02336
854.39339	0.02347
852.46473	0.02353
850.53608	0.02358
848.60743	0.02366
846.67877	0.02371
844.75012	0.02367
842.82147	0.02358
840.89281	0.02348
838.96416	0.02338
837.03551	0.02334
835.10685	0.02338
833.17820	0.02342
831.24955	0.02349
829.32089	0.02366
827.39224	0.02391
825.46359	0.02416
823.53493	0.02434
821.60628	0.02455
819.67763	0.02495
817.74897	0.02535
815.82032	0.02553
813.89167	0.02559
811.96301	0.02567
810.03436	0.02574
808.10571	0.02576
806.17705	0.02581
804.24840	0.02595
802.31975	0.02623
800.39109	0.02657
798.46244	0.02687
796.53379	0.02712
794.60513	0.02728
792.67648	0.02735
790.74783	0.02746
788.81918	0.02769
786.89052	0.02802
784.96187	0.02842
783.03322	0.02879
781.10456	0.02898
779.17591	0.02910
777.24726	0.02929
775.31860	0.02949
773.38995	0.02962
771.46130	0.02970
769.53264	0.02980
767.60399	0.02998
765.67534	0.03023
763.74668	0.03045
761.81803	0.03071
759.88938	0.03114
757.96072	0.03156
756.03207	0.03176
754.10342	0.03193
752.17476	0.03214
750.24611	0.03239
748.31746	0.03268
746.38880	0.03288
744.46015	0.03299
742.53150	0.03319
740.60284	0.03359
738.67419	0.03406
736.74554	0.03436
734.81688	0.03448
732.88823	0.03462
730.95958	0.03483
729.03092	0.03513
727.10227	0.03556
725.17362	0.03603
723.24497	0.03640
721.31631	0.03667
719.38766	0.03698
717.45901	0.03727
715.53035	0.03745
713.60170	0.03763
711.67305	0.03794
709.74439	0.03832
707.81574	0.03859
705.88709	0.03876
703.95843	0.03901
702.02978	0.03940
700.10113	0.03976
698.17247	0.03999
696.24382	0.04009
694.31517	0.04013
692.38651	0.04017
690.45786	0.04028
688.52921	0.04041
686.60055	0.04055
684.67190	0.04073
682.74325	0.04103
680.81459	0.04140
678.88594	0.04171
676.95729	0.04190
675.02863	0.04206
673.09998	0.04221
671.17133	0.04236
669.24267	0.04255
667.31402	0.04276
665.38537	0.04297
663.45671	0.04314
661.52806	0.04332
659.59941	0.04349
657.67075	0.04362
655.74210	0.04366
653.81345	0.04364
651.88480	0.04371
649.95614	0.04386
648.02749	0.04390
646.09884	0.04383
644.17018	0.04383
642.24153	0.04388
640.31288	0.04393
638.38422	0.04403
636.45557	0.04418
634.52692	0.04422
632.59826	0.04416
630.66961	0.04418
628.74096	0.04422
626.81230	0.04408
624.88365	0.04366
622.95500	0.04335
621.02634	0.04306
619.09769	0.04230
617.16904	0.04168
615.24038	0.04199
613.31173	0.04231
611.38308	0.04118
609.45442	0.03980
607.52577	0.03984
605.59712	0.04127
603.66846	0.04390
601.73981	0.04590
599.81116	0.04587
597.88250	0.04497
595.95385	0.04445
594.02520	0.04432
592.09654	0.04446
590.16789	0.04482
588.23924	0.04512
586.31059	0.04504
584.38193	0.04478
582.45328	0.04462
580.52463	0.04456
578.59597	0.04466
576.66732	0.04498
574.73867	0.04529
572.81001	0.04540
570.88136	0.04550
568.95271	0.04566
567.02405	0.04584
565.09540	0.04598
563.16675	0.04598
561.23809	0.04582
559.30944	0.04562
557.38079	0.04564
555.45213	0.04576
553.52348	0.04559
551.59483	0.04530
549.66617	0.04526
547.73752	0.04525
545.80887	0.04502
543.88021	0.04475
541.95156	0.04456
540.02291	0.04447
538.09425	0.04457
536.16560	0.04469
534.23695	0.04446
532.30829	0.04410
530.37964	0.04413
528.45099	0.04437
526.52233	0.04433
524.59368	0.04404
522.66503	0.04376
520.73637	0.04348
518.80772	0.04310
516.87907	0.04267
514.95042	0.04232
513.02176	0.04205
511.09311	0.04183
509.16446	0.04155
507.23580	0.04104
505.30715	0.04039
503.37850	0.04004
501.44984	0.04009
499.52119	0.04010
497.59254	0.03978
495.66388	0.03945
493.73523	0.03926
491.80658	0.03901
489.87792	0.03873
487.94927	0.03856
486.02062	0.03833
484.09196	0.03798
482.16331	0.03768
480.23466	0.03748
478.30600	0.03726
476.37735	0.03695
474.44870	0.03656
472.52004	0.03618
470.59139	0.03585
468.66274	0.03562
466.73408	0.03549
464.80543	0.03531
462.87678	0.03500
460.94812	0.03461
459.01947	0.03410
457.09082	0.03352
455.16216	0.03306
453.23351	0.03276
451.30486	0.03253
449.37620	0.03221
447.44755	0.03187
445.51890	0.03164
443.59025	0.03153
441.66159	0.03141
439.73294	0.03126
437.80429	0.03104
435.87563	0.03081
433.94698	0.03058
432.01833	0.03033
430.08967	0.03013
428.16102	0.03007
426.23237	0.03000
424.30371	0.02978
422.37506	0.02949
420.44641	0.02930
418.51775	0.02927
416.58910	0.02927
414.66045	0.02918
412.73179	0.02892
410.80314	0.02858
408.87449	0.02828
406.94583	0.02802
405.01718	0.02777
403.08853	0.02751
401.15987	0.02724
399.23122	0.02696
