3996.16951	0.04303
3994.24086	0.04340
3992.31221	0.04363
3990.38355	0.04338
3988.45490	0.04305
3986.52625	0.04281
3984.59759	0.04257
3982.66894	0.04267
3980.74029	0.04328
3978.81163	0.04360
3976.88298	0.04314
3974.95433	0.04245
3973.02567	0.04221
3971.09702	0.04246
3969.16837	0.04290
3967.23972	0.04322
3965.31106	0.04314
3963.38241	0.04267
3961.45376	0.04244
3959.52510	0.04259
3957.59645	0.04271
3955.66780	0.04283
3953.73914	0.04291
3951.81049	0.04283
3949.88184	0.04253
3947.95318	0.04201
3946.02453	0.04171
3944.09588	0.04164
3942.16722	0.04177
3940.23857	0.04192
3938.30992	0.04160
3936.38126	0.04099
3934.45261	0.04051
3932.52396	0.04063
3930.59530	0.04132
3928.66665	0.04157
3926.73800	0.04101
3924.80934	0.04032
3922.88069	0.04039
3920.95204	0.04081
3919.02338	0.04083
3917.09473	0.04068
3915.16608	0.04107
3913.23742	0.04141
3911.30877	0.04147
3909.38012	0.04172
3907.45146	0.04196
3905.52281	0.04160
3903.59416	0.04120
3901.66550	0.04132
3899.73685	0.04140
3897.80820	0.04153
3895.87955	0.04148
3893.95089	0.04081
3892.02224	0.04002
3890.09359	0.04042
3888.16493	0.04081
3886.23628	0.04010
3884.30763	0.04024
3882.37897	0.04042
3880.45032	0.04001
3878.52167	0.04021
3876.59301	0.04015
3874.66436	0.03986
3872.73571	0.04007
3870.80705	0.03982
3868.87840	0.04030
3866.94975	0.04082
3865.02109	0.04037
3863.09244	0.04045
3861.16379	0.04043
3859.23513	0.04040
3857.30648	0.04053
3855.37783	0.03952
3853.44917	0.03909
3851.52052	0.04044
3849.59187	0.04079
3847.66321	0.04006
3845.73456	0.03904
3843.80591	0.03806
3841.87725	0.03806
3839.94860	0.03838
3838.01995	0.03835
3836.09129	0.03864
3834.16264	0.03841
3832.23399	0.03831
3830.30534	0.03902
3828.37668	0.03932
3826.44803	0.03894
3824.51938	0.03846
3822.59072	0.03737
3820.66207	0.03760
3818.73342	0.03868
3816.80476	0.03770
3814.87611	0.03747
3812.94746	0.03790
3811.01880	0.03761
3809.09015	0.03728
3807.16150	0.03707
3805.23284	0.03785
3803.30419	0.03719
3801.37554	0.03591
3799.44688	0.03678
3797.51823	0.03683
3795.58958	0.03610
3793.66092	0.03602
3791.73227	0.03636
3789.80362	0.03668
3787.87496	0.03650
3785.94631	0.03615
3784.01766	0.03610
3782.08900	0.03629
3780.16035	0.03655
3778.23170	0.03695
3776.30304	0.03674
3774.37439	0.03637
3772.44574	0.03655
3770.51708	0.03636
3768.58843	0.03613
3766.65978	0.03597
3764.73112	0.03601
3762.80247	0.03607
3760.87382	0.03554
3758.94517	0.03555
3757.01651	0.03637
3755.08786	0.03701
3753.15921	0.03680
3751.23055	0.03706
3749.30190	0.03790
3747.37325	0.03830
3745.44459	0.03628
3743.51594	0.03578
3741.58729	0.03691
3739.65863	0.03638
3737.72998	0.03549
3735.80133	0.03539
3733.87267	0.03562
3731.94402	0.03494
3730.01537	0.03469
3728.08671	0.03467
3726.15806	0.03477
3724.22941	0.03495
3722.30075	0.03480
3720.37210	0.03464
3718.44345	0.03436
3716.51479	0.03428
3714.58614	0.03403
3712.65749	0.03329
3710.72883	0.03347
3708.80018	0.03434
3706.87153	0.03464
3704.94287	0.03409
3703.01422	0.03332
3701.08557	0.03326
3699.15691	0.03363
3697.22826	0.03373
3695.29961	0.03390
3693.37095	0.03401
3691.44230	0.03374
3689.51365	0.03266
3687.58500	0.03222
3685.65634	0.03303
3683.72769	0.03363
3681.79904	0.03431
3679.87038	0.03479
3677.94173	0.03440
3676.01308	0.03360
3674.08442	0.03466
3672.15577	0.03474
3670.22712	0.03358
3668.29846	0.03402
3666.36981	0.03414
3664.44116	0.03337
3662.51250	0.03320
3660.58385	0.03419
3658.65520	0.03510
3656.72654	0.03482
3654.79789	0.03457
3652.86924	0.03444
3650.94058	0.03429
3649.01193	0.03514
3647.08328	0.03653
3645.15462	0.03728
3643.22597	0.03734
3641.29732	0.03736
3639.36866	0.03762
3637.44001	0.03786
3635.51136	0.03790
3633.58270	0.03802
3631.65405	0.03805
3629.72540	0.03761
3627.79674	0.03836
3625.86809	0.03905
3623.93944	0.03872
3622.01079	0.03886
3620.08213	0.03940
3618.15348	0.04027
3616.22483	0.04106
3614.29617	0.04117
3612.36752	0.04132
3610.43887	0.04156
3608.51021	0.04163
3606.58156	0.04202
3604.65291	0.04244
3602.72425	0.04283
3600.79560	0.04349
3598.86695	0.04432
3596.93829	0.04451
3595.00964	0.04416
3593.08099	0.04442
3591.15233	0.04523
3589.22368	0.04544
3587.29503	0.04533
3585.36637	0.04580
3583.43772	0.04683
3581.50907	0.04779
3579.58041	0.04836
3577.65176	0.04895
3575.72311	0.04960
3573.79445	0.04992
3571.86580	0.05016
3569.93715	0.05056
3568.00849	0.05082
3566.07984	0.05109
3564.15119	0.05134
3562.22253	0.05156
3560.29388	0.05216
3558.36523	0.05315
3556.43657	0.05389
3554.50792	0.05417
3552.57927	0.05436
3550.65062	0.05478
3548.72196	0.05532
3546.79331	0.05588
3544.86466	0.05668
3542.93600	0.05760
3541.00735	0.05799
3539.07870	0.05779
3537.15004	0.05773
3535.22139	0.05811
3533.29274	0.05858
3531.36408	0.05897
3529.43543	0.05949
3527.50678	0.06037
3525.57812	0.06146
3523.64947	0.06217
3521.72082	0.06215
3519.79216	0.06186
3517.86351	0.06218
3515.93486	0.06328
3514.00620	0.06441
3512.07755	0.06498
3510.14890	0.06515
3508.22024	0.06546
3506.29159	0.06599
3504.36294	0.06632
3502.43428	0.06633
3500.50563	0.06631
3498.57698	0.06662
3496.64832	0.06719
3494.71967	0.06773
3492.79102	0.06830
3490.86236	0.06881
3488.93371	0.06907
3487.00506	0.06932
3485.07641	0.06983
3483.14775	0.07031
3481.21910	0.07036
3479.29045	0.07022
3477.36179	0.07040
3475.43314	0.07104
3473.50449	0.07171
3471.57583	0.07205
3469.64718	0.07222
3467.71853	0.07270
3465.78987	0.07368
3463.86122	0.07440
3461.93257	0.07433
3460.00391	0.07425
3458.07526	0.07475
3456.14661	0.07525
3454.21795	0.07525
3452.28930	0.07524
3450.36065	0.07568
3448.43199	0.07624
3446.50334	0.07645
3444.57469	0.07629
3442.64603	0.07618
3440.71738	0.07647
3438.78873	0.07704
3436.86007	0.07783
3434.93142	0.07864
3433.00277	0.07921
3431.07411	0.07965
3429.14546	0.07990
3427.21681	0.07969
3425.28815	0.07941
3423.35950	0.07972
3421.43085	0.08048
3419.50219	0.08115
3417.57354	0.08162
3415.64489	0.08210
3413.71624	0.08252
3411.78758	0.08254
3409.85893	0.08239
3407.93028	0.08253
3406.00162	0.08288
3404.07297	0.08321
3402.14432	0.08356
3400.21566	0.08390
3398.28701	0.08421
3396.35836	0.08482
3394.42970	0.08561
3392.50105	0.08589
3390.57240	0.08564
3388.64374	0.08570
3386.71509	0.08624
3384.78644	0.08652
3382.85778	0.08634
3380.92913	0.08619
3379.00048	0.08644
3377.07182	0.08700
3375.14317	0.08759
3373.21452	0.08812
3371.28586	0.08874
3369.35721	0.08949
3367.42856	0.09024
3365.49990	0.09082
3363.57125	0.09126
3361.64260	0.09175
3359.71394	0.09227
3357.78529	0.09286
3355.85664	0.09369
3353.92798	0.09469
3351.99933	0.09563
3350.07068	0.09650
3348.14202	0.09735
3346.21337	0.09804
3344.28472	0.09842
3342.35607	0.09890
3340.42741	0.09961
3338.49876	0.10007
3336.57011	0.10044
3334.64145	0.10117
3332.71280	0.10212
3330.78415	0.10294
3328.85549	0.10359
3326.92684	0.10421
3324.99819	0.10487
3323.06953	0.10535
3321.14088	0.10556
3319.21223	0.10572
3317.28357	0.10595
3315.35492	0.10631
3313.42627	0.10685
3311.49761	0.10740
3309.56896	0.10777
3307.64031	0.10789
3305.71165	0.10779
3303.78300	0.10771
3301.85435	0.10785
3299.92569	0.10814
3297.99704	0.10846
3296.06839	0.10848
3294.13973	0.10794
3292.21108	0.10728
3290.28243	0.10704
3288.35377	0.10729
3286.42512	0.10770
3284.49647	0.10799
3282.56781	0.10817
3280.63916	0.10822
3278.71051	0.10791
3276.78186	0.10737
3274.85320	0.10702
3272.92455	0.10675
3270.99590	0.10631
3269.06724	0.10593
3267.13859	0.10582
3265.20994	0.10587
3263.28128	0.10561
3261.35263	0.10490
3259.42398	0.10421
3257.49532	0.10374
3255.56667	0.10323
3253.63802	0.10273
3251.70936	0.10240
3249.78071	0.10211
3247.85206	0.10180
3245.92340	0.10156
3243.99475	0.10140
3242.06610	0.10112
3240.13744	0.10070
3238.20879	0.10038
3236.28014	0.10016
3234.35148	0.09976
3232.42283	0.09903
3230.49418	0.09820
3228.56552	0.09777
3226.63687	0.09783
3224.70822	0.09796
3222.77956	0.09786
3220.85091	0.09755
3218.92226	0.09722
3216.99360	0.09705
3215.06495	0.09689
3213.13630	0.09656
3211.20764	0.09604
3209.27899	0.09553
3207.35034	0.09530
3205.42169	0.09530
3203.49303	0.09533
3201.56438	0.09511
3199.63573	0.09441
3197.70707	0.09340
3195.77842	0.09249
3193.84977	0.09196
3191.92111	0.09201
3189.99246	0.09246
3188.06381	0.09262
3186.13515	0.09212
3184.20650	0.09123
3182.27785	0.09047
3180.34919	0.09000
3178.42054	0.08961
3176.49189	0.08915
3174.56323	0.08876
3172.63458	0.08841
3170.70593	0.08766
3168.77727	0.08660
3166.84862	0.08583
3164.91997	0.08533
3162.99131	0.08485
3161.06266	0.08445
3159.13401	0.08414
3157.20535	0.08368
3155.27670	0.08289
3153.34805	0.08211
3151.41939	0.08169
3149.49074	0.08135
3147.56209	0.08081
3145.63343	0.08020
3143.70478	0.07955
3141.77613	0.07892
3139.84748	0.07857
3137.91882	0.07842
3135.99017	0.07817
3134.06152	0.07770
3132.13286	0.07709
3130.20421	0.07656
3128.27556	0.07626
3126.34690	0.07618
3124.41825	0.07604
3122.48960	0.07561
3120.56094	0.07512
3118.63229	0.07488
3116.70364	0.07487
3114.77498	0.07492
3112.84633	0.07502
3110.91768	0.07520
3108.98902	0.07535
3107.06037	0.07552
3105.13172	0.07577
3103.20306	0.07576
3101.27441	0.07529
3099.34576	0.07487
3097.41710	0.07483
3095.48845	0.07491
3093.55980	0.07502
3091.63114	0.07529
3089.70249	0.07565
3087.77384	0.07593
3085.84518	0.07608
3083.91653	0.07621
3081.98788	0.07651
3080.05922	0.07690
3078.13057	0.07711
3076.20192	0.07701
3074.27326	0.07678
3072.34461	0.07669
3070.41596	0.07684
3068.48731	0.07698
3066.55865	0.07691
3064.63000	0.07670
3062.70135	0.07629
3060.77269	0.07565
3058.84404	0.07514
3056.91539	0.07492
3054.98673	0.07475
3053.05808	0.07455
3051.12943	0.07426
3049.20077	0.07377
3047.27212	0.07313
3045.34347	0.07242
3043.41481	0.07183
3041.48616	0.07144
3039.55751	0.07099
3037.62885	0.07035
3035.70020	0.06985
3033.77155	0.06966
3031.84289	0.06944
3029.91424	0.06897
3027.98559	0.06845
3026.05693	0.06804
3024.12828	0.06766
3022.19963	0.06718
3020.27097	0.06657
3018.34232	0.06590
3016.41367	0.06542
3014.48501	0.06526
3012.55636	0.06516
3010.62771	0.06494
3008.69905	0.06467
3006.77040	0.06447
3004.84175	0.06429
3002.91309	0.06416
3000.98444	0.06416
2999.05579	0.06426
2997.12714	0.06429
2995.19848	0.06439
2993.26983	0.06469
2991.34118	0.06512
2989.41252	0.06557
2987.48387	0.06598
2985.55522	0.06627
2983.62656	0.06650
2981.69791	0.06680
2979.76926	0.06714
2977.84060	0.06741
2975.91195	0.06762
2973.98330	0.06785
2972.05464	0.06809
2970.12599	0.06836
2968.19734	0.06876
2966.26868	0.06927
2964.34003	0.06973
2962.41138	0.06995
2960.48272	0.06999
2958.55407	0.07019
2956.62542	0.07059
2954.69676	0.07084
2952.76811	0.07080
2950.83946	0.07071
2948.91080	0.07077
2946.98215	0.07093
2945.05350	0.07106
2943.12484	0.07118
2941.19619	0.07140
2939.26754	0.07164
2937.33888	0.07167
2935.41023	0.07147
2933.48158	0.07115
2931.55293	0.07088
2929.62427	0.07082
2927.69562	0.07089
2925.76697	0.07079
2923.83831	0.07045
2921.90966	0.07018
2919.98101	0.07005
2918.05235	0.06983
2916.12370	0.06929
2914.19505	0.06844
2912.26639	0.06769
2910.33774	0.06718
2908.40909	0.06665
2906.48043	0.06608
2904.55178	0.06560
2902.62313	0.06514
2900.69447	0.06467
2898.76582	0.06436
2896.83717	0.06416
2894.90851	0.06385
2892.97986	0.06343
2891.05121	0.06312
2889.12255	0.06313
2887.19390	0.06346
2885.26525	0.06377
2883.33659	0.06377
2881.40794	0.06357
2879.47929	0.06344
2877.55063	0.06338
2875.62198	0.06333
2873.69333	0.06317
2871.76467	0.06281
2869.83602	0.06254
2867.90737	0.06236
2865.97871	0.06186
2864.05006	0.06097
2862.12141	0.06009
2860.19276	0.05954
2858.26410	0.05926
2856.33545	0.05899
2854.40680	0.05876
2852.47814	0.05866
2850.54949	0.05853
2848.62084	0.05821
2846.69218	0.05778
2844.76353	0.05744
2842.83488	0.05713
2840.90622	0.05666
2838.97757	0.05619
2837.04892	0.05589
2835.12026	0.05564
2833.19161	0.05538
2831.26296	0.05508
2829.33430	0.05470
2827.40565	0.05434
2825.47700	0.05411
2823.54834	0.05379
2821.61969	0.05330
2819.69104	0.05312
2817.76238	0.05329
2815.83373	0.05337
2813.90508	0.05321
2811.97642	0.05290
2810.04777	0.05252
2808.11912	0.05215
2806.19046	0.05197
2804.26181	0.05202
2802.33316	0.05203
2800.40450	0.05186
2798.47585	0.05167
2796.54720	0.05157
2794.61855	0.05145
2792.68989	0.05122
2790.76124	0.05090
2788.83259	0.05064
2786.90393	0.05055
2784.97528	0.05039
2783.04663	0.05004
2781.11797	0.04968
2779.18932	0.04954
2777.26067	0.04957
2775.33201	0.04951
2773.40336	0.04936
2771.47471	0.04918
2769.54605	0.04895
2767.61740	0.04872
2765.68875	0.04862
2763.76009	0.04851
2761.83144	0.04832
2759.90279	0.04820
2757.97413	0.04815
2756.04548	0.04798
2754.11683	0.04774
2752.18817	0.04763
2750.25952	0.04766
2748.33087	0.04761
2746.40221	0.04745
2744.47356	0.04722
2742.54491	0.04698
2740.61625	0.04670
2738.68760	0.04648
2736.75895	0.04648
2734.83029	0.04654
2732.90164	0.04642
2730.97299	0.04619
2729.04433	0.04598
2727.11568	0.04583
2725.18703	0.04578
2723.25838	0.04580
2721.32972	0.04584
2719.40107	0.04575
2717.47242	0.04541
2715.54376	0.04503
2713.61511	0.04486
2711.68646	0.04476
2709.75780	0.04470
2707.82915	0.04469
2705.90050	0.04457
2703.97184	0.04429
2702.04319	0.04411
2700.11454	0.04420
2698.18588	0.04440
2696.25723	0.04436
2694.32858	0.04388
2692.39992	0.04336
2690.47127	0.04325
2688.54262	0.04343
2686.61396	0.04360
2684.68531	0.04358
2682.75666	0.04346
2680.82800	0.04339
2678.89935	0.04325
2676.97070	0.04307
2675.04204	0.04292
2673.11339	0.04278
2671.18474	0.04267
2669.25608	0.04252
2667.32743	0.04235
2665.39878	0.04231
2663.47012	0.04240
2661.54147	0.04233
2659.61282	0.04193
2657.68417	0.04143
2655.75551	0.04110
2653.82686	0.04095
2651.89821	0.04087
2649.96955	0.04081
2648.04090	0.04067
2646.11225	0.04036
2644.18359	0.03998
2642.25494	0.03963
2640.32629	0.03935
2638.39763	0.03917
2636.46898	0.03903
2634.54033	0.03887
2632.61167	0.03868
2630.68302	0.03854
2628.75437	0.03850
2626.82571	0.03844
2624.89706	0.03820
2622.96841	0.03781
2621.03975	0.03743
2619.11110	0.03715
2617.18245	0.03707
2615.25379	0.03722
2613.32514	0.03737
2611.39649	0.03725
2609.46783	0.03677
2607.53918	0.03606
2605.61053	0.03552
2603.68187	0.03536
2601.75322	0.03542
2599.82457	0.03553
2597.89591	0.03556
2595.96726	0.03541
2594.03861	0.03533
2592.10995	0.03542
2590.18130	0.03537
2588.25265	0.03494
2586.32400	0.03433
2584.39534	0.03400
2582.46669	0.03402
2580.53804	0.03400
2578.60938	0.03389
2576.68073	0.03396
2574.75208	0.03412
2572.82342	0.03421
2570.89477	0.03414
2568.96612	0.03382
2567.03746	0.03338
2565.10881	0.03309
2563.18016	0.03306
2561.25150	0.03309
2559.32285	0.03298
2557.39420	0.03295
2555.46554	0.03318
2553.53689	0.03336
2551.60824	0.03318
2549.67958	0.03281
2547.75093	0.03251
2545.82228	0.03249
2543.89362	0.03279
2541.96497	0.03310
2540.03632	0.03294
2538.10766	0.03234
2536.17901	0.03173
2534.25036	0.03143
2532.32170	0.03152
2530.39305	0.03174
2528.46440	0.03185
2526.53574	0.03189
2524.60709	0.03183
2522.67844	0.03162
2520.74978	0.03134
2518.82113	0.03095
2516.89248	0.03062
2514.96383	0.03057
2513.03517	0.03062
2511.10652	0.03073
2509.17787	0.03095
2507.24921	0.03106
2505.32056	0.03107
2503.39191	0.03116
2501.46325	0.03116
2499.53460	0.03090
2497.60595	0.03068
2495.67729	0.03086
2493.74864	0.03119
2491.81999	0.03107
2489.89133	0.03055
2487.96268	0.03028
2486.03403	0.03047
2484.10537	0.03066
2482.17672	0.03058
2480.24807	0.03030
2478.31941	0.02983
2476.39076	0.02960
2474.46211	0.02985
2472.53345	0.03002
2470.60480	0.03000
2468.67615	0.03004
2466.74749	0.02986
2464.81884	0.02953
2462.89019	0.02952
2460.96153	0.02958
2459.03288	0.02934
2457.10423	0.02896
2455.17557	0.02861
2453.24692	0.02840
2451.31827	0.02843
2449.38962	0.02858
2447.46096	0.02861
2445.53231	0.02859
2443.60366	0.02867
2441.67500	0.02866
2439.74635	0.02850
2437.81770	0.02847
2435.88904	0.02864
2433.96039	0.02881
2432.03174	0.02887
2430.10308	0.02880
2428.17443	0.02856
2426.24578	0.02837
2424.31712	0.02857
2422.38847	0.02907
2420.45982	0.02937
2418.53116	0.02938
2416.60251	0.02940
2414.67386	0.02930
2412.74520	0.02889
2410.81655	0.02869
2408.88790	0.02902
2406.95924	0.02929
2405.03059	0.02904
2403.10194	0.02868
2401.17328	0.02867
2399.24463	0.02861
2397.31598	0.02833
2395.38732	0.02824
2393.45867	0.02866
2391.53002	0.02919
2389.60136	0.02939
2387.67271	0.02949
2385.74406	0.02964
2383.81540	0.02955
2381.88675	0.02921
2379.95810	0.02912
2378.02945	0.02948
2376.10079	0.02988
2374.17214	0.02992
2372.24349	0.02978
2370.31483	0.02980
2368.38618	0.03000
2366.45753	0.03009
2364.52887	0.02998
2362.60022	0.02987
2360.67157	0.02980
2358.74291	0.02971
2356.81426	0.02964
2354.88561	0.02962
2352.95695	0.02958
2351.02830	0.02951
2349.09965	0.02954
2347.17099	0.02968
2345.24234	0.02976
2343.31369	0.02965
2341.38503	0.02953
2339.45638	0.02961
2337.52773	0.02971
2335.59907	0.02962
2333.67042	0.02939
2331.74177	0.02917
2329.81311	0.02897
2327.88446	0.02860
2325.95581	0.02799
2324.02715	0.02757
2322.09850	0.02768
2320.16985	0.02793
2318.24119	0.02777
2316.31254	0.02719
2314.38389	0.02663
2312.45524	0.02654
2310.52658	0.02689
2308.59793	0.02716
2306.66928	0.02697
2304.74062	0.02648
2302.81197	0.02605
2300.88332	0.02571
2298.95466	0.02542
2297.02601	0.02521
2295.09736	0.02501
2293.16870	0.02476
2291.24005	0.02454
2289.31140	0.02441
2287.38274	0.02414
2285.45409	0.02354
2283.52544	0.02293
2281.59678	0.02281
2279.66813	0.02298
2277.73948	0.02300
2275.81082	0.02289
2273.88217	0.02256
2271.95352	0.02205
2270.02486	0.02190
2268.09621	0.02207
2266.16756	0.02199
2264.23890	0.02191
2262.31025	0.02229
2260.38160	0.02266
2258.45294	0.02244
2256.52429	0.02198
2254.59564	0.02175
2252.66698	0.02146
2250.73833	0.02102
2248.80968	0.02058
2246.88102	0.01976
2244.95237	0.01891
2243.02372	0.01845
2241.09507	0.01813
2239.16641	0.01807
2237.23776	0.01836
2235.30911	0.01868
2233.38045	0.01908
2231.45180	0.01981
2229.52315	0.02035
2227.59449	0.01989
2225.66584	0.01894
2223.73719	0.01869
2221.80853	0.01882
2219.87988	0.01833
2217.95123	0.01757
2216.02257	0.01728
2214.09392	0.01692
2212.16527	0.01615
2210.23661	0.01566
2208.30796	0.01607
2206.37931	0.01691
2204.45065	0.01704
2202.52200	0.01659
2200.59335	0.01636
2198.66469	0.01612
2196.73604	0.01571
2194.80739	0.01519
2192.87873	0.01456
2190.95008	0.01441
2189.02143	0.01487
2187.09277	0.01511
2185.16412	0.01463
2183.23547	0.01390
2181.30681	0.01309
2179.37816	0.01236
2177.44951	0.01251
2175.52085	0.01306
2173.59220	0.01283
2171.66355	0.01219
2169.73490	0.01186
2167.80624	0.01143
2165.87759	0.01052
2163.94894	0.00986
2162.02028	0.00988
2160.09163	0.01017
2158.16298	0.01096
2156.23432	0.01222
2154.30567	0.01282
2152.37702	0.01253
2150.44836	0.01266
2148.51971	0.01369
2146.59106	0.01476
2144.66240	0.01562
2142.73375	0.01627
2140.80510	0.01670
2138.87644	0.01722
2136.94779	0.01776
2135.01914	0.01775
2133.09048	0.01742
2131.16183	0.01765
2129.23318	0.01825
2127.30452	0.01866
2125.37587	0.01929
2123.44722	0.02000
2121.51856	0.01992
2119.58991	0.01944
2117.66126	0.01929
2115.73260	0.01917
2113.80395	0.01881
2111.87530	0.01833
2109.94664	0.01794
2108.01799	0.01789
2106.08934	0.01794
2104.16069	0.01776
2102.23203	0.01737
2100.30338	0.01680
2098.37473	0.01637
2096.44607	0.01692
2094.51742	0.01773
2092.58877	0.01773
2090.66011	0.01738
2088.73146	0.01724
2086.80281	0.01699
2084.87415	0.01686
2082.94550	0.01703
2081.01685	0.01692
2079.08819	0.01605
2077.15954	0.01500
2075.23089	0.01465
2073.30223	0.01488
2071.37358	0.01479
2069.44493	0.01428
2067.51627	0.01406
2065.58762	0.01416
2063.65897	0.01419
2061.73031	0.01440
2059.80166	0.01507
2057.87301	0.01579
2055.94435	0.01587
2054.01570	0.01532
2052.08705	0.01454
2050.15839	0.01331
2048.22974	0.01172
2046.30109	0.01095
2044.37243	0.01116
2042.44378	0.01097
2040.51513	0.01013
2038.58647	0.00957
2036.65782	0.00983
2034.72917	0.01051
2032.80052	0.01078
2030.87186	0.01060
2028.94321	0.01043
2027.01456	0.01041
2025.08590	0.01029
2023.15725	0.00956
2021.22860	0.00850
2019.29994	0.00779
2017.37129	0.00765
2015.44264	0.00838
2013.51398	0.00980
2011.58533	0.01069
2009.65668	0.01019
2007.72802	0.00924
2005.79937	0.00924
2003.87072	0.01010
2001.94206	0.01117
2000.01341	0.01225
1998.08476	0.01298
1996.15610	0.01316
1994.22745	0.01295
1992.29880	0.01257
1990.37014	0.01211
1988.44149	0.01168
1986.51284	0.01143
1984.58418	0.01124
1982.65553	0.01070
1980.72688	0.00993
1978.79822	0.00957
1976.86957	0.00958
1974.94092	0.00922
1973.01226	0.00844
1971.08361	0.00819
1969.15496	0.00896
1967.22631	0.01003
1965.29765	0.01092
1963.36900	0.01160
1961.44035	0.01203
1959.51169	0.01237
1957.58304	0.01283
1955.65439	0.01327
1953.72573	0.01331
1951.79708	0.01287
1949.86843	0.01261
1947.93977	0.01306
1946.01112	0.01372
1944.08247	0.01400
1942.15381	0.01428
1940.22516	0.01481
1938.29651	0.01498
1936.36785	0.01465
1934.43920	0.01430
1932.51055	0.01413
1930.58189	0.01396
1928.65324	0.01388
1926.72459	0.01398
1924.79593	0.01419
1922.86728	0.01475
1920.93863	0.01542
1919.00997	0.01540
1917.08132	0.01514
1915.15267	0.01524
1913.22401	0.01542
1911.29536	0.01551
1909.36671	0.01533
1907.43805	0.01507
1905.50940	0.01503
1903.58075	0.01513
1901.65209	0.01526
1899.72344	0.01546
1897.79479	0.01561
1895.86614	0.01554
1893.93748	0.01532
1892.00883	0.01524
1890.08018	0.01553
1888.15152	0.01593
1886.22287	0.01592
1884.29422	0.01569
1882.36556	0.01552
1880.43691	0.01544
1878.50826	0.01556
1876.57960	0.01559
1874.65095	0.01544
1872.72230	0.01541
1870.79364	0.01533
1868.86499	0.01513
1866.93634	0.01519
1865.00768	0.01528
1863.07903	0.01518
1861.15038	0.01516
1859.22172	0.01532
1857.29307	0.01550
1855.36442	0.01561
1853.43576	0.01551
1851.50711	0.01511
1849.57846	0.01469
1847.64980	0.01467
1845.72115	0.01479
1843.79250	0.01503
1841.86384	0.01549
1839.93519	0.01548
1838.00654	0.01524
1836.07788	0.01511
1834.14923	0.01510
1832.22058	0.01508
1830.29192	0.01498
1828.36327	0.01509
1826.43462	0.01506
1824.50597	0.01482
1822.57731	0.01465
1820.64866	0.01450
1818.72001	0.01462
1816.79135	0.01505
1814.86270	0.01549
1812.93405	0.01558
1811.00539	0.01535
1809.07674	0.01507
1807.14809	0.01487
1805.21943	0.01481
1803.29078	0.01478
1801.36213	0.01468
1799.43347	0.01466
1797.50482	0.01470
1795.57617	0.01481
1793.64751	0.01476
1791.71886	0.01471
1789.79021	0.01475
1787.86155	0.01453
1785.93290	0.01429
1784.00425	0.01430
1782.07559	0.01433
1780.14694	0.01417
1778.21829	0.01413
1776.28963	0.01418
1774.36098	0.01408
1772.43233	0.01401
1770.50367	0.01429
1768.57502	0.01422
1766.64637	0.01423
1764.71771	0.01441
1762.78906	0.01417
1760.86041	0.01404
1758.93176	0.01411
1757.00310	0.01416
1755.07445	0.01451
1753.14580	0.01461
1751.21714	0.01448
1749.28849	0.01473
1747.35984	0.01492
1745.43118	0.01507
1743.50253	0.01538
1741.57388	0.01567
1739.64522	0.01590
1737.71657	0.01644
1735.78792	0.01650
1733.85926	0.01649
1731.93061	0.01726
1730.00196	0.01756
1728.07330	0.01760
1726.14465	0.01791
1724.21600	0.01828
1722.28734	0.01879
1720.35869	0.01912
1718.43004	0.01900
1716.50138	0.01945
1714.57273	0.02036
1712.64408	0.02113
1710.71542	0.02201
1708.78677	0.02311
1706.85812	0.02441
1704.92946	0.02624
1703.00081	0.02836
1701.07216	0.03001
1699.14350	0.03269
1697.21485	0.03540
1695.28620	0.03766
1693.35754	0.04064
1691.42889	0.04308
1689.50024	0.04559
1687.57159	0.04852
1685.64293	0.05089
1683.71428	0.05371
1681.78563	0.05731
1679.85697	0.06063
1677.92832	0.06418
1675.99967	0.06779
1674.07101	0.07188
1672.14236	0.07610
1670.21371	0.07999
1668.28505	0.08418
1666.35640	0.08842
1664.42775	0.09215
1662.49909	0.09578
1660.57044	0.09953
1658.64179	0.10300
1656.71313	0.10615
1654.78448	0.10822
1652.85583	0.11014
1650.92717	0.11320
1648.99852	0.11517
1647.06987	0.11613
1645.14121	0.11772
1643.21256	0.11951
1641.28391	0.12081
1639.35525	0.12205
1637.42660	0.12303
1635.49795	0.12390
1633.56929	0.12520
1631.64064	0.12588
1629.71199	0.12569
1627.78333	0.12498
1625.85468	0.12365
1623.92603	0.12145
1621.99738	0.11888
1620.06872	0.11598
1618.14007	0.11219
1616.21142	0.10839
1614.28276	0.10511
1612.35411	0.10135
1610.42546	0.09743
1608.49680	0.09370
1606.56815	0.09011
1604.63950	0.08664
1602.71084	0.08340
1600.78219	0.08052
1598.85354	0.07792
1596.92488	0.07547
1594.99623	0.07321
1593.06758	0.07135
1591.13892	0.06995
1589.21027	0.06893
1587.28162	0.06815
1585.35296	0.06758
1583.42431	0.06727
1581.49566	0.06738
1579.56700	0.06794
1577.63835	0.06837
1575.70970	0.06931
1573.78104	0.07139
1571.85239	0.07319
1569.92374	0.07487
1567.99508	0.07725
1566.06643	0.07985
1564.13778	0.08258
1562.20912	0.08523
1560.28047	0.08713
1558.35182	0.08967
1556.42316	0.09276
1554.49451	0.09481
1552.56586	0.09651
1550.63721	0.09805
1548.70855	0.09949
1546.77990	0.10072
1544.85125	0.10160
1542.92259	0.10220
1540.99394	0.10228
1539.06529	0.10252
1537.13663	0.10317
1535.20798	0.10293
1533.27933	0.10230
1531.35067	0.10210
1529.42202	0.10170
1527.49337	0.10099
1525.56471	0.10028
1523.63606	0.09939
1521.70741	0.09813
1519.77875	0.09734
1517.85010	0.09643
1515.92145	0.09518
1513.99279	0.09378
1512.06414	0.09205
1510.13549	0.09016
1508.20683	0.08753
1506.27818	0.08466
1504.34953	0.08257
1502.42087	0.08025
1500.49222	0.07749
1498.56357	0.07472
1496.63491	0.07199
1494.70626	0.06961
1492.77761	0.06722
1490.84895	0.06462
1488.92030	0.06243
1486.99165	0.06068
1485.06299	0.05928
1483.13434	0.05819
1481.20569	0.05749
1479.27704	0.05726
1477.34838	0.05736
1475.41973	0.05781
1473.49108	0.05844
1471.56242	0.05952
1469.63377	0.06099
1467.70512	0.06235
1465.77646	0.06360
1463.84781	0.06512
1461.91916	0.06686
1459.99050	0.06843
1458.06185	0.06964
1456.13320	0.07117
1454.20454	0.07292
1452.27589	0.07381
1450.34724	0.07412
1448.41858	0.07403
1446.48993	0.07378
1444.56128	0.07338
1442.63262	0.07278
1440.70397	0.07216
1438.77532	0.07122
1436.84666	0.06991
1434.91801	0.06876
1432.98936	0.06739
1431.06070	0.06584
1429.13205	0.06466
1427.20340	0.06394
1425.27474	0.06345
1423.34609	0.06320
1421.41744	0.06293
1419.48878	0.06249
1417.56013	0.06252
1415.63148	0.06267
1413.70283	0.06270
1411.77417	0.06281
1409.84552	0.06314
1407.91687	0.06366
1405.98821	0.06413
1404.05956	0.06450
1402.13091	0.06471
1400.20225	0.06462
1398.27360	0.06452
1396.34495	0.06440
1394.41629	0.06415
1392.48764	0.06406
1390.55899	0.06394
1388.63033	0.06364
1386.70168	0.06340
1384.77303	0.06324
1382.84437	0.06290
1380.91572	0.06257
1378.98707	0.06231
1377.05841	0.06198
1375.12976	0.06143
1373.20111	0.06076
1371.27245	0.05999
1369.34380	0.05898
1367.41515	0.05793
1365.48649	0.05690
1363.55784	0.05585
1361.62919	0.05497
1359.70053	0.05434
1357.77188	0.05390
1355.84323	0.05374
1353.91457	0.05389
1351.98592	0.05423
1350.05727	0.05473
1348.12861	0.05546
1346.19996	0.05633
1344.27131	0.05721
1342.34266	0.05806
1340.41400	0.05882
1338.48535	0.05939
1336.55670	0.05971
1334.62804	0.05972
1332.69939	0.05938
1330.77074	0.05868
1328.84208	0.05780
1326.91343	0.05698
1324.98478	0.05634
1323.05612	0.05585
1321.12747	0.05548
1319.19882	0.05524
1317.27016	0.05511
1315.34151	0.05494
1313.41286	0.05458
1311.48420	0.05411
1309.55555	0.05361
1307.62690	0.05314
1305.69824	0.05276
1303.76959	0.05251
1301.84094	0.05229
1299.91228	0.05201
1297.98363	0.05178
1296.05498	0.05170
1294.12632	0.05181
1292.19767	0.05213
1290.26902	0.05260
1288.34036	0.05314
1286.41171	0.05372
1284.48306	0.05430
1282.55440	0.05483
1280.62575	0.05522
1278.69710	0.05539
1276.76845	0.05540
1274.83979	0.05535
1272.91114	0.05536
1270.98249	0.05551
1269.05383	0.05575
1267.12518	0.05603
1265.19653	0.05637
1263.26787	0.05681
1261.33922	0.05734
1259.41057	0.05792
1257.48191	0.05856
1255.55326	0.05936
1253.62461	0.06031
1251.69595	0.06131
1249.76730	0.06231
1247.83865	0.06338
1245.90999	0.06456
1243.98134	0.06574
1242.05269	0.06681
1240.12403	0.06771
1238.19538	0.06839
1236.26673	0.06886
1234.33807	0.06916
1232.40942	0.06915
1230.48077	0.06872
1228.55211	0.06793
1226.62346	0.06692
1224.69481	0.06570
1222.76615	0.06430
1220.83750	0.06286
1218.90885	0.06158
1216.98019	0.06056
1215.05154	0.05982
1213.12289	0.05932
1211.19423	0.05909
1209.26558	0.05922
1207.33693	0.05958
1205.40828	0.05993
1203.47962	0.06006
1201.55097	0.05996
1199.62232	0.05968
1197.69366	0.05901
1195.76501	0.05811
1193.83636	0.05711
1191.90770	0.05606
1189.97905	0.05498
1188.05040	0.05398
1186.12174	0.05317
1184.19309	0.05243
1182.26444	0.05175
1180.33578	0.05123
1178.40713	0.05087
1176.47848	0.05064
1174.54982	0.05048
1172.62117	0.05037
1170.69252	0.05031
1168.76386	0.05022
1166.83521	0.05013
1164.90656	0.05015
1162.97790	0.05023
1161.04925	0.05017
1159.12060	0.04984
1157.19194	0.04933
1155.26329	0.04874
1153.33464	0.04802
1151.40598	0.04716
1149.47733	0.04633
1147.54868	0.04560
1145.62002	0.04488
1143.69137	0.04417
1141.76272	0.04350
1139.83406	0.04291
1137.90541	0.04238
1135.97676	0.04197
1134.04811	0.04175
1132.11945	0.04163
1130.19080	0.04145
1128.26215	0.04129
1126.33349	0.04120
1124.40484	0.04109
1122.47619	0.04090
1120.54753	0.04061
1118.61888	0.04033
1116.69023	0.04020
1114.76157	0.04020
1112.83292	0.04019
1110.90427	0.04028
1108.97561	0.04056
1107.04696	0.04083
1105.11831	0.04099
1103.18965	0.04119
1101.26100	0.04153
1099.33235	0.04196
1097.40369	0.04243
1095.47504	0.04281
1093.54639	0.04316
1091.61773	0.04375
1089.68908	0.04462
1087.76043	0.04562
1085.83177	0.04669
1083.90312	0.04774
1081.97447	0.04855
1080.04581	0.04906
1078.11716	0.04933
1076.18851	0.04922
1074.25985	0.04882
1072.33120	0.04841
1070.40255	0.04809
1068.47390	0.04793
1066.54524	0.04793
1064.61659	0.04800
1062.68794	0.04804
1060.75928	0.04797
1058.83063	0.04772
1056.90198	0.04734
1054.97332	0.04698
1053.04467	0.04666
1051.11602	0.04633
1049.18736	0.04597
1047.25871	0.04566
1045.33006	0.04544
1043.40140	0.04532
1041.47275	0.04528
1039.54410	0.04532
1037.61544	0.04547
1035.68679	0.04575
1033.75814	0.04612
1031.82948	0.04637
1029.90083	0.04628
1027.97218	0.04585
1026.04352	0.04519
1024.11487	0.04444
1022.18622	0.04369
1020.25756	0.04300
1018.32891	0.04245
1016.40026	0.04204
1014.47160	0.04161
1012.54295	0.04103
1010.61430	0.04043
1008.68564	0.03985
1006.75699	0.03926
1004.82834	0.03870
1002.89968	0.03824
1000.97103	0.03783
999.04238	0.03739
997.11373	0.03691
995.18507	0.03643
993.25642	0.03599
991.32777	0.03561
989.39911	0.03528
987.47046	0.03502
985.54181	0.03480
983.61315	0.03461
981.68450	0.03442
979.75585	0.03435
977.82719	0.03445
975.89854	0.03456
973.96989	0.03455
972.04123	0.03440
970.11258	0.03413
968.18393	0.03380
966.25527	0.03347
964.32662	0.03312
962.39797	0.03278
960.46931	0.03265
958.54066	0.03264
956.61201	0.03245
954.68335	0.03211
952.75470	0.03183
950.82605	0.03170
948.89739	0.03166
946.96874	0.03163
945.04009	0.03156
943.11143	0.03153
941.18278	0.03163
939.25413	0.03176
937.32547	0.03176
935.39682	0.03162
933.46817	0.03156
931.53952	0.03164
929.61086	0.03170
927.68221	0.03165
925.75356	0.03158
923.82490	0.03156
921.89625	0.03152
919.96760	0.03135
918.03894	0.03116
916.11029	0.03105
914.18164	0.03090
912.25298	0.03068
910.32433	0.03047
908.39568	0.03036
906.46702	0.03035
904.53837	0.03025
902.60972	0.02997
900.68106	0.02966
898.75241	0.02952
896.82376	0.02954
894.89510	0.02951
892.96645	0.02942
891.03780	0.02944
889.10914	0.02949
887.18049	0.02931
885.25184	0.02903
883.32318	0.02895
881.39453	0.02909
879.46588	0.02924
877.53722	0.02927
875.60857	0.02929
873.67992	0.02927
871.75126	0.02913
869.82261	0.02900
867.89396	0.02902
865.96530	0.02901
864.03665	0.02886
862.10800	0.02877
860.17935	0.02878
858.25069	0.02875
856.32204	0.02874
854.39339	0.02882
852.46473	0.02890
850.53608	0.02895
848.60743	0.02895
846.67877	0.02895
844.75012	0.02904
842.82147	0.02904
840.89281	0.02879
838.96416	0.02851
837.03551	0.02840
835.10685	0.02839
833.17820	0.02835
831.24955	0.02830
829.32089	0.02837
827.39224	0.02856
825.46359	0.02873
823.53493	0.02889
821.60628	0.02917
819.67763	0.02955
817.74897	0.02980
815.82032	0.02988
813.89167	0.02990
811.96301	0.02991
810.03436	0.02999
808.10571	0.03018
806.17705	0.03038
804.24840	0.03050
802.31975	0.03057
800.39109	0.03060
798.46244	0.03063
796.53379	0.03078
794.60513	0.03105
792.67648	0.03137
790.74783	0.03170
788.81918	0.03197
786.89052	0.03217
784.96187	0.03234
783.03322	0.03247
781.10456	0.03255
779.17591	0.03259
777.24726	0.03260
775.31860	0.03278
773.38995	0.03324
771.46130	0.03375
769.53264	0.03401
767.60399	0.03407
765.67534	0.03413
763.74668	0.03432
761.81803	0.03452
759.88938	0.03469
757.96072	0.03494
756.03207	0.03534
754.10342	0.03579
752.17476	0.03610
750.24611	0.03623
748.31746	0.03631
746.38880	0.03652
744.46015	0.03696
742.53150	0.03740
740.60284	0.03757
738.67419	0.03756
736.74554	0.03771
734.81688	0.03798
732.88823	0.03828
730.95958	0.03869
729.03092	0.03910
727.10227	0.03927
725.17362	0.03937
723.24497	0.03956
721.31631	0.03984
719.38766	0.04014
717.45901	0.04057
715.53035	0.04098
713.60170	0.04117
711.67305	0.04124
709.74439	0.04140
707.81574	0.04168
705.88709	0.04204
703.95843	0.04240
702.02978	0.04265
700.10113	0.04281
698.17247	0.04301
696.24382	0.04327
694.31517	0.04346
692.38651	0.04351
690.45786	0.04354
688.52921	0.04371
686.60055	0.04395
684.67190	0.04411
682.74325	0.04424
680.81459	0.04447
678.88594	0.04477
676.95729	0.04506
675.02863	0.04528
673.09998	0.04544
671.17133	0.04558
669.24267	0.04578
667.31402	0.04601
665.38537	0.04620
663.45671	0.04640
661.52806	0.04658
659.59941	0.04676
657.67075	0.04697
655.74210	0.04717
653.81345	0.04726
651.88480	0.04736
649.95614	0.04755
648.02749	0.04769
646.09884	0.04770
644.17018	0.04764
642.24153	0.04763
640.31288	0.04776
638.38422	0.04795
636.45557	0.04813
634.52692	0.04833
632.59826	0.04837
630.66961	0.04850
628.74096	0.04946
626.81230	0.04713
624.88365	0.04424
622.95500	0.04318
621.02634	0.04400
619.09769	0.04480
617.16904	0.04614
615.24038	0.04893
613.31173	0.05017
611.38308	0.04791
609.45442	0.04606
607.52577	0.04679
605.59712	0.04749
603.66846	0.04811
601.73981	0.04912
599.81116	0.04942
597.88250	0.04923
595.95385	0.04923
594.02520	0.04945
592.09654	0.04978
590.16789	0.04996
588.23924	0.04970
586.31059	0.04932
584.38193	0.04932
582.45328	0.04959
580.52463	0.04976
578.59597	0.04969
576.66732	0.04946
574.73867	0.04929
572.81001	0.04935
570.88136	0.04947
568.95271	0.04961
567.02405	0.04982
565.09540	0.05004
563.16675	0.05029
561.23809	0.05059
559.30944	0.05064
557.38079	0.05045
555.45213	0.05043
553.52348	0.05064
551.59483	0.05071
549.66617	0.05051
547.73752	0.05041
545.80887	0.05061
543.88021	0.05070
541.95156	0.05044
540.02291	0.05023
538.09425	0.05021
536.16560	0.05015
534.23695	0.05014
532.30829	0.05030
530.37964	0.05042
528.45099	0.05043
526.52233	0.05031
524.59368	0.05004
522.66503	0.04966
520.73637	0.04933
518.80772	0.04917
516.87907	0.04903
514.95042	0.04893
513.02176	0.04889
511.09311	0.04879
509.16446	0.04864
507.23580	0.04842
505.30715	0.04809
503.37850	0.04778
501.44984	0.04762
499.52119	0.04754
497.59254	0.04743
495.66388	0.04726
493.73523	0.04706
491.80658	0.04688
489.87792	0.04670
487.94927	0.04652
486.02062	0.04637
484.09196	0.04614
482.16331	0.04578
480.23466	0.04531
478.30600	0.04487
476.37735	0.04472
474.44870	0.04481
472.52004	0.04478
470.59139	0.04446
468.66274	0.04397
466.73408	0.04350
464.80543	0.04310
462.87678	0.04272
460.94812	0.04241
459.01947	0.04215
457.09082	0.04194
455.16216	0.04176
453.23351	0.04150
451.30486	0.04120
449.37620	0.04094
447.44755	0.04074
445.51890	0.04051
443.59025	0.04025
441.66159	0.03997
439.73294	0.03964
437.80429	0.03939
435.87563	0.03929
433.94698	0.03922
432.01833	0.03904
430.08967	0.03882
428.16102	0.03853
426.23237	0.03812
424.30371	0.03772
422.37506	0.03743
420.44641	0.03710
418.51775	0.03684
416.58910	0.03677
414.66045	0.03665
412.73179	0.03649
410.80314	0.03633
408.87449	0.03616
406.94583	0.03595
405.01718	0.03571
403.08853	0.03549
401.15987	0.03529
399.23122	0.03503
