3996.16951	0.04918
3994.24086	0.04934
3992.31221	0.04916
3990.38355	0.04911
3988.45490	0.04920
3986.52625	0.04897
3984.59759	0.04869
3982.66894	0.04882
3980.74029	0.04898
3978.81163	0.04881
3976.88298	0.04866
3974.95433	0.04877
3973.02567	0.04885
3971.09702	0.04868
3969.16837	0.04860
3967.23972	0.04905
3965.31106	0.04954
3963.38241	0.04937
3961.45376	0.04894
3959.52510	0.04888
3957.59645	0.04901
3955.66780	0.04897
3953.73914	0.04873
3951.81049	0.04847
3949.88184	0.04813
3947.95318	0.04770
3946.02453	0.04751
3944.09588	0.04750
3942.16722	0.04754
3940.23857	0.04778
3938.30992	0.04789
3936.38126	0.04757
3934.45261	0.04744
3932.52396	0.04765
3930.59530	0.04758
3928.66665	0.04698
3926.73800	0.04621
3924.80934	0.04570
3922.88069	0.04591
3920.95204	0.04668
3919.02338	0.04714
3917.09473	0.04703
3915.16608	0.04688
3913.23742	0.04687
3911.30877	0.04705
3909.38012	0.04752
3907.45146	0.04786
3905.52281	0.04767
3903.59416	0.04736
3901.66550	0.04723
3899.73685	0.04685
3897.80820	0.04608
3895.87955	0.04548
3893.95089	0.04542
3892.02224	0.04575
3890.09359	0.04601
3888.16493	0.04607
3886.23628	0.04614
3884.30763	0.04605
3882.37897	0.04553
3880.45032	0.04507
3878.52167	0.04511
3876.59301	0.04537
3874.66436	0.04546
3872.73571	0.04548
3870.80705	0.04573
3868.87840	0.04606
3866.94975	0.04629
3865.02109	0.04639
3863.09244	0.04627
3861.16379	0.04570
3859.23513	0.04488
3857.30648	0.04452
3855.37783	0.04489
3853.44917	0.04536
3851.52052	0.04537
3849.59187	0.04510
3847.66321	0.04471
3845.73456	0.04408
3843.80591	0.04338
3841.87725	0.04314
3839.94860	0.04348
3838.01995	0.04372
3836.09129	0.04344
3834.16264	0.04325
3832.23399	0.04346
3830.30534	0.04353
3828.37668	0.04323
3826.44803	0.04279
3824.51938	0.04246
3822.59072	0.04247
3820.66207	0.04296
3818.73342	0.04366
3816.80476	0.04421
3814.87611	0.04429
3812.94746	0.04376
3811.01880	0.04303
3809.09015	0.04267
3807.16150	0.04268
3805.23284	0.04262
3803.30419	0.04226
3801.37554	0.04194
3799.44688	0.04196
3797.51823	0.04188
3795.58958	0.04120
3793.66092	0.04033
3791.73227	0.04014
3789.80362	0.04081
3787.87496	0.04163
3785.94631	0.04189
3784.01766	0.04154
3782.08900	0.04132
3780.16035	0.04149
3778.23170	0.04144
3776.30304	0.04101
3774.37439	0.04097
3772.44574	0.04153
3770.51708	0.04183
3768.58843	0.04163
3766.65978	0.04149
3764.73112	0.04149
3762.80247	0.04130
3760.87382	0.04082
3758.94517	0.04053
3757.01651	0.04090
3755.08786	0.04129
3753.15921	0.04123
3751.23055	0.04131
3749.30190	0.04157
3747.37325	0.04142
3745.44459	0.04091
3743.51594	0.04036
3741.58729	0.04012
3739.65863	0.04006
3737.72998	0.03999
3735.80133	0.04002
3733.87267	0.03986
3731.94402	0.03906
3730.01537	0.03818
3728.08671	0.03835
3726.15806	0.03929
3724.22941	0.03968
3722.30075	0.03940
3720.37210	0.03913
3718.44345	0.03883
3716.51479	0.03837
3714.58614	0.03784
3712.65749	0.03744
3710.72883	0.03761
3708.80018	0.03817
3706.87153	0.03813
3704.94287	0.03753
3703.01422	0.03739
3701.08557	0.03788
3699.15691	0.03824
3697.22826	0.03818
3695.29961	0.03841
3693.37095	0.03887
3691.44230	0.03851
3689.51365	0.03744
3687.58500	0.03690
3685.65634	0.03707
3683.72769	0.03735
3681.79904	0.03769
3679.87038	0.03812
3677.94173	0.03847
3676.01308	0.03856
3674.08442	0.03818
3672.15577	0.03776
3670.22712	0.03786
3668.29846	0.03815
3666.36981	0.03801
3664.44116	0.03766
3662.51250	0.03781
3660.58385	0.03835
3658.65520	0.03859
3656.72654	0.03843
3654.79789	0.03804
3652.86924	0.03779
3650.94058	0.03843
3649.01193	0.03967
3647.08328	0.04039
3645.15462	0.04062
3643.22597	0.04112
3641.29732	0.04170
3639.36866	0.04189
3637.44001	0.04197
3635.51136	0.04227
3633.58270	0.04232
3631.65405	0.04207
3629.72540	0.04219
3627.79674	0.04257
3625.86809	0.04244
3623.93944	0.04196
3622.01079	0.04208
3620.08213	0.04314
3618.15348	0.04444
3616.22483	0.04524
3614.29617	0.04556
3612.36752	0.04598
3610.43887	0.04650
3608.51021	0.04656
3606.58156	0.04642
3604.65291	0.04693
3602.72425	0.04788
3600.79560	0.04851
3598.86695	0.04877
3596.93829	0.04880
3595.00964	0.04878
3593.08099	0.04923
3591.15233	0.04999
3589.22368	0.05021
3587.29503	0.04995
3585.36637	0.05017
3583.43772	0.05103
3581.50907	0.05192
3579.58041	0.05260
3577.65176	0.05322
3575.72311	0.05368
3573.79445	0.05393
3571.86580	0.05429
3569.93715	0.05480
3568.00849	0.05522
3566.07984	0.05560
3564.15119	0.05605
3562.22253	0.05654
3560.29388	0.05717
3558.36523	0.05810
3556.43657	0.05898
3554.50792	0.05916
3552.57927	0.05874
3550.65062	0.05867
3548.72196	0.05944
3546.79331	0.06045
3544.86466	0.06109
3542.93600	0.06153
3541.00735	0.06188
3539.07870	0.06217
3537.15004	0.06269
3535.22139	0.06331
3533.29274	0.06364
3531.36408	0.06384
3529.43543	0.06418
3527.50678	0.06473
3525.57812	0.06550
3523.64947	0.06620
3521.72082	0.06664
3519.79216	0.06698
3517.86351	0.06762
3515.93486	0.06863
3514.00620	0.06964
3512.07755	0.07025
3510.14890	0.07046
3508.22024	0.07056
3506.29159	0.07085
3504.36294	0.07139
3502.43428	0.07183
3500.50563	0.07205
3498.57698	0.07238
3496.64832	0.07295
3494.71967	0.07362
3492.79102	0.07428
3490.86236	0.07481
3488.93371	0.07517
3487.00506	0.07536
3485.07641	0.07546
3483.14775	0.07568
3481.21910	0.07592
3479.29045	0.07609
3477.36179	0.07635
3475.43314	0.07667
3473.50449	0.07686
3471.57583	0.07694
3469.64718	0.07714
3467.71853	0.07779
3465.78987	0.07893
3463.86122	0.07983
3461.93257	0.07992
3460.00391	0.07971
3458.07526	0.07993
3456.14661	0.08055
3454.21795	0.08124
3452.28930	0.08192
3450.36065	0.08248
3448.43199	0.08271
3446.50334	0.08254
3444.57469	0.08233
3442.64603	0.08253
3440.71738	0.08297
3438.78873	0.08339
3436.86007	0.08397
3434.93142	0.08456
3433.00277	0.08497
3431.07411	0.08535
3429.14546	0.08557
3427.21681	0.08543
3425.28815	0.08546
3423.35950	0.08614
3421.43085	0.08700
3419.50219	0.08749
3417.57354	0.08778
3415.64489	0.08828
3413.71624	0.08894
3411.78758	0.08931
3409.85893	0.08939
3407.93028	0.08947
3406.00162	0.08967
3404.07297	0.09004
3402.14432	0.09045
3400.21566	0.09075
3398.28701	0.09098
3396.35836	0.09128
3394.42970	0.09167
3392.50105	0.09196
3390.57240	0.09203
3388.64374	0.09236
3386.71509	0.09314
3384.78644	0.09373
3382.85778	0.09373
3380.92913	0.09355
3379.00048	0.09367
3377.07182	0.09415
3375.14317	0.09472
3373.21452	0.09528
3371.28586	0.09587
3369.35721	0.09651
3367.42856	0.09713
3365.49990	0.09774
3363.57125	0.09840
3361.64260	0.09907
3359.71394	0.09963
3357.78529	0.10022
3355.85664	0.10100
3353.92798	0.10192
3351.99933	0.10285
3350.07068	0.10383
3348.14202	0.10483
3346.21337	0.10567
3344.28472	0.10619
3342.35607	0.10671
3340.42741	0.10751
3338.49876	0.10834
3336.57011	0.10897
3334.64145	0.10951
3332.71280	0.11008
3330.78415	0.11075
3328.85549	0.11146
3326.92684	0.11214
3324.99819	0.11280
3323.06953	0.11332
3321.14088	0.11364
3319.21223	0.11376
3317.28357	0.11374
3315.35492	0.11394
3313.42627	0.11437
3311.49761	0.11454
3309.56896	0.11447
3307.64031	0.11458
3305.71165	0.11495
3303.78300	0.11531
3301.85435	0.11558
3299.92569	0.11580
3297.99704	0.11592
3296.06839	0.11581
3294.13973	0.11548
3292.21108	0.11514
3290.28243	0.11488
3288.35377	0.11473
3286.42512	0.11463
3284.49647	0.11452
3282.56781	0.11444
3280.63916	0.11427
3278.71051	0.11383
3276.78186	0.11341
3274.85320	0.11327
3272.92455	0.11306
3270.99590	0.11260
3269.06724	0.11226
3267.13859	0.11202
3265.20994	0.11148
3263.28128	0.11075
3261.35263	0.11027
3259.42398	0.11009
3257.49532	0.10984
3255.56667	0.10911
3253.63802	0.10801
3251.70936	0.10707
3249.78071	0.10644
3247.85206	0.10590
3245.92340	0.10551
3243.99475	0.10528
3242.06610	0.10523
3240.13744	0.10534
3238.20879	0.10524
3236.28014	0.10474
3234.35148	0.10396
3232.42283	0.10302
3230.49418	0.10226
3228.56552	0.10211
3226.63687	0.10220
3224.70822	0.10177
3222.77956	0.10110
3220.85091	0.10092
3218.92226	0.10121
3216.99360	0.10137
3215.06495	0.10099
3213.13630	0.10033
3211.20764	0.09985
3209.27899	0.09947
3207.35034	0.09900
3205.42169	0.09867
3203.49303	0.09859
3201.56438	0.09854
3199.63573	0.09821
3197.70707	0.09752
3195.77842	0.09667
3193.84977	0.09590
3191.92111	0.09542
3189.99246	0.09524
3188.06381	0.09511
3186.13515	0.09469
3184.20650	0.09388
3182.27785	0.09297
3180.34919	0.09219
3178.42054	0.09139
3176.49189	0.09062
3174.56323	0.09012
3172.63458	0.08989
3170.70593	0.08952
3168.77727	0.08890
3166.84862	0.08838
3164.91997	0.08784
3162.99131	0.08689
3161.06266	0.08590
3159.13401	0.08535
3157.20535	0.08497
3155.27670	0.08443
3153.34805	0.08373
3151.41939	0.08309
3149.49074	0.08260
3147.56209	0.08207
3145.63343	0.08134
3143.70478	0.08057
3141.77613	0.08011
3139.84748	0.07985
3137.91882	0.07944
3135.99017	0.07890
3134.06152	0.07834
3132.13286	0.07798
3130.20421	0.07795
3128.27556	0.07784
3126.34690	0.07743
3124.41825	0.07707
3122.48960	0.07692
3120.56094	0.07689
3118.63229	0.07700
3116.70364	0.07702
3114.77498	0.07667
3112.84633	0.07628
3110.91768	0.07612
3108.98902	0.07605
3107.06037	0.07610
3105.13172	0.07637
3103.20306	0.07664
3101.27441	0.07680
3099.34576	0.07701
3097.41710	0.07706
3095.48845	0.07673
3093.55980	0.07650
3091.63114	0.07689
3089.70249	0.07751
3087.77384	0.07783
3085.84518	0.07795
3083.91653	0.07813
3081.98788	0.07831
3080.05922	0.07837
3078.13057	0.07835
3076.20192	0.07822
3074.27326	0.07803
3072.34461	0.07791
3070.41596	0.07799
3068.48731	0.07804
3066.55865	0.07781
3064.63000	0.07738
3062.70135	0.07702
3060.77269	0.07686
3058.84404	0.07665
3056.91539	0.07617
3054.98673	0.07554
3053.05808	0.07503
3051.12943	0.07464
3049.20077	0.07412
3047.27212	0.07347
3045.34347	0.07285
3043.41481	0.07235
3041.48616	0.07202
3039.55751	0.07168
3037.62885	0.07115
3035.70020	0.07054
3033.77155	0.07004
3031.84289	0.06958
3029.91424	0.06918
3027.98559	0.06884
3026.05693	0.06843
3024.12828	0.06803
3022.19963	0.06763
3020.27097	0.06706
3018.34232	0.06644
3016.41367	0.06604
3014.48501	0.06582
3012.55636	0.06560
3010.62771	0.06535
3008.69905	0.06528
3006.77040	0.06544
3004.84175	0.06549
3002.91309	0.06536
3000.98444	0.06530
2999.05579	0.06532
2997.12714	0.06530
2995.19848	0.06540
2993.26983	0.06552
2991.34118	0.06549
2989.41252	0.06565
2987.48387	0.06619
2985.55522	0.06677
2983.62656	0.06733
2981.69791	0.06800
2979.76926	0.06850
2977.84060	0.06858
2975.91195	0.06852
2973.98330	0.06867
2972.05464	0.06897
2970.12599	0.06920
2968.19734	0.06936
2966.26868	0.06960
2964.34003	0.06995
2962.41138	0.07024
2960.48272	0.07038
2958.55407	0.07038
2956.62542	0.07043
2954.69676	0.07058
2952.76811	0.07063
2950.83946	0.07067
2948.91080	0.07096
2946.98215	0.07128
2945.05350	0.07139
2943.12484	0.07151
2941.19619	0.07197
2939.26754	0.07254
2937.33888	0.07274
2935.41023	0.07250
2933.48158	0.07198
2931.55293	0.07147
2929.62427	0.07138
2927.69562	0.07164
2925.76697	0.07170
2923.83831	0.07138
2921.90966	0.07086
2919.98101	0.07026
2918.05235	0.06966
2916.12370	0.06904
2914.19505	0.06818
2912.26639	0.06719
2910.33774	0.06633
2908.40909	0.06563
2906.48043	0.06511
2904.55178	0.06462
2902.62313	0.06407
2900.69447	0.06366
2898.76582	0.06348
2896.83717	0.06343
2894.90851	0.06337
2892.97986	0.06306
2891.05121	0.06252
2889.12255	0.06221
2887.19390	0.06232
2885.26525	0.06250
2883.33659	0.06244
2881.40794	0.06243
2879.47929	0.06269
2877.55063	0.06279
2875.62198	0.06251
2873.69333	0.06221
2871.76467	0.06208
2869.83602	0.06198
2867.90737	0.06168
2865.97871	0.06104
2864.05006	0.06022
2862.12141	0.05954
2860.19276	0.05908
2858.26410	0.05871
2856.33545	0.05852
2854.40680	0.05854
2852.47814	0.05839
2850.54949	0.05786
2848.62084	0.05721
2846.69218	0.05667
2844.76353	0.05625
2842.83488	0.05581
2840.90622	0.05537
2838.97757	0.05498
2837.04892	0.05458
2835.12026	0.05424
2833.19161	0.05404
2831.26296	0.05382
2829.33430	0.05345
2827.40565	0.05303
2825.47700	0.05277
2823.54834	0.05265
2821.61969	0.05252
2819.69104	0.05248
2817.76238	0.05251
2815.83373	0.05243
2813.90508	0.05224
2811.97642	0.05202
2810.04777	0.05175
2808.11912	0.05144
2806.19046	0.05126
2804.26181	0.05118
2802.33316	0.05110
2800.40450	0.05108
2798.47585	0.05106
2796.54720	0.05083
2794.61855	0.05049
2792.68989	0.05025
2790.76124	0.05011
2788.83259	0.04993
2786.90393	0.04976
2784.97528	0.04959
2783.04663	0.04939
2781.11797	0.04914
2779.18932	0.04890
2777.26067	0.04877
2775.33201	0.04877
2773.40336	0.04883
2771.47471	0.04875
2769.54605	0.04843
2767.61740	0.04810
2765.68875	0.04797
2763.76009	0.04789
2761.83144	0.04775
2759.90279	0.04765
2757.97413	0.04756
2756.04548	0.04730
2754.11683	0.04694
2752.18817	0.04671
2750.25952	0.04662
2748.33087	0.04656
2746.40221	0.04651
2744.47356	0.04644
2742.54491	0.04625
2740.61625	0.04588
2738.68760	0.04558
2736.75895	0.04553
2734.83029	0.04554
2732.90164	0.04541
2730.97299	0.04522
2729.04433	0.04505
2727.11568	0.04500
2725.18703	0.04506
2723.25838	0.04500
2721.32972	0.04485
2719.40107	0.04474
2717.47242	0.04452
2715.54376	0.04419
2713.61511	0.04405
2711.68646	0.04407
2709.75780	0.04411
2707.82915	0.04406
2705.90050	0.04379
2703.97184	0.04340
2702.04319	0.04333
2700.11454	0.04364
2698.18588	0.04381
2696.25723	0.04361
2694.32858	0.04318
2692.39992	0.04277
2690.47127	0.04255
2688.54262	0.04249
2686.61396	0.04247
2684.68531	0.04238
2682.75666	0.04223
2680.82800	0.04207
2678.89935	0.04196
2676.97070	0.04198
2675.04204	0.04206
2673.11339	0.04211
2671.18474	0.04212
2669.25608	0.04198
2667.32743	0.04176
2665.39878	0.04167
2663.47012	0.04172
2661.54147	0.04163
2659.61282	0.04121
2657.68417	0.04065
2655.75551	0.04021
2653.82686	0.03999
2651.89821	0.03995
2649.96955	0.03988
2648.04090	0.03957
2646.11225	0.03921
2644.18359	0.03888
2642.25494	0.03849
2640.32629	0.03815
2638.39763	0.03795
2636.46898	0.03775
2634.54033	0.03753
2632.61167	0.03730
2630.68302	0.03714
2628.75437	0.03700
2626.82571	0.03687
2624.89706	0.03696
2622.96841	0.03714
2621.03975	0.03693
2619.11110	0.03633
2617.18245	0.03592
2615.25379	0.03592
2613.32514	0.03590
2611.39649	0.03567
2609.46783	0.03539
2607.53918	0.03507
2605.61053	0.03474
2603.68187	0.03469
2601.75322	0.03502
2599.82457	0.03531
2597.89591	0.03509
2595.96726	0.03466
2594.03861	0.03459
2592.10995	0.03478
2590.18130	0.03468
2588.25265	0.03420
2586.32400	0.03372
2584.39534	0.03351
2582.46669	0.03348
2580.53804	0.03344
2578.60938	0.03311
2576.68073	0.03251
2574.75208	0.03208
2572.82342	0.03201
2570.89477	0.03221
2568.96612	0.03245
2567.03746	0.03240
2565.10881	0.03224
2563.18016	0.03237
2561.25150	0.03238
2559.32285	0.03200
2557.39420	0.03170
2555.46554	0.03194
2553.53689	0.03242
2551.60824	0.03253
2549.67958	0.03213
2547.75093	0.03167
2545.82228	0.03153
2543.89362	0.03157
2541.96497	0.03137
2540.03632	0.03105
2538.10766	0.03088
2536.17901	0.03077
2534.25036	0.03072
2532.32170	0.03077
2530.39305	0.03075
2528.46440	0.03053
2526.53574	0.03032
2524.60709	0.03021
2522.67844	0.03017
2520.74978	0.03012
2518.82113	0.03002
2516.89248	0.02997
2514.96383	0.02989
2513.03517	0.02974
2511.10652	0.02977
2509.17787	0.02996
2507.24921	0.02995
2505.32056	0.02963
2503.39191	0.02946
2501.46325	0.02968
2499.53460	0.02978
2497.60595	0.02936
2495.67729	0.02898
2493.74864	0.02933
2491.81999	0.02986
2489.89133	0.02977
2487.96268	0.02947
2486.03403	0.02932
2484.10537	0.02914
2482.17672	0.02903
2480.24807	0.02900
2478.31941	0.02881
2476.39076	0.02867
2474.46211	0.02862
2472.53345	0.02836
2470.60480	0.02816
2468.67615	0.02830
2466.74749	0.02854
2464.81884	0.02881
2462.89019	0.02904
2460.96153	0.02885
2459.03288	0.02837
2457.10423	0.02799
2455.17557	0.02772
2453.24692	0.02742
2451.31827	0.02727
2449.38962	0.02728
2447.46096	0.02729
2445.53231	0.02751
2443.60366	0.02786
2441.67500	0.02787
2439.74635	0.02766
2437.81770	0.02761
2435.88904	0.02779
2433.96039	0.02801
2432.03174	0.02795
2430.10308	0.02767
2428.17443	0.02743
2426.24578	0.02729
2424.31712	0.02740
2422.38847	0.02781
2420.45982	0.02814
2418.53116	0.02828
2416.60251	0.02838
2414.67386	0.02818
2412.74520	0.02779
2410.81655	0.02770
2408.88790	0.02786
2406.95924	0.02790
2405.03059	0.02776
2403.10194	0.02767
2401.17328	0.02783
2399.24463	0.02799
2397.31598	0.02783
2395.38732	0.02754
2393.45867	0.02755
2391.53002	0.02782
2389.60136	0.02797
2387.67271	0.02803
2385.74406	0.02817
2383.81540	0.02826
2381.88675	0.02830
2379.95810	0.02852
2378.02945	0.02894
2376.10079	0.02926
2374.17214	0.02926
2372.24349	0.02905
2370.31483	0.02896
2368.38618	0.02909
2366.45753	0.02931
2364.52887	0.02935
2362.60022	0.02918
2360.67157	0.02904
2358.74291	0.02903
2356.81426	0.02905
2354.88561	0.02901
2352.95695	0.02884
2351.02830	0.02860
2349.09965	0.02855
2347.17099	0.02883
2345.24234	0.02915
2343.31369	0.02919
2341.38503	0.02906
2339.45638	0.02907
2337.52773	0.02918
2335.59907	0.02913
2333.67042	0.02889
2331.74177	0.02851
2329.81311	0.02801
2327.88446	0.02747
2325.95581	0.02697
2324.02715	0.02670
2322.09850	0.02672
2320.16985	0.02663
2318.24119	0.02617
2316.31254	0.02564
2314.38389	0.02535
2312.45524	0.02546
2310.52658	0.02586
2308.59793	0.02605
2306.66928	0.02576
2304.74062	0.02535
2302.81197	0.02507
2300.88332	0.02469
2298.95466	0.02429
2297.02601	0.02415
2295.09736	0.02404
2293.16870	0.02355
2291.24005	0.02287
2289.31140	0.02249
2287.38274	0.02237
2285.45409	0.02209
2283.52544	0.02177
2281.59678	0.02179
2279.66813	0.02195
2277.73948	0.02184
2275.81082	0.02148
2273.88217	0.02080
2271.95352	0.02000
2270.02486	0.01984
2268.09621	0.02037
2266.16756	0.02081
2264.23890	0.02089
2262.31025	0.02077
2260.38160	0.02049
2258.45294	0.02020
2256.52429	0.02017
2254.59564	0.02031
2252.66698	0.02025
2250.73833	0.02008
2248.80968	0.02005
2246.88102	0.01991
2244.95237	0.01961
2243.02372	0.01917
2241.09507	0.01875
2239.16641	0.01828
2237.23776	0.01788
2235.30911	0.01802
2233.38045	0.01850
2231.45180	0.01886
2229.52315	0.01923
2227.59449	0.01965
2225.66584	0.01949
2223.73719	0.01873
2221.80853	0.01802
2219.87988	0.01728
2217.95123	0.01659
2216.02257	0.01634
2214.09392	0.01621
2212.16527	0.01579
2210.23661	0.01547
2208.30796	0.01575
2206.37931	0.01595
2204.45065	0.01532
2202.52200	0.01470
2200.59335	0.01458
2198.66469	0.01444
2196.73604	0.01444
2194.80739	0.01464
2192.87873	0.01461
2190.95008	0.01444
2189.02143	0.01412
2187.09277	0.01361
2185.16412	0.01308
2183.23547	0.01261
2181.30681	0.01264
2179.37816	0.01328
2177.44951	0.01348
2175.52085	0.01276
2173.59220	0.01176
2171.66355	0.01067
2169.73490	0.00955
2167.80624	0.00904
2165.87759	0.00914
2163.94894	0.00911
2162.02028	0.00904
2160.09163	0.00945
2158.16298	0.01049
2156.23432	0.01178
2154.30567	0.01202
2152.37702	0.01155
2150.44836	0.01235
2148.51971	0.01401
2146.59106	0.01483
2144.66240	0.01498
2142.73375	0.01526
2140.80510	0.01618
2138.87644	0.01743
2136.94779	0.01789
2135.01914	0.01754
2133.09048	0.01734
2131.16183	0.01760
2129.23318	0.01770
2127.30452	0.01745
2125.37587	0.01748
2123.44722	0.01783
2121.51856	0.01795
2119.58991	0.01803
2117.66126	0.01825
2115.73260	0.01811
2113.80395	0.01757
2111.87530	0.01734
2109.94664	0.01750
2108.01799	0.01743
2106.08934	0.01702
2104.16069	0.01674
2102.23203	0.01654
2100.30338	0.01627
2098.37473	0.01608
2096.44607	0.01636
2094.51742	0.01676
2092.58877	0.01698
2090.66011	0.01709
2088.73146	0.01708
2086.80281	0.01674
2084.87415	0.01626
2082.94550	0.01590
2081.01685	0.01554
2079.08819	0.01479
2077.15954	0.01402
2075.23089	0.01389
2073.30223	0.01402
2071.37358	0.01348
2069.44493	0.01248
2067.51627	0.01205
2065.58762	0.01242
2063.65897	0.01306
2061.73031	0.01392
2059.80166	0.01489
2057.87301	0.01531
2055.94435	0.01502
2054.01570	0.01446
2052.08705	0.01373
2050.15839	0.01243
2048.22974	0.01085
2046.30109	0.00989
2044.37243	0.00959
2042.44378	0.00950
2040.51513	0.00953
2038.58647	0.00957
2036.65782	0.00959
2034.72917	0.00968
2032.80052	0.00994
2030.87186	0.01024
2028.94321	0.01031
2027.01456	0.01022
2025.08590	0.00958
2023.15725	0.00785
2021.22860	0.00650
2019.29994	0.00691
2017.37129	0.00849
2015.44264	0.01031
2013.51398	0.01126
2011.58533	0.01086
2009.65668	0.01017
2007.72802	0.00965
2005.79937	0.00892
2003.87072	0.00881
2001.94206	0.01025
2000.01341	0.01203
1998.08476	0.01252
1996.15610	0.01198
1994.22745	0.01158
1992.29880	0.01147
1990.37014	0.01110
1988.44149	0.01072
1986.51284	0.01090
1984.58418	0.01136
1982.65553	0.01135
1980.72688	0.01028
1978.79822	0.00851
1976.86957	0.00720
1974.94092	0.00687
1973.01226	0.00711
1971.08361	0.00795
1969.15496	0.00950
1967.22631	0.01069
1965.29765	0.01101
1963.36900	0.01148
1961.44035	0.01238
1959.51169	0.01276
1957.58304	0.01233
1955.65439	0.01198
1953.72573	0.01189
1951.79708	0.01179
1949.86843	0.01198
1947.93977	0.01247
1946.01112	0.01301
1944.08247	0.01368
1942.15381	0.01428
1940.22516	0.01457
1938.29651	0.01454
1936.36785	0.01435
1934.43920	0.01417
1932.51055	0.01398
1930.58189	0.01369
1928.65324	0.01354
1926.72459	0.01367
1924.79593	0.01384
1922.86728	0.01415
1920.93863	0.01455
1919.00997	0.01466
1917.08132	0.01445
1915.15267	0.01428
1913.22401	0.01435
1911.29536	0.01450
1909.36671	0.01447
1907.43805	0.01443
1905.50940	0.01445
1903.58075	0.01434
1901.65209	0.01430
1899.72344	0.01447
1897.79479	0.01454
1895.86614	0.01457
1893.93748	0.01468
1892.00883	0.01475
1890.08018	0.01494
1888.15152	0.01502
1886.22287	0.01457
1884.29422	0.01396
1882.36556	0.01383
1880.43691	0.01409
1878.50826	0.01425
1876.57960	0.01411
1874.65095	0.01394
1872.72230	0.01400
1870.79364	0.01411
1868.86499	0.01415
1866.93634	0.01432
1865.00768	0.01453
1863.07903	0.01453
1861.15038	0.01447
1859.22172	0.01454
1857.29307	0.01471
1855.36442	0.01494
1853.43576	0.01494
1851.50711	0.01447
1849.57846	0.01394
1847.64980	0.01384
1845.72115	0.01407
1843.79250	0.01434
1841.86384	0.01449
1839.93519	0.01450
1838.00654	0.01446
1836.07788	0.01445
1834.14923	0.01446
1832.22058	0.01451
1830.29192	0.01464
1828.36327	0.01474
1826.43462	0.01460
1824.50597	0.01419
1822.57731	0.01376
1820.64866	0.01360
1818.72001	0.01380
1816.79135	0.01423
1814.86270	0.01459
1812.93405	0.01467
1811.00539	0.01455
1809.07674	0.01440
1807.14809	0.01434
1805.21943	0.01438
1803.29078	0.01439
1801.36213	0.01433
1799.43347	0.01426
1797.50482	0.01424
1795.57617	0.01422
1793.64751	0.01414
1791.71886	0.01413
1789.79021	0.01417
1787.86155	0.01415
1785.93290	0.01403
1784.00425	0.01395
1782.07559	0.01390
1780.14694	0.01380
1778.21829	0.01370
1776.28963	0.01368
1774.36098	0.01376
1772.43233	0.01392
1770.50367	0.01407
1768.57502	0.01413
1766.64637	0.01409
1764.71771	0.01403
1762.78906	0.01402
1760.86041	0.01404
1758.93176	0.01414
1757.00310	0.01439
1755.07445	0.01469
1753.14580	0.01494
1751.21714	0.01511
1749.28849	0.01534
1747.35984	0.01560
1745.43118	0.01580
1743.50253	0.01602
1741.57388	0.01636
1739.64522	0.01672
1737.71657	0.01706
1735.78792	0.01752
1733.85926	0.01800
1731.93061	0.01825
1730.00196	0.01836
1728.07330	0.01862
1726.14465	0.01908
1724.21600	0.01959
1722.28734	0.02007
1720.35869	0.02057
1718.43004	0.02119
1716.50138	0.02189
1714.57273	0.02256
1712.64408	0.02326
1710.71542	0.02416
1708.78677	0.02550
1706.85812	0.02730
1704.92946	0.02941
1703.00081	0.03177
1701.07216	0.03452
1699.14350	0.03756
1697.21485	0.04070
1695.28620	0.04389
1693.35754	0.04709
1691.42889	0.05032
1689.50024	0.05375
1687.57159	0.05738
1685.64293	0.06115
1683.71428	0.06499
1681.78563	0.06897
1679.85697	0.07330
1677.92832	0.07807
1675.99967	0.08308
1674.07101	0.08814
1672.14236	0.09323
1670.21371	0.09844
1668.28505	0.10365
1666.35640	0.10869
1664.42775	0.11365
1662.49909	0.11849
1660.57044	0.12293
1658.64179	0.12684
1656.71313	0.13027
1654.78448	0.13335
1652.85583	0.13598
1650.92717	0.13803
1648.99852	0.13968
1647.06987	0.14120
1645.14121	0.14258
1643.21256	0.14377
1641.28391	0.14479
1639.35525	0.14562
1637.42660	0.14628
1635.49795	0.14669
1633.56929	0.14653
1631.64064	0.14569
1629.71199	0.14415
1627.78333	0.14178
1625.85468	0.13847
1623.92603	0.13432
1621.99738	0.12953
1620.06872	0.12433
1618.14007	0.11896
1616.21142	0.11367
1614.28276	0.10850
1612.35411	0.10345
1610.42546	0.09857
1608.49680	0.09402
1606.56815	0.08983
1604.63950	0.08596
1602.71084	0.08238
1600.78219	0.07920
1598.85354	0.07654
1596.92488	0.07430
1594.99623	0.07234
1593.06758	0.07074
1591.13892	0.06958
1589.21027	0.06881
1587.28162	0.06838
1585.35296	0.06829
1583.42431	0.06855
1581.49566	0.06915
1579.56700	0.07018
1577.63835	0.07159
1575.70970	0.07325
1573.78104	0.07518
1571.85239	0.07757
1569.92374	0.08039
1567.99508	0.08343
1566.06643	0.08659
1564.13778	0.08986
1562.20912	0.09319
1560.28047	0.09654
1558.35182	0.09972
1556.42316	0.10251
1554.49451	0.10486
1552.56586	0.10677
1550.63721	0.10826
1548.70855	0.10950
1546.77990	0.11055
1544.85125	0.11133
1542.92259	0.11173
1540.99394	0.11177
1539.06529	0.11149
1537.13663	0.11093
1535.20798	0.11014
1533.27933	0.10921
1531.35067	0.10816
1529.42202	0.10703
1527.49337	0.10579
1525.56471	0.10440
1523.63606	0.10285
1521.70741	0.10122
1519.77875	0.09952
1517.85010	0.09761
1515.92145	0.09540
1513.99279	0.09291
1512.06414	0.09024
1510.13549	0.08748
1508.20683	0.08461
1506.27818	0.08155
1504.34953	0.07835
1502.42087	0.07522
1500.49222	0.07222
1498.56357	0.06936
1496.63491	0.06656
1494.70626	0.06377
1492.77761	0.06120
1490.84895	0.05899
1488.92030	0.05712
1486.99165	0.05557
1485.06299	0.05445
1483.13434	0.05381
1481.20569	0.05358
1479.27704	0.05374
1477.34838	0.05430
1475.41973	0.05526
1473.49108	0.05655
1471.56242	0.05804
1469.63377	0.05964
1467.70512	0.06133
1465.77646	0.06304
1463.84781	0.06479
1461.91916	0.06664
1459.99050	0.06857
1458.06185	0.07045
1456.13320	0.07199
1454.20454	0.07308
1452.27589	0.07376
1450.34724	0.07394
1448.41858	0.07361
1446.48993	0.07296
1444.56128	0.07212
1442.63262	0.07113
1440.70397	0.07008
1438.77532	0.06895
1436.84666	0.06758
1434.91801	0.06591
1432.98936	0.06415
1431.06070	0.06261
1429.13205	0.06147
1427.20340	0.06076
1425.27474	0.06038
1423.34609	0.06015
1421.41744	0.06001
1419.48878	0.05991
1417.56013	0.05986
1415.63148	0.05994
1413.70283	0.06018
1411.77417	0.06052
1409.84552	0.06096
1407.91687	0.06154
1405.98821	0.06214
1404.05956	0.06253
1402.13091	0.06261
1400.20225	0.06248
1398.27360	0.06230
1396.34495	0.06212
1394.41629	0.06187
1392.48764	0.06155
1390.55899	0.06125
1388.63033	0.06095
1386.70168	0.06061
1384.77303	0.06021
1382.84437	0.05973
1380.91572	0.05920
1378.98707	0.05865
1377.05841	0.05801
1375.12976	0.05724
1373.20111	0.05638
1371.27245	0.05549
1369.34380	0.05455
1367.41515	0.05355
1365.48649	0.05257
1363.55784	0.05170
1361.62919	0.05100
1359.70053	0.05048
1357.77188	0.05017
1355.84323	0.05018
1353.91457	0.05048
1351.98592	0.05099
1350.05727	0.05172
1348.12861	0.05268
1346.19996	0.05374
1344.27131	0.05472
1342.34266	0.05560
1340.41400	0.05632
1338.48535	0.05680
1336.55670	0.05702
1334.62804	0.05692
1332.69939	0.05644
1330.77074	0.05562
1328.84208	0.05464
1326.91343	0.05371
1324.98478	0.05300
1323.05612	0.05251
1321.12747	0.05219
1319.19882	0.05200
1317.27016	0.05187
1315.34151	0.05161
1313.41286	0.05117
1311.48420	0.05070
1309.55555	0.05030
1307.62690	0.04995
1305.69824	0.04962
1303.76959	0.04933
1301.84094	0.04908
1299.91228	0.04885
1297.98363	0.04870
1296.05498	0.04872
1294.12632	0.04897
1292.19767	0.04947
1290.26902	0.05015
1288.34036	0.05093
1286.41171	0.05171
1284.48306	0.05243
1282.55440	0.05302
1280.62575	0.05340
1278.69710	0.05357
1276.76845	0.05359
1274.83979	0.05357
1272.91114	0.05357
1270.98249	0.05367
1269.05383	0.05393
1267.12518	0.05435
1265.19653	0.05486
1263.26787	0.05538
1261.33922	0.05596
1259.41057	0.05670
1257.48191	0.05755
1255.55326	0.05846
1253.62461	0.05948
1251.69595	0.06061
1249.76730	0.06175
1247.83865	0.06289
1245.90999	0.06405
1243.98134	0.06523
1242.05269	0.06635
1240.12403	0.06724
1238.19538	0.06776
1236.26673	0.06800
1234.33807	0.06801
1232.40942	0.06764
1230.48077	0.06677
1228.55211	0.06551
1226.62346	0.06396
1224.69481	0.06220
1222.76615	0.06039
1220.83750	0.05869
1218.90885	0.05725
1216.98019	0.05622
1215.05154	0.05554
1213.12289	0.05509
1211.19423	0.05495
1209.26558	0.05519
1207.33693	0.05565
1205.40828	0.05606
1203.47962	0.05613
1201.55097	0.05577
1199.62232	0.05520
1197.69366	0.05426
1195.76501	0.05308
1193.83636	0.05179
1191.90770	0.05053
1189.97905	0.04940
1188.05040	0.04838
1186.12174	0.04748
1184.19309	0.04668
1182.26444	0.04601
1180.33578	0.04563
1178.40713	0.04549
1176.47848	0.04540
1174.54982	0.04527
1172.62117	0.04512
1170.69252	0.04502
1168.76386	0.04498
1166.83521	0.04494
1164.90656	0.04494
1162.97790	0.04495
1161.04925	0.04480
1159.12060	0.04438
1157.19194	0.04375
1155.26329	0.04299
1153.33464	0.04212
1151.40598	0.04117
1149.47733	0.04025
1147.54868	0.03946
1145.62002	0.03883
1143.69137	0.03831
1141.76272	0.03783
1139.83406	0.03740
1137.90541	0.03702
1135.97676	0.03671
1134.04811	0.03651
1132.11945	0.03643
1130.19080	0.03640
1128.26215	0.03634
1126.33349	0.03626
1124.40484	0.03617
1122.47619	0.03599
1120.54753	0.03577
1118.61888	0.03566
1116.69023	0.03571
1114.76157	0.03573
1112.83292	0.03568
1110.90427	0.03581
1108.97561	0.03618
1107.04696	0.03655
1105.11831	0.03683
1103.18965	0.03718
1101.26100	0.03760
1099.33235	0.03802
1097.40369	0.03850
1095.47504	0.03904
1093.54639	0.03968
1091.61773	0.04052
1089.68908	0.04157
1087.76043	0.04265
1085.83177	0.04365
1083.90312	0.04453
1081.97447	0.04516
1080.04581	0.04544
1078.11716	0.04541
1076.18851	0.04509
1074.25985	0.04455
1072.33120	0.04406
1070.40255	0.04370
1068.47390	0.04346
1066.54524	0.04340
1064.61659	0.04345
1062.68794	0.04344
1060.75928	0.04326
1058.83063	0.04293
1056.90198	0.04254
1054.97332	0.04211
1053.04467	0.04165
1051.11602	0.04114
1049.18736	0.04057
1047.25871	0.04008
1045.33006	0.03980
1043.40140	0.03973
1041.47275	0.03979
1039.54410	0.03999
1037.61544	0.04033
1035.68679	0.04069
1033.75814	0.04094
1031.82948	0.04103
1029.90083	0.04078
1027.97218	0.04013
1026.04352	0.03928
1024.11487	0.03846
1022.18622	0.03770
1020.25756	0.03697
1018.32891	0.03636
1016.40026	0.03592
1014.47160	0.03554
1012.54295	0.03505
1010.61430	0.03447
1008.68564	0.03390
1006.75699	0.03330
1004.82834	0.03271
1002.89968	0.03222
1000.97103	0.03182
999.04238	0.03143
997.11373	0.03097
995.18507	0.03053
993.25642	0.03018
991.32777	0.02983
989.39911	0.02951
987.47046	0.02931
985.54181	0.02918
983.61315	0.02905
981.68450	0.02903
979.75585	0.02919
977.82719	0.02946
975.89854	0.02966
973.96989	0.02966
972.04123	0.02954
970.11258	0.02936
968.18393	0.02912
966.25527	0.02889
964.32662	0.02860
962.39797	0.02824
960.46931	0.02799
958.54066	0.02783
956.61201	0.02769
954.68335	0.02753
952.75470	0.02737
950.82605	0.02722
948.89739	0.02715
946.96874	0.02720
945.04009	0.02730
943.11143	0.02738
941.18278	0.02748
939.25413	0.02751
937.32547	0.02746
935.39682	0.02746
933.46817	0.02752
931.53952	0.02752
929.61086	0.02740
927.68221	0.02725
925.75356	0.02721
923.82490	0.02725
921.89625	0.02724
919.96760	0.02710
918.03894	0.02685
916.11029	0.02663
914.18164	0.02655
912.25298	0.02655
910.32433	0.02643
908.39568	0.02618
906.46702	0.02600
904.53837	0.02587
902.60972	0.02567
900.68106	0.02547
898.75241	0.02550
896.82376	0.02569
894.89510	0.02577
892.96645	0.02567
891.03780	0.02557
889.10914	0.02553
887.18049	0.02543
885.25184	0.02534
883.32318	0.02538
881.39453	0.02542
879.46588	0.02534
877.53722	0.02531
875.60857	0.02549
873.67992	0.02567
871.75126	0.02562
869.82261	0.02543
867.89396	0.02539
865.96530	0.02545
864.03665	0.02543
862.10800	0.02532
860.17935	0.02529
858.25069	0.02534
856.32204	0.02545
854.39339	0.02557
852.46473	0.02564
850.53608	0.02567
848.60743	0.02568
846.67877	0.02572
844.75012	0.02580
842.82147	0.02582
840.89281	0.02578
838.96416	0.02567
837.03551	0.02556
835.10685	0.02549
833.17820	0.02541
831.24955	0.02534
829.32089	0.02534
827.39224	0.02546
825.46359	0.02576
823.53493	0.02624
821.60628	0.02676
819.67763	0.02709
817.74897	0.02723
815.82032	0.02741
813.89167	0.02759
811.96301	0.02765
810.03436	0.02772
808.10571	0.02796
806.17705	0.02812
804.24840	0.02812
802.31975	0.02815
800.39109	0.02835
798.46244	0.02863
796.53379	0.02897
794.60513	0.02931
792.67648	0.02959
790.74783	0.02987
788.81918	0.03010
786.89052	0.03023
784.96187	0.03038
783.03322	0.03061
781.10456	0.03084
779.17591	0.03104
777.24726	0.03124
775.31860	0.03144
773.38995	0.03166
771.46130	0.03194
769.53264	0.03228
767.60399	0.03262
765.67534	0.03288
763.74668	0.03306
761.81803	0.03319
759.88938	0.03333
757.96072	0.03358
756.03207	0.03389
754.10342	0.03425
752.17476	0.03463
750.24611	0.03496
748.31746	0.03527
746.38880	0.03564
744.46015	0.03607
742.53150	0.03640
740.60284	0.03651
738.67419	0.03648
736.74554	0.03655
734.81688	0.03692
732.88823	0.03740
730.95958	0.03776
729.03092	0.03806
727.10227	0.03831
725.17362	0.03848
723.24497	0.03868
721.31631	0.03907
719.38766	0.03941
717.45901	0.03970
715.53035	0.04000
713.60170	0.04035
711.67305	0.04071
709.74439	0.04099
707.81574	0.04128
705.88709	0.04162
703.95843	0.04194
702.02978	0.04214
700.10113	0.04223
698.17247	0.04233
696.24382	0.04253
694.31517	0.04274
692.38651	0.04283
690.45786	0.04287
688.52921	0.04301
686.60055	0.04325
684.67190	0.04349
682.74325	0.04370
680.81459	0.04396
678.88594	0.04421
676.95729	0.04442
675.02863	0.04461
673.09998	0.04482
671.17133	0.04507
669.24267	0.04530
667.31402	0.04549
665.38537	0.04568
663.45671	0.04580
661.52806	0.04584
659.59941	0.04595
657.67075	0.04622
655.74210	0.04642
653.81345	0.04644
651.88480	0.04645
649.95614	0.04662
648.02749	0.04685
646.09884	0.04698
644.17018	0.04699
642.24153	0.04696
640.31288	0.04699
638.38422	0.04708
636.45557	0.04719
634.52692	0.04728
632.59826	0.04725
630.66961	0.04755
628.74096	0.04905
626.81230	0.04643
624.88365	0.04247
622.95500	0.03996
621.02634	0.04051
619.09769	0.04314
617.16904	0.04632
615.24038	0.04870
613.31173	0.04951
611.38308	0.04929
609.45442	0.04923
607.52577	0.04935
605.59712	0.04903
603.66846	0.04835
601.73981	0.04782
599.81116	0.04767
597.88250	0.04766
595.95385	0.04760
594.02520	0.04771
592.09654	0.04817
590.16789	0.04851
588.23924	0.04831
586.31059	0.04789
584.38193	0.04778
582.45328	0.04796
580.52463	0.04809
578.59597	0.04800
576.66732	0.04778
574.73867	0.04770
572.81001	0.04779
570.88136	0.04777
568.95271	0.04770
567.02405	0.04792
565.09540	0.04830
563.16675	0.04853
561.23809	0.04849
559.30944	0.04830
557.38079	0.04824
555.45213	0.04845
553.52348	0.04877
551.59483	0.04886
549.66617	0.04864
547.73752	0.04833
545.80887	0.04817
543.88021	0.04805
541.95156	0.04787
540.02291	0.04773
538.09425	0.04769
536.16560	0.04765
534.23695	0.04755
532.30829	0.04746
530.37964	0.04737
528.45099	0.04720
526.52233	0.04700
524.59368	0.04672
522.66503	0.04628
520.73637	0.04584
518.80772	0.04558
516.87907	0.04545
514.95042	0.04534
513.02176	0.04521
511.09311	0.04507
509.16446	0.04493
507.23580	0.04470
505.30715	0.04434
503.37850	0.04394
501.44984	0.04369
499.52119	0.04360
497.59254	0.04341
495.66388	0.04300
493.73523	0.04254
491.80658	0.04217
489.87792	0.04179
487.94927	0.04139
486.02062	0.04107
484.09196	0.04086
482.16331	0.04062
480.23466	0.04023
478.30600	0.03982
476.37735	0.03961
474.44870	0.03951
472.52004	0.03921
470.59139	0.03867
468.66274	0.03820
466.73408	0.03796
464.80543	0.03778
462.87678	0.03761
460.94812	0.03737
459.01947	0.03694
457.09082	0.03645
455.16216	0.03611
453.23351	0.03583
451.30486	0.03550
449.37620	0.03523
447.44755	0.03505
445.51890	0.03488
443.59025	0.03465
441.66159	0.03440
439.73294	0.03414
437.80429	0.03390
435.87563	0.03367
433.94698	0.03347
432.01833	0.03333
430.08967	0.03315
428.16102	0.03283
426.23237	0.03248
424.30371	0.03223
422.37506	0.03200
420.44641	0.03173
418.51775	0.03140
416.58910	0.03112
414.66045	0.03096
412.73179	0.03086
410.80314	0.03071
408.87449	0.03049
406.94583	0.03031
405.01718	0.03022
403.08853	0.03015
401.15987	0.03003
399.23122	0.02982
