3996.16951	0.05216
3994.24086	0.05227
3992.31221	0.05230
3990.38355	0.05226
3988.45490	0.05199
3986.52625	0.05130
3984.59759	0.05055
3982.66894	0.05031
3980.74029	0.05056
3978.81163	0.05098
3976.88298	0.05127
3974.95433	0.05133
3973.02567	0.05131
3971.09702	0.05108
3969.16837	0.05068
3967.23972	0.05069
3965.31106	0.05096
3963.38241	0.05083
3961.45376	0.05062
3959.52510	0.05084
3957.59645	0.05111
3955.66780	0.05098
3953.73914	0.05074
3951.81049	0.05075
3949.88184	0.05096
3947.95318	0.05095
3946.02453	0.05050
3944.09588	0.04994
3942.16722	0.04989
3940.23857	0.05005
3938.30992	0.04954
3936.38126	0.04886
3934.45261	0.04892
3932.52396	0.04944
3930.59530	0.04978
3928.66665	0.04976
3926.73800	0.04952
3924.80934	0.04933
3922.88069	0.04948
3920.95204	0.04968
3919.02338	0.04952
3917.09473	0.04931
3915.16608	0.04937
3913.23742	0.04944
3911.30877	0.04943
3909.38012	0.04958
3907.45146	0.04985
3905.52281	0.04966
3903.59416	0.04911
3901.66550	0.04879
3899.73685	0.04869
3897.80820	0.04867
3895.87955	0.04875
3893.95089	0.04876
3892.02224	0.04860
3890.09359	0.04846
3888.16493	0.04827
3886.23628	0.04821
3884.30763	0.04866
3882.37897	0.04855
3880.45032	0.04760
3878.52167	0.04717
3876.59301	0.04751
3874.66436	0.04797
3872.73571	0.04810
3870.80705	0.04775
3868.87840	0.04790
3866.94975	0.04834
3865.02109	0.04812
3863.09244	0.04763
3861.16379	0.04734
3859.23513	0.04761
3857.30648	0.04806
3855.37783	0.04738
3853.44917	0.04620
3851.52052	0.04600
3849.59187	0.04626
3847.66321	0.04627
3845.73456	0.04594
3843.80591	0.04550
3841.87725	0.04553
3839.94860	0.04576
3838.01995	0.04567
3836.09129	0.04557
3834.16264	0.04549
3832.23399	0.04539
3830.30534	0.04538
3828.37668	0.04532
3826.44803	0.04536
3824.51938	0.04546
3822.59072	0.04515
3820.66207	0.04530
3818.73342	0.04606
3816.80476	0.04607
3814.87611	0.04575
3812.94746	0.04549
3811.01880	0.04523
3809.09015	0.04523
3807.16150	0.04546
3805.23284	0.04570
3803.30419	0.04490
3801.37554	0.04387
3799.44688	0.04409
3797.51823	0.04414
3795.58958	0.04335
3793.66092	0.04280
3791.73227	0.04321
3789.80362	0.04402
3787.87496	0.04433
3785.94631	0.04429
3784.01766	0.04435
3782.08900	0.04446
3780.16035	0.04438
3778.23170	0.04416
3776.30304	0.04385
3774.37439	0.04373
3772.44574	0.04375
3770.51708	0.04352
3768.58843	0.04344
3766.65978	0.04370
3764.73112	0.04417
3762.80247	0.04452
3760.87382	0.04427
3758.94517	0.04402
3757.01651	0.04445
3755.08786	0.04491
3753.15921	0.04456
3751.23055	0.04391
3749.30190	0.04356
3747.37325	0.04316
3745.44459	0.04164
3743.51594	0.04060
3741.58729	0.04123
3739.65863	0.04229
3737.72998	0.04275
3735.80133	0.04241
3733.87267	0.04172
3731.94402	0.04106
3730.01537	0.04089
3728.08671	0.04116
3726.15806	0.04177
3724.22941	0.04217
3722.30075	0.04192
3720.37210	0.04168
3718.44345	0.04170
3716.51479	0.04180
3714.58614	0.04155
3712.65749	0.04085
3710.72883	0.04067
3708.80018	0.04118
3706.87153	0.04159
3704.94287	0.04167
3703.01422	0.04145
3701.08557	0.04094
3699.15691	0.04034
3697.22826	0.03996
3695.29961	0.04010
3693.37095	0.04062
3691.44230	0.04081
3689.51365	0.04004
3687.58500	0.03927
3685.65634	0.03944
3683.72769	0.04007
3681.79904	0.04081
3679.87038	0.04129
3677.94173	0.04077
3676.01308	0.03929
3674.08442	0.03848
3672.15577	0.03842
3670.22712	0.03886
3668.29846	0.03999
3666.36981	0.04050
3664.44116	0.04016
3662.51250	0.04021
3660.58385	0.04086
3658.65520	0.04110
3656.72654	0.04074
3654.79789	0.04046
3652.86924	0.04015
3650.94058	0.03985
3649.01193	0.04017
3647.08328	0.04102
3645.15462	0.04185
3643.22597	0.04227
3641.29732	0.04233
3639.36866	0.04250
3637.44001	0.04285
3635.51136	0.04313
3633.58270	0.04325
3631.65405	0.04281
3629.72540	0.04171
3627.79674	0.04157
3625.86809	0.04258
3623.93944	0.04370
3622.01079	0.04465
3620.08213	0.04532
3618.15348	0.04568
3616.22483	0.04594
3614.29617	0.04614
3612.36752	0.04625
3610.43887	0.04620
3608.51021	0.04612
3606.58156	0.04616
3604.65291	0.04614
3602.72425	0.04624
3600.79560	0.04671
3598.86695	0.04724
3596.93829	0.04722
3595.00964	0.04698
3593.08099	0.04753
3591.15233	0.04869
3589.22368	0.04922
3587.29503	0.04903
3585.36637	0.04906
3583.43772	0.04958
3581.50907	0.05027
3579.58041	0.05090
3577.65176	0.05147
3575.72311	0.05182
3573.79445	0.05185
3571.86580	0.05195
3569.93715	0.05238
3568.00849	0.05290
3566.07984	0.05331
3564.15119	0.05361
3562.22253	0.05390
3560.29388	0.05438
3558.36523	0.05520
3556.43657	0.05602
3554.50792	0.05639
3552.57927	0.05641
3550.65062	0.05647
3548.72196	0.05673
3546.79331	0.05720
3544.86466	0.05788
3542.93600	0.05869
3541.00735	0.05927
3539.07870	0.05936
3537.15004	0.05923
3535.22139	0.05927
3533.29274	0.05965
3531.36408	0.06039
3529.43543	0.06116
3527.50678	0.06176
3525.57812	0.06237
3523.64947	0.06281
3521.72082	0.06271
3519.79216	0.06248
3517.86351	0.06291
3515.93486	0.06382
3514.00620	0.06444
3512.07755	0.06474
3510.14890	0.06513
3508.22024	0.06562
3506.29159	0.06615
3504.36294	0.06666
3502.43428	0.06695
3500.50563	0.06708
3498.57698	0.06731
3496.64832	0.06766
3494.71967	0.06813
3492.79102	0.06893
3490.86236	0.06971
3488.93371	0.06991
3487.00506	0.06973
3485.07641	0.06983
3483.14775	0.07020
3481.21910	0.07038
3479.29045	0.07041
3477.36179	0.07067
3475.43314	0.07108
3473.50449	0.07137
3471.57583	0.07156
3469.64718	0.07187
3467.71853	0.07241
3465.78987	0.07311
3463.86122	0.07360
3461.93257	0.07361
3460.00391	0.07348
3458.07526	0.07362
3456.14661	0.07386
3454.21795	0.07400
3452.28930	0.07427
3450.36065	0.07487
3448.43199	0.07558
3446.50334	0.07610
3444.57469	0.07625
3442.64603	0.07615
3440.71738	0.07606
3438.78873	0.07602
3436.86007	0.07603
3434.93142	0.07618
3433.00277	0.07670
3431.07411	0.07761
3429.14546	0.07829
3427.21681	0.07840
3425.28815	0.07850
3423.35950	0.07881
3421.43085	0.07898
3419.50219	0.07913
3417.57354	0.07959
3415.64489	0.08038
3413.71624	0.08118
3411.78758	0.08162
3409.85893	0.08182
3407.93028	0.08197
3406.00162	0.08186
3404.07297	0.08163
3402.14432	0.08173
3400.21566	0.08214
3398.28701	0.08248
3396.35836	0.08274
3394.42970	0.08318
3392.50105	0.08367
3390.57240	0.08396
3388.64374	0.08415
3386.71509	0.08441
3384.78644	0.08457
3382.85778	0.08458
3380.92913	0.08461
3379.00048	0.08474
3377.07182	0.08495
3375.14317	0.08536
3373.21452	0.08598
3371.28586	0.08677
3369.35721	0.08763
3367.42856	0.08840
3365.49990	0.08895
3363.57125	0.08928
3361.64260	0.08959
3359.71394	0.09012
3357.78529	0.09083
3355.85664	0.09157
3353.92798	0.09231
3351.99933	0.09316
3350.07068	0.09417
3348.14202	0.09493
3346.21337	0.09514
3344.28472	0.09524
3342.35607	0.09597
3340.42741	0.09724
3338.49876	0.09824
3336.57011	0.09870
3334.64145	0.09907
3332.71280	0.09965
3330.78415	0.10035
3328.85549	0.10099
3326.92684	0.10153
3324.99819	0.10192
3323.06953	0.10221
3321.14088	0.10261
3319.21223	0.10290
3317.28357	0.10282
3315.35492	0.10279
3313.42627	0.10314
3311.49761	0.10356
3309.56896	0.10383
3307.64031	0.10402
3305.71165	0.10420
3303.78300	0.10440
3301.85435	0.10473
3299.92569	0.10515
3297.99704	0.10533
3296.06839	0.10516
3294.13973	0.10487
3292.21108	0.10461
3290.28243	0.10435
3288.35377	0.10421
3286.42512	0.10412
3284.49647	0.10391
3282.56781	0.10384
3280.63916	0.10407
3278.71051	0.10409
3276.78186	0.10371
3274.85320	0.10322
3272.92455	0.10272
3270.99590	0.10215
3269.06724	0.10164
3267.13859	0.10143
3265.20994	0.10144
3263.28128	0.10128
3261.35263	0.10081
3259.42398	0.10035
3257.49532	0.09989
3255.56667	0.09939
3253.63802	0.09906
3251.70936	0.09884
3249.78071	0.09844
3247.85206	0.09791
3245.92340	0.09767
3243.99475	0.09769
3242.06610	0.09762
3240.13744	0.09752
3238.20879	0.09746
3236.28014	0.09702
3234.35148	0.09614
3232.42283	0.09539
3230.49418	0.09503
3228.56552	0.09494
3226.63687	0.09499
3224.70822	0.09484
3222.77956	0.09448
3220.85091	0.09417
3218.92226	0.09386
3216.99360	0.09345
3215.06495	0.09302
3213.13630	0.09272
3211.20764	0.09254
3209.27899	0.09227
3207.35034	0.09194
3205.42169	0.09175
3203.49303	0.09172
3201.56438	0.09177
3199.63573	0.09160
3197.70707	0.09103
3195.77842	0.09017
3193.84977	0.08931
3191.92111	0.08875
3189.99246	0.08869
3188.06381	0.08899
3186.13515	0.08902
3184.20650	0.08836
3182.27785	0.08743
3180.34919	0.08685
3178.42054	0.08645
3176.49189	0.08591
3174.56323	0.08549
3172.63458	0.08529
3170.70593	0.08480
3168.77727	0.08402
3166.84862	0.08339
3164.91997	0.08277
3162.99131	0.08194
3161.06266	0.08124
3159.13401	0.08096
3157.20535	0.08070
3155.27670	0.08011
3153.34805	0.07949
3151.41939	0.07913
3149.49074	0.07878
3147.56209	0.07819
3145.63343	0.07763
3143.70478	0.07736
3141.77613	0.07727
3139.84748	0.07707
3137.91882	0.07671
3135.99017	0.07634
3134.06152	0.07585
3132.13286	0.07521
3130.20421	0.07474
3128.27556	0.07452
3126.34690	0.07436
3124.41825	0.07418
3122.48960	0.07385
3120.56094	0.07344
3118.63229	0.07339
3116.70364	0.07345
3114.77498	0.07308
3112.84633	0.07265
3110.91768	0.07279
3108.98902	0.07320
3107.06037	0.07333
3105.13172	0.07335
3103.20306	0.07344
3101.27441	0.07330
3099.34576	0.07298
3097.41710	0.07283
3095.48845	0.07284
3093.55980	0.07297
3091.63114	0.07335
3089.70249	0.07376
3087.77384	0.07389
3085.84518	0.07391
3083.91653	0.07411
3081.98788	0.07451
3080.05922	0.07490
3078.13057	0.07510
3076.20192	0.07510
3074.27326	0.07505
3072.34461	0.07502
3070.41596	0.07494
3068.48731	0.07465
3066.55865	0.07418
3064.63000	0.07375
3062.70135	0.07344
3060.77269	0.07329
3058.84404	0.07328
3056.91539	0.07317
3054.98673	0.07287
3053.05808	0.07256
3051.12943	0.07228
3049.20077	0.07193
3047.27212	0.07151
3045.34347	0.07104
3043.41481	0.07061
3041.48616	0.07022
3039.55751	0.06967
3037.62885	0.06896
3035.70020	0.06835
3033.77155	0.06801
3031.84289	0.06783
3029.91424	0.06765
3027.98559	0.06742
3026.05693	0.06709
3024.12828	0.06659
3022.19963	0.06602
3020.27097	0.06545
3018.34232	0.06484
3016.41367	0.06430
3014.48501	0.06401
3012.55636	0.06401
3010.62771	0.06410
3008.69905	0.06409
3006.77040	0.06399
3004.84175	0.06384
3002.91309	0.06366
3000.98444	0.06357
2999.05579	0.06361
2997.12714	0.06376
2995.19848	0.06398
2993.26983	0.06419
2991.34118	0.06431
2989.41252	0.06452
2987.48387	0.06485
2985.55522	0.06522
2983.62656	0.06571
2981.69791	0.06632
2979.76926	0.06686
2977.84060	0.06713
2975.91195	0.06713
2973.98330	0.06720
2972.05464	0.06749
2970.12599	0.06771
2968.19734	0.06773
2966.26868	0.06778
2964.34003	0.06791
2962.41138	0.06817
2960.48272	0.06854
2958.55407	0.06881
2956.62542	0.06889
2954.69676	0.06878
2952.76811	0.06860
2950.83946	0.06864
2948.91080	0.06883
2946.98215	0.06897
2945.05350	0.06903
2943.12484	0.06910
2941.19619	0.06937
2939.26754	0.06979
2937.33888	0.06988
2935.41023	0.06960
2933.48158	0.06938
2931.55293	0.06930
2929.62427	0.06922
2927.69562	0.06911
2925.76697	0.06892
2923.83831	0.06870
2921.90966	0.06845
2919.98101	0.06808
2918.05235	0.06773
2916.12370	0.06736
2914.19505	0.06665
2912.26639	0.06585
2910.33774	0.06527
2908.40909	0.06481
2906.48043	0.06447
2904.55178	0.06415
2902.62313	0.06369
2900.69447	0.06327
2898.76582	0.06304
2896.83717	0.06295
2894.90851	0.06280
2892.97986	0.06243
2891.05121	0.06204
2889.12255	0.06192
2887.19390	0.06207
2885.26525	0.06230
2883.33659	0.06243
2881.40794	0.06241
2879.47929	0.06233
2877.55063	0.06230
2875.62198	0.06216
2873.69333	0.06183
2871.76467	0.06150
2869.83602	0.06134
2867.90737	0.06118
2865.97871	0.06072
2864.05006	0.05999
2862.12141	0.05934
2860.19276	0.05894
2858.26410	0.05867
2856.33545	0.05845
2854.40680	0.05831
2852.47814	0.05826
2850.54949	0.05810
2848.62084	0.05767
2846.69218	0.05724
2844.76353	0.05697
2842.83488	0.05669
2840.90622	0.05632
2838.97757	0.05588
2837.04892	0.05547
2835.12026	0.05526
2833.19161	0.05516
2831.26296	0.05491
2829.33430	0.05454
2827.40565	0.05419
2825.47700	0.05395
2823.54834	0.05374
2821.61969	0.05342
2819.69104	0.05313
2817.76238	0.05315
2815.83373	0.05332
2813.90508	0.05334
2811.97642	0.05319
2810.04777	0.05288
2808.11912	0.05242
2806.19046	0.05216
2804.26181	0.05227
2802.33316	0.05237
2800.40450	0.05230
2798.47585	0.05221
2796.54720	0.05207
2794.61855	0.05176
2792.68989	0.05143
2790.76124	0.05125
2788.83259	0.05113
2786.90393	0.05098
2784.97528	0.05077
2783.04663	0.05049
2781.11797	0.05016
2779.18932	0.04985
2777.26067	0.04972
2775.33201	0.04989
2773.40336	0.05012
2771.47471	0.05003
2769.54605	0.04963
2767.61740	0.04917
2765.68875	0.04882
2763.76009	0.04868
2761.83144	0.04869
2759.90279	0.04876
2757.97413	0.04867
2756.04548	0.04836
2754.11683	0.04819
2752.18817	0.04833
2750.25952	0.04838
2748.33087	0.04811
2746.40221	0.04785
2744.47356	0.04782
2742.54491	0.04775
2740.61625	0.04748
2738.68760	0.04724
2736.75895	0.04717
2734.83029	0.04709
2732.90164	0.04695
2730.97299	0.04691
2729.04433	0.04686
2727.11568	0.04671
2725.18703	0.04662
2723.25838	0.04666
2721.32972	0.04667
2719.40107	0.04652
2717.47242	0.04611
2715.54376	0.04571
2713.61511	0.04561
2711.68646	0.04562
2709.75780	0.04561
2707.82915	0.04569
2705.90050	0.04566
2703.97184	0.04536
2702.04319	0.04513
2700.11454	0.04519
2698.18588	0.04529
2696.25723	0.04518
2694.32858	0.04489
2692.39992	0.04462
2690.47127	0.04454
2688.54262	0.04454
2686.61396	0.04449
2684.68531	0.04437
2682.75666	0.04414
2680.82800	0.04389
2678.89935	0.04379
2676.97070	0.04379
2675.04204	0.04384
2673.11339	0.04395
2671.18474	0.04398
2669.25608	0.04377
2667.32743	0.04350
2665.39878	0.04344
2663.47012	0.04353
2661.54147	0.04347
2659.61282	0.04316
2657.68417	0.04279
2655.75551	0.04247
2653.82686	0.04223
2651.89821	0.04214
2649.96955	0.04211
2648.04090	0.04198
2646.11225	0.04178
2644.18359	0.04147
2642.25494	0.04104
2640.32629	0.04080
2638.39763	0.04081
2636.46898	0.04075
2634.54033	0.04045
2632.61167	0.04002
2630.68302	0.03967
2628.75437	0.03949
2626.82571	0.03939
2624.89706	0.03933
2622.96841	0.03924
2621.03975	0.03893
2619.11110	0.03849
2617.18245	0.03824
2615.25379	0.03818
2613.32514	0.03795
2611.39649	0.03756
2609.46783	0.03728
2607.53918	0.03719
2605.61053	0.03717
2603.68187	0.03711
2601.75322	0.03712
2599.82457	0.03720
2597.89591	0.03697
2595.96726	0.03654
2594.03861	0.03643
2592.10995	0.03659
2590.18130	0.03648
2588.25265	0.03591
2586.32400	0.03533
2584.39534	0.03510
2582.46669	0.03508
2580.53804	0.03506
2578.60938	0.03501
2576.68073	0.03494
2574.75208	0.03487
2572.82342	0.03489
2570.89477	0.03487
2568.96612	0.03462
2567.03746	0.03427
2565.10881	0.03405
2563.18016	0.03397
2561.25150	0.03394
2559.32285	0.03391
2557.39420	0.03383
2555.46554	0.03387
2553.53689	0.03396
2551.60824	0.03385
2549.67958	0.03376
2547.75093	0.03382
2545.82228	0.03377
2543.89362	0.03352
2541.96497	0.03321
2540.03632	0.03315
2538.10766	0.03329
2536.17901	0.03315
2534.25036	0.03272
2532.32170	0.03246
2530.39305	0.03249
2528.46440	0.03253
2526.53574	0.03250
2524.60709	0.03235
2522.67844	0.03209
2520.74978	0.03180
2518.82113	0.03156
2516.89248	0.03140
2514.96383	0.03127
2513.03517	0.03134
2511.10652	0.03159
2509.17787	0.03160
2507.24921	0.03137
2505.32056	0.03125
2503.39191	0.03129
2501.46325	0.03130
2499.53460	0.03117
2497.60595	0.03098
2495.67729	0.03099
2493.74864	0.03140
2491.81999	0.03175
2489.89133	0.03156
2487.96268	0.03117
2486.03403	0.03109
2484.10537	0.03120
2482.17672	0.03119
2480.24807	0.03101
2478.31941	0.03068
2476.39076	0.03040
2474.46211	0.03029
2472.53345	0.03024
2470.60480	0.03038
2468.67615	0.03064
2466.74749	0.03054
2464.81884	0.03018
2462.89019	0.03003
2460.96153	0.03000
2459.03288	0.02973
2457.10423	0.02943
2455.17557	0.02932
2453.24692	0.02931
2451.31827	0.02938
2449.38962	0.02945
2447.46096	0.02935
2445.53231	0.02926
2443.60366	0.02934
2441.67500	0.02947
2439.74635	0.02970
2437.81770	0.02984
2435.88904	0.02958
2433.96039	0.02926
2432.03174	0.02915
2430.10308	0.02904
2428.17443	0.02880
2426.24578	0.02856
2424.31712	0.02855
2422.38847	0.02878
2420.45982	0.02891
2418.53116	0.02905
2416.60251	0.02942
2414.67386	0.02957
2412.74520	0.02931
2410.81655	0.02919
2408.88790	0.02928
2406.95924	0.02922
2405.03059	0.02900
2403.10194	0.02893
2401.17328	0.02918
2399.24463	0.02937
2397.31598	0.02914
2395.38732	0.02900
2393.45867	0.02910
2391.53002	0.02917
2389.60136	0.02918
2387.67271	0.02923
2385.74406	0.02927
2383.81540	0.02933
2381.88675	0.02946
2379.95810	0.02965
2378.02945	0.02989
2376.10079	0.02995
2374.17214	0.02978
2372.24349	0.02966
2370.31483	0.02998
2368.38618	0.02976
2366.45753	0.03000
2364.52887	0.02998
2362.60022	0.03010
2360.67157	0.02986
2358.74291	0.03057
2356.81426	0.03023
2354.88561	0.03035
2352.95695	0.03048
2351.02830	0.03016
2349.09965	0.03022
2347.17099	0.03036
2345.24234	0.03047
2343.31369	0.03027
2341.38503	0.03027
2339.45638	0.03066
2337.52773	0.03045
2335.59907	0.03008
2333.67042	0.03016
2331.74177	0.03012
2329.81311	0.02987
2327.88446	0.02970
2325.95581	0.02969
2324.02715	0.02971
2322.09850	0.02964
2320.16985	0.02939
2318.24119	0.02904
2316.31254	0.02871
2314.38389	0.02853
2312.45524	0.02867
2310.52658	0.02892
2308.59793	0.02869
2306.66928	0.02803
2304.74062	0.02751
2302.81197	0.02724
2300.88332	0.02710
2298.95466	0.02694
2297.02601	0.02664
2295.09736	0.02615
2293.16870	0.02560
2291.24005	0.02524
2289.31140	0.02512
2287.38274	0.02492
2285.45409	0.02449
2283.52544	0.02423
2281.59678	0.02436
2279.66813	0.02429
2277.73948	0.02378
2275.81082	0.02332
2273.88217	0.02311
2271.95352	0.02293
2270.02486	0.02279
2268.09621	0.02277
2266.16756	0.02285
2264.23890	0.02300
2262.31025	0.02312
2260.38160	0.02313
2258.45294	0.02311
2256.52429	0.02308
2254.59564	0.02285
2252.66698	0.02225
2250.73833	0.02156
2248.80968	0.02145
2246.88102	0.02145
2244.95237	0.02105
2243.02372	0.02045
2241.09507	0.02016
2239.16641	0.01995
2237.23776	0.01939
2235.30911	0.01891
2233.38045	0.01898
2231.45180	0.01945
2229.52315	0.01987
2227.59449	0.01983
2225.66584	0.01957
2223.73719	0.01963
2221.80853	0.01960
2219.87988	0.01902
2217.95123	0.01860
2216.02257	0.01848
2214.09392	0.01806
2212.16527	0.01755
2210.23661	0.01708
2208.30796	0.01678
2206.37931	0.01681
2204.45065	0.01645
2202.52200	0.01591
2200.59335	0.01613
2198.66469	0.01634
2196.73604	0.01573
2194.80739	0.01491
2192.87873	0.01482
2190.95008	0.01554
2189.02143	0.01609
2187.09277	0.01579
2185.16412	0.01505
2183.23547	0.01425
2181.30681	0.01362
2179.37816	0.01356
2177.44951	0.01379
2175.52085	0.01317
2173.59220	0.01189
2171.66355	0.01135
2169.73490	0.01158
2167.80624	0.01178
2165.87759	0.01124
2163.94894	0.00968
2162.02028	0.00821
2160.09163	0.00760
2158.16298	0.00740
2156.23432	0.00827
2154.30567	0.01028
2152.37702	0.01180
2150.44836	0.01255
2148.51971	0.01332
2146.59106	0.01397
2144.66240	0.01455
2142.73375	0.01531
2140.80510	0.01599
2138.87644	0.01673
2136.94779	0.01749
2135.01914	0.01764
2133.09048	0.01714
2131.16183	0.01683
2129.23318	0.01715
2127.30452	0.01776
2125.37587	0.01827
2123.44722	0.01863
2121.51856	0.01878
2119.58991	0.01885
2117.66126	0.01893
2115.73260	0.01887
2113.80395	0.01896
2111.87530	0.01910
2109.94664	0.01874
2108.01799	0.01826
2106.08934	0.01800
2104.16069	0.01765
2102.23203	0.01724
2100.30338	0.01707
2098.37473	0.01694
2096.44607	0.01752
2094.51742	0.01848
2092.58877	0.01894
2090.66011	0.01867
2088.73146	0.01817
2086.80281	0.01774
2084.87415	0.01756
2082.94550	0.01736
2081.01685	0.01689
2079.08819	0.01628
2077.15954	0.01593
2075.23089	0.01580
2073.30223	0.01538
2071.37358	0.01465
2069.44493	0.01410
2067.51627	0.01395
2065.58762	0.01388
2063.65897	0.01372
2061.73031	0.01396
2059.80166	0.01475
2057.87301	0.01527
2055.94435	0.01528
2054.01570	0.01552
2052.08705	0.01575
2050.15839	0.01474
2048.22974	0.01267
2046.30109	0.01094
2044.37243	0.01004
2042.44378	0.00966
2040.51513	0.00971
2038.58647	0.00976
2036.65782	0.00940
2034.72917	0.00906
2032.80052	0.00895
2030.87186	0.00861
2028.94321	0.00809
2027.01456	0.00814
2025.08590	0.00880
2023.15725	0.00895
2021.22860	0.00858
2019.29994	0.00867
2017.37129	0.00904
2015.44264	0.00943
2013.51398	0.00992
2011.58533	0.00990
2009.65668	0.00891
2007.72802	0.00779
2005.79937	0.00759
2003.87072	0.00856
2001.94206	0.01046
2000.01341	0.01235
1998.08476	0.01314
1996.15610	0.01283
1994.22745	0.01228
1992.29880	0.01234
1990.37014	0.01290
1988.44149	0.01320
1986.51284	0.01315
1984.58418	0.01299
1982.65553	0.01242
1980.72688	0.01099
1978.79822	0.00891
1976.86957	0.00703
1974.94092	0.00633
1973.01226	0.00700
1971.08361	0.00812
1969.15496	0.00865
1967.22631	0.00868
1965.29765	0.00917
1963.36900	0.01029
1961.44035	0.01137
1959.51169	0.01196
1957.58304	0.01217
1955.65439	0.01235
1953.72573	0.01249
1951.79708	0.01248
1949.86843	0.01230
1947.93977	0.01211
1946.01112	0.01220
1944.08247	0.01255
1942.15381	0.01274
1940.22516	0.01270
1938.29651	0.01276
1936.36785	0.01318
1934.43920	0.01380
1932.51055	0.01423
1930.58189	0.01425
1928.65324	0.01408
1926.72459	0.01393
1924.79593	0.01388
1922.86728	0.01426
1920.93863	0.01500
1919.00997	0.01540
1917.08132	0.01531
1915.15267	0.01515
1913.22401	0.01507
1911.29536	0.01485
1909.36671	0.01441
1907.43805	0.01432
1905.50940	0.01465
1903.58075	0.01476
1901.65209	0.01473
1899.72344	0.01498
1897.79479	0.01528
1895.86614	0.01545
1893.93748	0.01549
1892.00883	0.01533
1890.08018	0.01529
1888.15152	0.01550
1886.22287	0.01549
1884.29422	0.01513
1882.36556	0.01486
1880.43691	0.01494
1878.50826	0.01503
1876.57960	0.01491
1874.65095	0.01483
1872.72230	0.01496
1870.79364	0.01508
1868.86499	0.01504
1866.93634	0.01505
1865.00768	0.01514
1863.07903	0.01520
1861.15038	0.01524
1859.22172	0.01532
1857.29307	0.01547
1855.36442	0.01559
1853.43576	0.01545
1851.50711	0.01509
1849.57846	0.01481
1847.64980	0.01477
1845.72115	0.01481
1843.79250	0.01503
1841.86384	0.01538
1839.93519	0.01536
1838.00654	0.01508
1836.07788	0.01500
1834.14923	0.01509
1832.22058	0.01508
1830.29192	0.01493
1828.36327	0.01485
1826.43462	0.01478
1824.50597	0.01452
1822.57731	0.01416
1820.64866	0.01384
1818.72001	0.01379
1816.79135	0.01425
1814.86270	0.01499
1812.93405	0.01545
1811.00539	0.01548
1809.07674	0.01531
1807.14809	0.01515
1805.21943	0.01507
1803.29078	0.01500
1801.36213	0.01487
1799.43347	0.01473
1797.50482	0.01469
1795.57617	0.01480
1793.64751	0.01482
1791.71886	0.01480
1789.79021	0.01494
1787.86155	0.01497
1785.93290	0.01479
1784.00425	0.01466
1782.07559	0.01464
1780.14694	0.01457
1778.21829	0.01447
1776.28963	0.01440
1774.36098	0.01433
1772.43233	0.01435
1770.50367	0.01451
1768.57502	0.01452
1766.64637	0.01448
1764.71771	0.01454
1762.78906	0.01453
1760.86041	0.01453
1758.93176	0.01457
1757.00310	0.01464
1755.07445	0.01486
1753.14580	0.01494
1751.21714	0.01486
1749.28849	0.01503
1747.35984	0.01539
1745.43118	0.01568
1743.50253	0.01589
1741.57388	0.01609
1739.64522	0.01635
1737.71657	0.01678
1735.78792	0.01703
1733.85926	0.01720
1731.93061	0.01761
1730.00196	0.01797
1728.07330	0.01830
1726.14465	0.01869
1724.21600	0.01906
1722.28734	0.01949
1720.35869	0.01988
1718.43004	0.02009
1716.50138	0.02051
1714.57273	0.02126
1712.64408	0.02214
1710.71542	0.02309
1708.78677	0.02418
1706.85812	0.02557
1704.92946	0.02744
1703.00081	0.02956
1701.07216	0.03172
1699.14350	0.03444
1697.21485	0.03728
1695.28620	0.04003
1693.35754	0.04311
1691.42889	0.04614
1689.50024	0.04922
1687.57159	0.05233
1685.64293	0.05520
1683.71428	0.05844
1681.78563	0.06236
1679.85697	0.06652
1677.92832	0.07087
1675.99967	0.07529
1674.07101	0.07990
1672.14236	0.08464
1670.21371	0.08939
1668.28505	0.09425
1666.35640	0.09909
1664.42775	0.10366
1662.49909	0.10803
1660.57044	0.11216
1658.64179	0.11588
1656.71313	0.11906
1654.78448	0.12137
1652.85583	0.12334
1650.92717	0.12561
1648.99852	0.12743
1647.06987	0.12873
1645.14121	0.13015
1643.21256	0.13161
1641.28391	0.13276
1639.35525	0.13365
1637.42660	0.13423
1635.49795	0.13461
1633.56929	0.13491
1631.64064	0.13470
1629.71199	0.13376
1627.78333	0.13204
1625.85468	0.12936
1623.92603	0.12571
1621.99738	0.12151
1620.06872	0.11696
1618.14007	0.11193
1616.21142	0.10694
1614.28276	0.10241
1612.35411	0.09796
1610.42546	0.09350
1608.49680	0.08924
1606.56815	0.08533
1604.63950	0.08175
1602.71084	0.07849
1600.78219	0.07563
1598.85354	0.07313
1596.92488	0.07091
1594.99623	0.06899
1593.06758	0.06748
1591.13892	0.06639
1589.21027	0.06557
1587.28162	0.06499
1585.35296	0.06477
1583.42431	0.06492
1581.49566	0.06545
1579.56700	0.06631
1577.63835	0.06724
1575.70970	0.06854
1573.78104	0.07060
1571.85239	0.07292
1569.92374	0.07540
1567.99508	0.07819
1566.06643	0.08114
1564.13778	0.08428
1562.20912	0.08735
1560.28047	0.08994
1558.35182	0.09261
1556.42316	0.09551
1554.49451	0.09797
1552.56586	0.09997
1550.63721	0.10157
1548.70855	0.10290
1546.77990	0.10398
1544.85125	0.10470
1542.92259	0.10497
1540.99394	0.10471
1539.06529	0.10438
1537.13663	0.10427
1535.20798	0.10383
1533.27933	0.10302
1531.35067	0.10214
1529.42202	0.10110
1527.49337	0.09989
1525.56471	0.09864
1523.63606	0.09724
1521.70741	0.09562
1519.77875	0.09414
1517.85010	0.09265
1515.92145	0.09093
1513.99279	0.08895
1512.06414	0.08665
1510.13549	0.08411
1508.20683	0.08112
1506.27818	0.07799
1504.34953	0.07533
1502.42087	0.07281
1500.49222	0.07015
1498.56357	0.06744
1496.63491	0.06476
1494.70626	0.06232
1492.77761	0.06007
1490.84895	0.05797
1488.92030	0.05619
1486.99165	0.05476
1485.06299	0.05366
1483.13434	0.05291
1481.20569	0.05257
1479.27704	0.05267
1477.34838	0.05314
1475.41973	0.05392
1473.49108	0.05492
1471.56242	0.05622
1469.63377	0.05779
1467.70512	0.05938
1465.77646	0.06090
1463.84781	0.06250
1461.91916	0.06423
1459.99050	0.06592
1458.06185	0.06732
1456.13320	0.06863
1454.20454	0.06986
1452.27589	0.07057
1450.34724	0.07073
1448.41858	0.07046
1446.48993	0.06991
1444.56128	0.06921
1442.63262	0.06845
1440.70397	0.06765
1438.77532	0.06656
1436.84666	0.06507
1434.91801	0.06353
1432.98936	0.06199
1431.06070	0.06057
1429.13205	0.05959
1427.20340	0.05905
1425.27474	0.05873
1423.34609	0.05850
1421.41744	0.05827
1419.48878	0.05800
1417.56013	0.05797
1415.63148	0.05816
1413.70283	0.05844
1411.77417	0.05877
1409.84552	0.05914
1407.91687	0.05959
1405.98821	0.06006
1404.05956	0.06048
1402.13091	0.06068
1400.20225	0.06063
1398.27360	0.06048
1396.34495	0.06025
1394.41629	0.05992
1392.48764	0.05969
1390.55899	0.05951
1388.63033	0.05926
1386.70168	0.05897
1384.77303	0.05867
1382.84437	0.05826
1380.91572	0.05782
1378.98707	0.05739
1377.05841	0.05690
1375.12976	0.05626
1373.20111	0.05555
1371.27245	0.05477
1369.34380	0.05382
1367.41515	0.05279
1365.48649	0.05184
1363.55784	0.05100
1361.62919	0.05036
1359.70053	0.04990
1357.77188	0.04959
1355.84323	0.04953
1353.91457	0.04978
1351.98592	0.05025
1350.05727	0.05090
1348.12861	0.05173
1346.19996	0.05265
1344.27131	0.05358
1342.34266	0.05448
1340.41400	0.05521
1338.48535	0.05565
1336.55670	0.05583
1334.62804	0.05574
1332.69939	0.05531
1330.77074	0.05455
1328.84208	0.05362
1326.91343	0.05270
1324.98478	0.05196
1323.05612	0.05146
1321.12747	0.05118
1319.19882	0.05100
1317.27016	0.05085
1315.34151	0.05062
1313.41286	0.05021
1311.48420	0.04969
1309.55555	0.04925
1307.62690	0.04892
1305.69824	0.04863
1303.76959	0.04840
1301.84094	0.04822
1299.91228	0.04800
1297.98363	0.04782
1296.05498	0.04786
1294.12632	0.04814
1292.19767	0.04861
1290.26902	0.04921
1288.34036	0.04992
1286.41171	0.05065
1284.48306	0.05129
1282.55440	0.05175
1280.62575	0.05204
1278.69710	0.05216
1276.76845	0.05216
1274.83979	0.05212
1272.91114	0.05217
1270.98249	0.05238
1269.05383	0.05268
1267.12518	0.05300
1265.19653	0.05336
1263.26787	0.05383
1261.33922	0.05444
1259.41057	0.05516
1257.48191	0.05593
1255.55326	0.05674
1253.62461	0.05765
1251.69595	0.05872
1249.76730	0.05988
1247.83865	0.06103
1245.90999	0.06214
1243.98134	0.06321
1242.05269	0.06421
1240.12403	0.06504
1238.19538	0.06561
1236.26673	0.06595
1234.33807	0.06600
1232.40942	0.06564
1230.48077	0.06485
1228.55211	0.06381
1226.62346	0.06255
1224.69481	0.06104
1222.76615	0.05941
1220.83750	0.05787
1218.90885	0.05653
1216.98019	0.05549
1215.05154	0.05481
1213.12289	0.05448
1211.19423	0.05445
1209.26558	0.05466
1207.33693	0.05498
1205.40828	0.05526
1203.47962	0.05532
1201.55097	0.05510
1199.62232	0.05476
1197.69366	0.05386
1195.76501	0.05279
1193.83636	0.05168
1191.90770	0.05056
1189.97905	0.04942
1188.05040	0.04835
1186.12174	0.04745
1184.19309	0.04673
1182.26444	0.04622
1180.33578	0.04594
1178.40713	0.04576
1176.47848	0.04563
1174.54982	0.04552
1172.62117	0.04539
1170.69252	0.04525
1168.76386	0.04512
1166.83521	0.04499
1164.90656	0.04491
1162.97790	0.04485
1161.04925	0.04466
1159.12060	0.04429
1157.19194	0.04385
1155.26329	0.04334
1153.33464	0.04258
1151.40598	0.04160
1149.47733	0.04063
1147.54868	0.03984
1145.62002	0.03931
1143.69137	0.03894
1141.76272	0.03860
1139.83406	0.03821
1137.90541	0.03775
1135.97676	0.03726
1134.04811	0.03692
1132.11945	0.03686
1130.19080	0.03694
1128.26215	0.03692
1126.33349	0.03675
1124.40484	0.03653
1122.47619	0.03636
1120.54753	0.03623
1118.61888	0.03611
1116.69023	0.03608
1114.76157	0.03609
1112.83292	0.03611
1110.90427	0.03628
1108.97561	0.03664
1107.04696	0.03695
1105.11831	0.03711
1103.18965	0.03731
1101.26100	0.03772
1099.33235	0.03822
1097.40369	0.03868
1095.47504	0.03911
1093.54639	0.03961
1091.61773	0.04032
1089.68908	0.04123
1087.76043	0.04216
1085.83177	0.04308
1083.90312	0.04395
1081.97447	0.04466
1080.04581	0.04512
1078.11716	0.04524
1076.18851	0.04503
1074.25985	0.04456
1072.33120	0.04400
1070.40255	0.04357
1068.47390	0.04339
1066.54524	0.04340
1064.61659	0.04347
1062.68794	0.04347
1060.75928	0.04330
1058.83063	0.04300
1056.90198	0.04262
1054.97332	0.04217
1053.04467	0.04172
1051.11602	0.04132
1049.18736	0.04089
1047.25871	0.04045
1045.33006	0.04018
1043.40140	0.04014
1041.47275	0.04015
1039.54410	0.04019
1037.61544	0.04038
1035.68679	0.04073
1033.75814	0.04112
1031.82948	0.04131
1029.90083	0.04115
1027.97218	0.04062
1026.04352	0.03981
1024.11487	0.03894
1022.18622	0.03814
1020.25756	0.03742
1018.32891	0.03687
1016.40026	0.03651
1014.47160	0.03614
1012.54295	0.03564
1010.61430	0.03508
1008.68564	0.03450
1006.75699	0.03390
1004.82834	0.03334
1002.89968	0.03288
1000.97103	0.03247
999.04238	0.03202
997.11373	0.03155
995.18507	0.03122
993.25642	0.03100
991.32777	0.03074
989.39911	0.03039
987.47046	0.03009
985.54181	0.02995
983.61315	0.02996
981.68450	0.03003
979.75585	0.03009
977.82719	0.03013
975.89854	0.03012
973.96989	0.03004
972.04123	0.02989
970.11258	0.02967
968.18393	0.02950
966.25527	0.02936
964.32662	0.02906
962.39797	0.02869
960.46931	0.02845
958.54066	0.02838
956.61201	0.02836
954.68335	0.02828
952.75470	0.02811
950.82605	0.02790
948.89739	0.02779
946.96874	0.02781
945.04009	0.02790
943.11143	0.02805
941.18278	0.02820
939.25413	0.02816
937.32547	0.02799
935.39682	0.02794
933.46817	0.02803
931.53952	0.02809
929.61086	0.02805
927.68221	0.02799
925.75356	0.02798
923.82490	0.02798
921.89625	0.02796
919.96760	0.02786
918.03894	0.02770
916.11029	0.02767
914.18164	0.02773
912.25298	0.02767
910.32433	0.02740
908.39568	0.02707
906.46702	0.02684
904.53837	0.02666
902.60972	0.02642
900.68106	0.02618
898.75241	0.02612
896.82376	0.02620
894.89510	0.02620
892.96645	0.02613
891.03780	0.02611
889.10914	0.02609
887.18049	0.02608
885.25184	0.02606
883.32318	0.02603
881.39453	0.02610
879.46588	0.02626
877.53722	0.02629
875.60857	0.02625
873.67992	0.02625
871.75126	0.02612
869.82261	0.02590
867.89396	0.02580
865.96530	0.02570
864.03665	0.02552
862.10800	0.02543
860.17935	0.02544
858.25069	0.02551
856.32204	0.02570
854.39339	0.02595
852.46473	0.02608
850.53608	0.02609
848.60743	0.02605
846.67877	0.02605
844.75012	0.02614
842.82147	0.02623
840.89281	0.02618
838.96416	0.02604
837.03551	0.02599
835.10685	0.02605
833.17820	0.02607
831.24955	0.02609
829.32089	0.02621
827.39224	0.02633
825.46359	0.02637
823.53493	0.02648
821.60628	0.02676
819.67763	0.02711
817.74897	0.02743
815.82032	0.02763
813.89167	0.02770
811.96301	0.02779
810.03436	0.02793
808.10571	0.02802
806.17705	0.02810
804.24840	0.02824
802.31975	0.02849
800.39109	0.02879
798.46244	0.02902
796.53379	0.02921
794.60513	0.02940
792.67648	0.02960
790.74783	0.02983
788.81918	0.02997
786.89052	0.03004
784.96187	0.03015
783.03322	0.03035
781.10456	0.03056
779.17591	0.03067
777.24726	0.03078
775.31860	0.03107
773.38995	0.03156
771.46130	0.03204
769.53264	0.03234
767.60399	0.03251
765.67534	0.03269
763.74668	0.03287
761.81803	0.03298
759.88938	0.03310
757.96072	0.03337
756.03207	0.03381
754.10342	0.03425
752.17476	0.03454
750.24611	0.03473
748.31746	0.03498
746.38880	0.03532
744.46015	0.03555
742.53150	0.03556
740.60284	0.03549
738.67419	0.03560
736.74554	0.03595
734.81688	0.03640
732.88823	0.03681
730.95958	0.03722
729.03092	0.03761
727.10227	0.03792
725.17362	0.03814
723.24497	0.03833
721.31631	0.03860
719.38766	0.03895
717.45901	0.03933
715.53035	0.03962
713.60170	0.03978
711.67305	0.03998
709.74439	0.04027
707.81574	0.04063
705.88709	0.04102
703.95843	0.04136
702.02978	0.04157
700.10113	0.04168
698.17247	0.04179
696.24382	0.04200
694.31517	0.04225
692.38651	0.04241
690.45786	0.04251
688.52921	0.04266
686.60055	0.04290
684.67190	0.04315
682.74325	0.04342
680.81459	0.04373
678.88594	0.04395
676.95729	0.04405
675.02863	0.04414
673.09998	0.04435
671.17133	0.04463
669.24267	0.04481
667.31402	0.04490
665.38537	0.04500
663.45671	0.04520
661.52806	0.04541
659.59941	0.04556
657.67075	0.04562
655.74210	0.04568
653.81345	0.04572
651.88480	0.04582
649.95614	0.04602
648.02749	0.04627
646.09884	0.04645
644.17018	0.04647
642.24153	0.04638
640.31288	0.04635
638.38422	0.04647
636.45557	0.04662
634.52692	0.04677
632.59826	0.04686
630.66961	0.04752
628.74096	0.05018
626.81230	0.04731
624.88365	0.04295
622.95500	0.04003
621.02634	0.03961
619.09769	0.04183
617.16904	0.04563
615.24038	0.04849
613.31173	0.04832
611.38308	0.04576
609.45442	0.04358
607.52577	0.04252
605.59712	0.04215
603.66846	0.04333
601.73981	0.04562
599.81116	0.04726
597.88250	0.04773
595.95385	0.04755
594.02520	0.04729
592.09654	0.04742
590.16789	0.04773
588.23924	0.04763
586.31059	0.04726
584.38193	0.04715
582.45328	0.04729
580.52463	0.04731
578.59597	0.04713
576.66732	0.04689
574.73867	0.04676
572.81001	0.04674
570.88136	0.04664
568.95271	0.04657
567.02405	0.04683
565.09540	0.04722
563.16675	0.04735
561.23809	0.04742
559.30944	0.04768
557.38079	0.04795
555.45213	0.04812
553.52348	0.04828
551.59483	0.04835
549.66617	0.04812
547.73752	0.04774
545.80887	0.04755
543.88021	0.04748
541.95156	0.04737
540.02291	0.04722
538.09425	0.04702
536.16560	0.04689
534.23695	0.04690
532.30829	0.04686
530.37964	0.04672
528.45099	0.04657
526.52233	0.04643
524.59368	0.04621
522.66503	0.04587
520.73637	0.04550
518.80772	0.04525
516.87907	0.04511
514.95042	0.04495
513.02176	0.04470
511.09311	0.04443
509.16446	0.04429
507.23580	0.04423
505.30715	0.04404
503.37850	0.04358
501.44984	0.04315
499.52119	0.04300
497.59254	0.04293
495.66388	0.04264
493.73523	0.04222
491.80658	0.04187
489.87792	0.04146
487.94927	0.04094
486.02062	0.04061
484.09196	0.04056
482.16331	0.04050
480.23466	0.04023
478.30600	0.03995
476.37735	0.03976
474.44870	0.03953
472.52004	0.03913
470.59139	0.03867
468.66274	0.03829
466.73408	0.03807
464.80543	0.03791
462.87678	0.03765
460.94812	0.03728
459.01947	0.03688
457.09082	0.03647
455.16216	0.03606
453.23351	0.03568
451.30486	0.03542
449.37620	0.03527
447.44755	0.03508
445.51890	0.03480
443.59025	0.03456
441.66159	0.03442
439.73294	0.03426
437.80429	0.03408
435.87563	0.03387
433.94698	0.03367
432.01833	0.03350
430.08967	0.03331
428.16102	0.03300
426.23237	0.03258
424.30371	0.03221
422.37506	0.03194
420.44641	0.03170
418.51775	0.03150
416.58910	0.03137
414.66045	0.03127
412.73179	0.03110
410.80314	0.03082
408.87449	0.03053
406.94583	0.03040
405.01718	0.03038
403.08853	0.03028
401.15987	0.03009
399.23122	0.02988
