3996.16951	0.04269
3994.24086	0.04295
3992.31221	0.04251
3990.38355	0.04172
3988.45490	0.04159
3986.52625	0.04207
3984.59759	0.04231
3982.66894	0.04193
3980.74029	0.04148
3978.81163	0.04154
3976.88298	0.04175
3974.95433	0.04143
3973.02567	0.04076
3971.09702	0.04037
3969.16837	0.04050
3967.23972	0.04081
3965.31106	0.04101
3963.38241	0.04124
3961.45376	0.04121
3959.52510	0.04059
3957.59645	0.04002
3955.66780	0.03998
3953.73914	0.04012
3951.81049	0.04015
3949.88184	0.04032
3947.95318	0.04055
3946.02453	0.04051
3944.09588	0.04046
3942.16722	0.04074
3940.23857	0.04099
3938.30992	0.04100
3936.38126	0.04099
3934.45261	0.04075
3932.52396	0.04021
3930.59530	0.04006
3928.66665	0.04032
3926.73800	0.04021
3924.80934	0.03976
3922.88069	0.03941
3920.95204	0.03913
3919.02338	0.03913
3917.09473	0.03946
3915.16608	0.03973
3913.23742	0.03974
3911.30877	0.03957
3909.38012	0.03948
3907.45146	0.03974
3905.52281	0.04023
3903.59416	0.04068
3901.66550	0.04081
3899.73685	0.04067
3897.80820	0.04059
3895.87955	0.04040
3893.95089	0.03982
3892.02224	0.03921
3890.09359	0.03919
3888.16493	0.03903
3886.23628	0.03830
3884.30763	0.03802
3882.37897	0.03807
3880.45032	0.03827
3878.52167	0.03877
3876.59301	0.03882
3874.66436	0.03864
3872.73571	0.03866
3870.80705	0.03827
3868.87840	0.03809
3866.94975	0.03836
3865.02109	0.03846
3863.09244	0.03848
3861.16379	0.03833
3859.23513	0.03811
3857.30648	0.03789
3855.37783	0.03732
3853.44917	0.03691
3851.52052	0.03719
3849.59187	0.03750
3847.66321	0.03767
3845.73456	0.03761
3843.80591	0.03727
3841.87725	0.03708
3839.94860	0.03698
3838.01995	0.03683
3836.09129	0.03701
3834.16264	0.03726
3832.23399	0.03728
3830.30534	0.03714
3828.37668	0.03690
3826.44803	0.03673
3824.51938	0.03666
3822.59072	0.03635
3820.66207	0.03629
3818.73342	0.03644
3816.80476	0.03614
3814.87611	0.03617
3812.94746	0.03660
3811.01880	0.03710
3809.09015	0.03753
3807.16150	0.03742
3805.23284	0.03722
3803.30419	0.03680
3801.37554	0.03644
3799.44688	0.03667
3797.51823	0.03634
3795.58958	0.03555
3793.66092	0.03507
3791.73227	0.03496
3789.80362	0.03510
3787.87496	0.03554
3785.94631	0.03610
3784.01766	0.03623
3782.08900	0.03569
3780.16035	0.03506
3778.23170	0.03517
3776.30304	0.03571
3774.37439	0.03596
3772.44574	0.03578
3770.51708	0.03519
3768.58843	0.03462
3766.65978	0.03427
3764.73112	0.03428
3762.80247	0.03455
3760.87382	0.03481
3758.94517	0.03504
3757.01651	0.03508
3755.08786	0.03507
3753.15921	0.03495
3751.23055	0.03478
3749.30190	0.03484
3747.37325	0.03486
3745.44459	0.03399
3743.51594	0.03372
3741.58729	0.03419
3739.65863	0.03414
3737.72998	0.03402
3735.80133	0.03419
3733.87267	0.03426
3731.94402	0.03389
3730.01537	0.03356
3728.08671	0.03340
3726.15806	0.03352
3724.22941	0.03348
3722.30075	0.03285
3720.37210	0.03240
3718.44345	0.03274
3716.51479	0.03364
3714.58614	0.03409
3712.65749	0.03355
3710.72883	0.03269
3708.80018	0.03205
3706.87153	0.03179
3704.94287	0.03204
3703.01422	0.03266
3701.08557	0.03332
3699.15691	0.03361
3697.22826	0.03342
3695.29961	0.03292
3693.37095	0.03214
3691.44230	0.03136
3689.51365	0.03115
3687.58500	0.03203
3685.65634	0.03307
3683.72769	0.03296
3681.79904	0.03259
3679.87038	0.03281
3677.94173	0.03285
3676.01308	0.03222
3674.08442	0.03194
3672.15577	0.03180
3670.22712	0.03182
3668.29846	0.03249
3666.36981	0.03306
3664.44116	0.03322
3662.51250	0.03322
3660.58385	0.03320
3658.65520	0.03331
3656.72654	0.03384
3654.79789	0.03497
3652.86924	0.03579
3650.94058	0.03570
3649.01193	0.03539
3647.08328	0.03561
3645.15462	0.03650
3643.22597	0.03722
3641.29732	0.03689
3639.36866	0.03634
3637.44001	0.03667
3635.51136	0.03726
3633.58270	0.03751
3631.65405	0.03787
3629.72540	0.03845
3627.79674	0.03925
3625.86809	0.03962
3623.93944	0.03959
3622.01079	0.04005
3620.08213	0.04057
3618.15348	0.04069
3616.22483	0.04074
3614.29617	0.04102
3612.36752	0.04140
3610.43887	0.04158
3608.51021	0.04203
3606.58156	0.04309
3604.65291	0.04390
3602.72425	0.04411
3600.79560	0.04428
3598.86695	0.04463
3596.93829	0.04507
3595.00964	0.04548
3593.08099	0.04573
3591.15233	0.04577
3589.22368	0.04573
3587.29503	0.04623
3585.36637	0.04742
3583.43772	0.04821
3581.50907	0.04830
3579.58041	0.04852
3577.65176	0.04913
3575.72311	0.04968
3573.79445	0.05021
3571.86580	0.05100
3569.93715	0.05186
3568.00849	0.05267
3566.07984	0.05358
3564.15119	0.05440
3562.22253	0.05503
3560.29388	0.05551
3558.36523	0.05582
3556.43657	0.05616
3554.50792	0.05662
3552.57927	0.05714
3550.65062	0.05764
3548.72196	0.05813
3546.79331	0.05882
3544.86466	0.05970
3542.93600	0.06050
3541.00735	0.06126
3539.07870	0.06189
3537.15004	0.06235
3535.22139	0.06277
3533.29274	0.06307
3531.36408	0.06339
3529.43543	0.06406
3527.50678	0.06477
3525.57812	0.06521
3523.64947	0.06553
3521.72082	0.06599
3519.79216	0.06657
3517.86351	0.06705
3515.93486	0.06739
3514.00620	0.06772
3512.07755	0.06812
3510.14890	0.06873
3508.22024	0.06968
3506.29159	0.07054
3504.36294	0.07093
3502.43428	0.07138
3500.50563	0.07242
3498.57698	0.07352
3496.64832	0.07393
3494.71967	0.07386
3492.79102	0.07402
3490.86236	0.07443
3488.93371	0.07467
3487.00506	0.07474
3485.07641	0.07504
3483.14775	0.07557
3481.21910	0.07601
3479.29045	0.07641
3477.36179	0.07686
3475.43314	0.07732
3473.50449	0.07792
3471.57583	0.07858
3469.64718	0.07890
3467.71853	0.07902
3465.78987	0.07940
3463.86122	0.08001
3461.93257	0.08050
3460.00391	0.08085
3458.07526	0.08118
3456.14661	0.08144
3454.21795	0.08171
3452.28930	0.08210
3450.36065	0.08249
3448.43199	0.08295
3446.50334	0.08353
3444.57469	0.08390
3442.64603	0.08400
3440.71738	0.08423
3438.78873	0.08485
3436.86007	0.08584
3434.93142	0.08688
3433.00277	0.08756
3431.07411	0.08780
3429.14546	0.08780
3427.21681	0.08784
3425.28815	0.08809
3423.35950	0.08845
3421.43085	0.08871
3419.50219	0.08882
3417.57354	0.08905
3415.64489	0.08978
3413.71624	0.09067
3411.78758	0.09112
3409.85893	0.09124
3407.93028	0.09148
3406.00162	0.09184
3404.07297	0.09213
3402.14432	0.09234
3400.21566	0.09244
3398.28701	0.09255
3396.35836	0.09288
3394.42970	0.09324
3392.50105	0.09349
3390.57240	0.09397
3388.64374	0.09454
3386.71509	0.09485
3384.78644	0.09520
3382.85778	0.09587
3380.92913	0.09661
3379.00048	0.09711
3377.07182	0.09729
3375.14317	0.09750
3373.21452	0.09796
3371.28586	0.09839
3369.35721	0.09875
3367.42856	0.09931
3365.49990	0.10021
3363.57125	0.10119
3361.64260	0.10183
3359.71394	0.10224
3357.78529	0.10291
3355.85664	0.10394
3353.92798	0.10520
3351.99933	0.10652
3350.07068	0.10759
3348.14202	0.10840
3346.21337	0.10915
3344.28472	0.10966
3342.35607	0.11007
3340.42741	0.11089
3338.49876	0.11196
3336.57011	0.11277
3334.64145	0.11331
3332.71280	0.11366
3330.78415	0.11380
3328.85549	0.11411
3326.92684	0.11482
3324.99819	0.11566
3323.06953	0.11643
3321.14088	0.11730
3319.21223	0.11797
3317.28357	0.11815
3315.35492	0.11827
3313.42627	0.11864
3311.49761	0.11910
3309.56896	0.11971
3307.64031	0.12057
3305.71165	0.12137
3303.78300	0.12177
3301.85435	0.12173
3299.92569	0.12138
3297.99704	0.12109
3296.06839	0.12114
3294.13973	0.12139
3292.21108	0.12157
3290.28243	0.12143
3288.35377	0.12112
3286.42512	0.12101
3284.49647	0.12109
3282.56781	0.12120
3280.63916	0.12115
3278.71051	0.12074
3276.78186	0.12019
3274.85320	0.11977
3272.92455	0.11936
3270.99590	0.11883
3269.06724	0.11824
3267.13859	0.11787
3265.20994	0.11771
3263.28128	0.11755
3261.35263	0.11747
3259.42398	0.11729
3257.49532	0.11661
3255.56667	0.11576
3253.63802	0.11525
3251.70936	0.11491
3249.78071	0.11425
3247.85206	0.11334
3245.92340	0.11273
3243.99475	0.11248
3242.06610	0.11224
3240.13744	0.11195
3238.20879	0.11176
3236.28014	0.11167
3234.35148	0.11150
3232.42283	0.11112
3230.49418	0.11061
3228.56552	0.11016
3226.63687	0.10997
3224.70822	0.11004
3222.77956	0.11000
3220.85091	0.10953
3218.92226	0.10883
3216.99360	0.10824
3215.06495	0.10762
3213.13630	0.10693
3211.20764	0.10662
3209.27899	0.10675
3207.35034	0.10685
3205.42169	0.10662
3203.49303	0.10597
3201.56438	0.10524
3199.63573	0.10489
3197.70707	0.10466
3195.77842	0.10414
3193.84977	0.10348
3191.92111	0.10289
3189.99246	0.10250
3188.06381	0.10225
3186.13515	0.10177
3184.20650	0.10090
3182.27785	0.10006
3180.34919	0.09963
3178.42054	0.09946
3176.49189	0.09903
3174.56323	0.09816
3172.63458	0.09722
3170.70593	0.09634
3168.77727	0.09544
3166.84862	0.09471
3164.91997	0.09438
3162.99131	0.09431
3161.06266	0.09412
3159.13401	0.09343
3157.20535	0.09237
3155.27670	0.09157
3153.34805	0.09120
3151.41939	0.09081
3149.49074	0.09005
3147.56209	0.08912
3145.63343	0.08835
3143.70478	0.08789
3141.77613	0.08762
3139.84748	0.08741
3137.91882	0.08720
3135.99017	0.08689
3134.06152	0.08643
3132.13286	0.08590
3130.20421	0.08532
3128.27556	0.08475
3126.34690	0.08429
3124.41825	0.08390
3122.48960	0.08348
3120.56094	0.08312
3118.63229	0.08288
3116.70364	0.08263
3114.77498	0.08236
3112.84633	0.08213
3110.91768	0.08204
3108.98902	0.08219
3107.06037	0.08240
3105.13172	0.08250
3103.20306	0.08267
3101.27441	0.08302
3099.34576	0.08340
3097.41710	0.08362
3095.48845	0.08375
3093.55980	0.08382
3091.63114	0.08373
3089.70249	0.08370
3087.77384	0.08403
3085.84518	0.08462
3083.91653	0.08506
3081.98788	0.08515
3080.05922	0.08515
3078.13057	0.08531
3076.20192	0.08551
3074.27326	0.08561
3072.34461	0.08562
3070.41596	0.08555
3068.48731	0.08537
3066.55865	0.08489
3064.63000	0.08421
3062.70135	0.08374
3060.77269	0.08354
3058.84404	0.08336
3056.91539	0.08307
3054.98673	0.08274
3053.05808	0.08237
3051.12943	0.08193
3049.20077	0.08142
3047.27212	0.08084
3045.34347	0.08021
3043.41481	0.07952
3041.48616	0.07884
3039.55751	0.07826
3037.62885	0.07778
3035.70020	0.07730
3033.77155	0.07661
3031.84289	0.07576
3029.91424	0.07509
3027.98559	0.07468
3026.05693	0.07435
3024.12828	0.07396
3022.19963	0.07336
3020.27097	0.07272
3018.34232	0.07241
3016.41367	0.07226
3014.48501	0.07194
3012.55636	0.07159
3010.62771	0.07125
3008.69905	0.07084
3006.77040	0.07054
3004.84175	0.07046
3002.91309	0.07052
3000.98444	0.07067
2999.05579	0.07079
2997.12714	0.07087
2995.19848	0.07105
2993.26983	0.07135
2991.34118	0.07182
2989.41252	0.07249
2987.48387	0.07298
2985.55522	0.07298
2983.62656	0.07288
2981.69791	0.07300
2979.76926	0.07330
2977.84060	0.07362
2975.91195	0.07398
2973.98330	0.07446
2972.05464	0.07483
2970.12599	0.07503
2968.19734	0.07520
2966.26868	0.07531
2964.34003	0.07545
2962.41138	0.07578
2960.48272	0.07622
2958.55407	0.07659
2956.62542	0.07676
2954.69676	0.07685
2952.76811	0.07694
2950.83946	0.07686
2948.91080	0.07664
2946.98215	0.07653
2945.05350	0.07652
2943.12484	0.07654
2941.19619	0.07667
2939.26754	0.07690
2937.33888	0.07719
2935.41023	0.07737
2933.48158	0.07750
2931.55293	0.07767
2929.62427	0.07766
2927.69562	0.07741
2925.76697	0.07715
2923.83831	0.07696
2921.90966	0.07672
2919.98101	0.07622
2918.05235	0.07539
2916.12370	0.07468
2914.19505	0.07433
2912.26639	0.07397
2910.33774	0.07330
2908.40909	0.07261
2906.48043	0.07209
2904.55178	0.07155
2902.62313	0.07087
2900.69447	0.07020
2898.76582	0.06965
2896.83717	0.06923
2894.90851	0.06895
2892.97986	0.06875
2891.05121	0.06861
2889.12255	0.06861
2887.19390	0.06870
2885.26525	0.06870
2883.33659	0.06865
2881.40794	0.06874
2879.47929	0.06885
2877.55063	0.06868
2875.62198	0.06828
2873.69333	0.06794
2871.76467	0.06774
2869.83602	0.06757
2867.90737	0.06711
2865.97871	0.06634
2864.05006	0.06566
2862.12141	0.06498
2860.19276	0.06413
2858.26410	0.06358
2856.33545	0.06350
2854.40680	0.06338
2852.47814	0.06308
2850.54949	0.06279
2848.62084	0.06255
2846.69218	0.06228
2844.76353	0.06182
2842.83488	0.06113
2840.90622	0.06054
2838.97757	0.06028
2837.04892	0.06017
2835.12026	0.05991
2833.19161	0.05944
2831.26296	0.05893
2829.33430	0.05863
2827.40565	0.05860
2825.47700	0.05856
2823.54834	0.05821
2821.61969	0.05774
2819.69104	0.05753
2817.76238	0.05745
2815.83373	0.05712
2813.90508	0.05654
2811.97642	0.05616
2810.04777	0.05622
2808.11912	0.05647
2806.19046	0.05651
2804.26181	0.05620
2802.33316	0.05583
2800.40450	0.05562
2798.47585	0.05550
2796.54720	0.05533
2794.61855	0.05503
2792.68989	0.05475
2790.76124	0.05467
2788.83259	0.05479
2786.90393	0.05489
2784.97528	0.05470
2783.04663	0.05426
2781.11797	0.05383
2779.18932	0.05366
2777.26067	0.05365
2775.33201	0.05353
2773.40336	0.05321
2771.47471	0.05281
2769.54605	0.05247
2767.61740	0.05230
2765.68875	0.05223
2763.76009	0.05210
2761.83144	0.05199
2759.90279	0.05194
2757.97413	0.05177
2756.04548	0.05144
2754.11683	0.05115
2752.18817	0.05098
2750.25952	0.05088
2748.33087	0.05086
2746.40221	0.05083
2744.47356	0.05066
2742.54491	0.05032
2740.61625	0.05001
2738.68760	0.04980
2736.75895	0.04960
2734.83029	0.04948
2732.90164	0.04945
2730.97299	0.04937
2729.04433	0.04918
2727.11568	0.04890
2725.18703	0.04874
2723.25838	0.04876
2721.32972	0.04871
2719.40107	0.04849
2717.47242	0.04823
2715.54376	0.04800
2713.61511	0.04770
2711.68646	0.04738
2709.75780	0.04725
2707.82915	0.04731
2705.90050	0.04740
2703.97184	0.04741
2702.04319	0.04730
2700.11454	0.04715
2698.18588	0.04699
2696.25723	0.04681
2694.32858	0.04668
2692.39992	0.04656
2690.47127	0.04648
2688.54262	0.04644
2686.61396	0.04638
2684.68531	0.04627
2682.75666	0.04610
2680.82800	0.04590
2678.89935	0.04574
2676.97070	0.04560
2675.04204	0.04552
2673.11339	0.04549
2671.18474	0.04556
2669.25608	0.04570
2667.32743	0.04578
2665.39878	0.04576
2663.47012	0.04559
2661.54147	0.04534
2659.61282	0.04513
2657.68417	0.04489
2655.75551	0.04459
2653.82686	0.04436
2651.89821	0.04424
2649.96955	0.04404
2648.04090	0.04372
2646.11225	0.04338
2644.18359	0.04308
2642.25494	0.04264
2640.32629	0.04213
2638.39763	0.04183
2636.46898	0.04176
2634.54033	0.04172
2632.61167	0.04165
2630.68302	0.04153
2628.75437	0.04126
2626.82571	0.04088
2624.89706	0.04061
2622.96841	0.04039
2621.03975	0.04000
2619.11110	0.03962
2617.18245	0.03966
2615.25379	0.03992
2613.32514	0.03993
2611.39649	0.03973
2609.46783	0.03948
2607.53918	0.03908
2605.61053	0.03858
2603.68187	0.03820
2601.75322	0.03795
2599.82457	0.03763
2597.89591	0.03721
2595.96726	0.03692
2594.03861	0.03683
2592.10995	0.03696
2590.18130	0.03739
2588.25265	0.03778
2586.32400	0.03753
2584.39534	0.03684
2582.46669	0.03637
2580.53804	0.03615
2578.60938	0.03606
2576.68073	0.03626
2574.75208	0.03648
2572.82342	0.03651
2570.89477	0.03648
2568.96612	0.03634
2567.03746	0.03597
2565.10881	0.03551
2563.18016	0.03518
2561.25150	0.03511
2559.32285	0.03518
2557.39420	0.03504
2555.46554	0.03461
2553.53689	0.03423
2551.60824	0.03413
2549.67958	0.03412
2547.75093	0.03400
2545.82228	0.03384
2543.89362	0.03381
2541.96497	0.03394
2540.03632	0.03414
2538.10766	0.03433
2536.17901	0.03447
2534.25036	0.03459
2532.32170	0.03454
2530.39305	0.03409
2528.46440	0.03354
2526.53574	0.03340
2524.60709	0.03354
2522.67844	0.03364
2520.74978	0.03360
2518.82113	0.03317
2516.89248	0.03250
2514.96383	0.03227
2513.03517	0.03239
2511.10652	0.03216
2509.17787	0.03157
2507.24921	0.03117
2505.32056	0.03132
2503.39191	0.03179
2501.46325	0.03200
2499.53460	0.03204
2497.60595	0.03236
2495.67729	0.03271
2493.74864	0.03258
2491.81999	0.03195
2489.89133	0.03138
2487.96268	0.03140
2486.03403	0.03166
2484.10537	0.03145
2482.17672	0.03092
2480.24807	0.03072
2478.31941	0.03096
2476.39076	0.03137
2474.46211	0.03163
2472.53345	0.03132
2470.60480	0.03081
2468.67615	0.03077
2466.74749	0.03101
2464.81884	0.03100
2462.89019	0.03069
2460.96153	0.03040
2459.03288	0.03032
2457.10423	0.03043
2455.17557	0.03051
2453.24692	0.03040
2451.31827	0.03014
2449.38962	0.02995
2447.46096	0.03007
2445.53231	0.03037
2443.60366	0.03032
2441.67500	0.03004
2439.74635	0.02975
2437.81770	0.02934
2435.88904	0.02910
2433.96039	0.02926
2432.03174	0.02936
2430.10308	0.02921
2428.17443	0.02932
2426.24578	0.02983
2424.31712	0.03013
2422.38847	0.02983
2420.45982	0.02947
2418.53116	0.02950
2416.60251	0.02965
2414.67386	0.02973
2412.74520	0.02994
2410.81655	0.03014
2408.88790	0.02995
2406.95924	0.02950
2405.03059	0.02937
2403.10194	0.02969
2401.17328	0.02989
2399.24463	0.02967
2397.31598	0.02949
2395.38732	0.02939
2393.45867	0.02925
2391.53002	0.02918
2389.60136	0.02928
2387.67271	0.02939
2385.74406	0.02929
2383.81540	0.02905
2381.88675	0.02895
2379.95810	0.02904
2378.02945	0.02928
2376.10079	0.02967
2374.17214	0.03001
2372.24349	0.03006
2370.31483	0.02988
2368.38618	0.02980
2366.45753	0.03003
2364.52887	0.03042
2362.60022	0.03064
2360.67157	0.03066
2358.74291	0.03068
2356.81426	0.03073
2354.88561	0.03054
2352.95695	0.03023
2351.02830	0.03025
2349.09965	0.03059
2347.17099	0.03074
2345.24234	0.03062
2343.31369	0.03045
2341.38503	0.03033
2339.45638	0.03031
2337.52773	0.03030
2335.59907	0.03011
2333.67042	0.02983
2331.74177	0.02961
2329.81311	0.02950
2327.88446	0.02960
2325.95581	0.02990
2324.02715	0.02998
2322.09850	0.02967
2320.16985	0.02938
2318.24119	0.02931
2316.31254	0.02914
2314.38389	0.02874
2312.45524	0.02835
2310.52658	0.02809
2308.59793	0.02787
2306.66928	0.02775
2304.74062	0.02766
2302.81197	0.02740
2300.88332	0.02714
2298.95466	0.02711
2297.02601	0.02724
2295.09736	0.02744
2293.16870	0.02759
2291.24005	0.02748
2289.31140	0.02704
2287.38274	0.02628
2285.45409	0.02539
2283.52544	0.02476
2281.59678	0.02459
2279.66813	0.02469
2277.73948	0.02487
2275.81082	0.02491
2273.88217	0.02465
2271.95352	0.02426
2270.02486	0.02408
2268.09621	0.02408
2266.16756	0.02392
2264.23890	0.02337
2262.31025	0.02246
2260.38160	0.02158
2258.45294	0.02126
2256.52429	0.02161
2254.59564	0.02201
2252.66698	0.02174
2250.73833	0.02094
2248.80968	0.02059
2246.88102	0.02062
2244.95237	0.02087
2243.02372	0.02086
2241.09507	0.02074
2239.16641	0.02083
2237.23776	0.02070
2235.30911	0.02003
2233.38045	0.01952
2231.45180	0.01961
2229.52315	0.01968
2227.59449	0.01931
2225.66584	0.01892
2223.73719	0.01881
2221.80853	0.01863
2219.87988	0.01836
2217.95123	0.01863
2216.02257	0.01940
2214.09392	0.01945
2212.16527	0.01871
2210.23661	0.01834
2208.30796	0.01813
2206.37931	0.01765
2204.45065	0.01775
2202.52200	0.01863
2200.59335	0.01914
2198.66469	0.01862
2196.73604	0.01803
2194.80739	0.01797
2192.87873	0.01775
2190.95008	0.01742
2189.02143	0.01738
2187.09277	0.01716
2185.16412	0.01630
2183.23547	0.01534
2181.30681	0.01514
2179.37816	0.01557
2177.44951	0.01595
2175.52085	0.01615
2173.59220	0.01618
2171.66355	0.01572
2169.73490	0.01508
2167.80624	0.01496
2165.87759	0.01507
2163.94894	0.01456
2162.02028	0.01323
2160.09163	0.01235
2158.16298	0.01316
2156.23432	0.01460
2154.30567	0.01504
2152.37702	0.01447
2150.44836	0.01406
2148.51971	0.01455
2146.59106	0.01547
2144.66240	0.01558
2142.73375	0.01461
2140.80510	0.01414
2138.87644	0.01495
2136.94779	0.01578
2135.01914	0.01599
2133.09048	0.01635
2131.16183	0.01711
2129.23318	0.01781
2127.30452	0.01826
2125.37587	0.01863
2123.44722	0.01886
2121.51856	0.01900
2119.58991	0.01904
2117.66126	0.01898
2115.73260	0.01922
2113.80395	0.01994
2111.87530	0.02063
2109.94664	0.02045
2108.01799	0.01941
2106.08934	0.01851
2104.16069	0.01799
2102.23203	0.01764
2100.30338	0.01772
2098.37473	0.01788
2096.44607	0.01783
2094.51742	0.01784
2092.58877	0.01791
2090.66011	0.01770
2088.73146	0.01737
2086.80281	0.01742
2084.87415	0.01783
2082.94550	0.01811
2081.01685	0.01819
2079.08819	0.01822
2077.15954	0.01801
2075.23089	0.01753
2073.30223	0.01719
2071.37358	0.01691
2069.44493	0.01625
2067.51627	0.01538
2065.58762	0.01483
2063.65897	0.01493
2061.73031	0.01552
2059.80166	0.01560
2057.87301	0.01484
2055.94435	0.01432
2054.01570	0.01479
2052.08705	0.01547
2050.15839	0.01534
2048.22974	0.01452
2046.30109	0.01366
2044.37243	0.01287
2042.44378	0.01226
2040.51513	0.01177
2038.58647	0.01141
2036.65782	0.01183
2034.72917	0.01281
2032.80052	0.01301
2030.87186	0.01237
2028.94321	0.01179
2027.01456	0.01156
2025.08590	0.01183
2023.15725	0.01240
2021.22860	0.01241
2019.29994	0.01126
2017.37129	0.00971
2015.44264	0.00946
2013.51398	0.01076
2011.58533	0.01221
2009.65668	0.01282
2007.72802	0.01283
2005.79937	0.01291
2003.87072	0.01315
2001.94206	0.01329
2000.01341	0.01336
1998.08476	0.01329
1996.15610	0.01313
1994.22745	0.01319
1992.29880	0.01339
1990.37014	0.01362
1988.44149	0.01399
1986.51284	0.01416
1984.58418	0.01376
1982.65553	0.01316
1980.72688	0.01244
1978.79822	0.01153
1976.86957	0.01108
1974.94092	0.01111
1973.01226	0.01100
1971.08361	0.01101
1969.15496	0.01138
1967.22631	0.01189
1965.29765	0.01268
1963.36900	0.01341
1961.44035	0.01336
1959.51169	0.01302
1957.58304	0.01326
1955.65439	0.01393
1953.72573	0.01455
1951.79708	0.01464
1949.86843	0.01417
1947.93977	0.01384
1946.01112	0.01393
1944.08247	0.01422
1942.15381	0.01466
1940.22516	0.01489
1938.29651	0.01440
1936.36785	0.01386
1934.43920	0.01405
1932.51055	0.01462
1930.58189	0.01499
1928.65324	0.01513
1926.72459	0.01510
1924.79593	0.01508
1922.86728	0.01532
1920.93863	0.01577
1919.00997	0.01608
1917.08132	0.01601
1915.15267	0.01555
1913.22401	0.01512
1911.29536	0.01507
1909.36671	0.01529
1907.43805	0.01551
1905.50940	0.01555
1903.58075	0.01546
1901.65209	0.01550
1899.72344	0.01569
1897.79479	0.01581
1895.86614	0.01580
1893.93748	0.01572
1892.00883	0.01558
1890.08018	0.01550
1888.15152	0.01558
1886.22287	0.01571
1884.29422	0.01583
1882.36556	0.01583
1880.43691	0.01568
1878.50826	0.01552
1876.57960	0.01535
1874.65095	0.01521
1872.72230	0.01533
1870.79364	0.01562
1868.86499	0.01574
1866.93634	0.01569
1865.00768	0.01569
1863.07903	0.01571
1861.15038	0.01550
1859.22172	0.01512
1857.29307	0.01492
1855.36442	0.01498
1853.43576	0.01513
1851.50711	0.01523
1849.57846	0.01523
1847.64980	0.01519
1845.72115	0.01510
1843.79250	0.01504
1841.86384	0.01509
1839.93519	0.01511
1838.00654	0.01516
1836.07788	0.01531
1834.14923	0.01533
1832.22058	0.01509
1830.29192	0.01484
1828.36327	0.01495
1826.43462	0.01508
1824.50597	0.01500
1822.57731	0.01490
1820.64866	0.01482
1818.72001	0.01470
1816.79135	0.01472
1814.86270	0.01497
1812.93405	0.01520
1811.00539	0.01526
1809.07674	0.01521
1807.14809	0.01510
1805.21943	0.01497
1803.29078	0.01481
1801.36213	0.01475
1799.43347	0.01486
1797.50482	0.01493
1795.57617	0.01481
1793.64751	0.01458
1791.71886	0.01446
1789.79021	0.01448
1787.86155	0.01450
1785.93290	0.01455
1784.00425	0.01462
1782.07559	0.01454
1780.14694	0.01438
1778.21829	0.01436
1776.28963	0.01438
1774.36098	0.01430
1772.43233	0.01427
1770.50367	0.01435
1768.57502	0.01429
1766.64637	0.01428
1764.71771	0.01440
1762.78906	0.01442
1760.86041	0.01448
1758.93176	0.01458
1757.00310	0.01461
1755.07445	0.01469
1753.14580	0.01466
1751.21714	0.01458
1749.28849	0.01476
1747.35984	0.01509
1745.43118	0.01537
1743.50253	0.01570
1741.57388	0.01614
1739.64522	0.01660
1737.71657	0.01703
1735.78792	0.01715
1733.85926	0.01724
1731.93061	0.01773
1730.00196	0.01814
1728.07330	0.01833
1726.14465	0.01852
1724.21600	0.01883
1722.28734	0.01934
1720.35869	0.01984
1718.43004	0.02019
1716.50138	0.02083
1714.57273	0.02186
1712.64408	0.02296
1710.71542	0.02412
1708.78677	0.02544
1706.85812	0.02698
1704.92946	0.02882
1703.00081	0.03087
1701.07216	0.03306
1699.14350	0.03581
1697.21485	0.03861
1695.28620	0.04131
1693.35754	0.04427
1691.42889	0.04701
1689.50024	0.04976
1687.57159	0.05272
1685.64293	0.05566
1683.71428	0.05898
1681.78563	0.06271
1679.85697	0.06636
1677.92832	0.07003
1675.99967	0.07380
1674.07101	0.07793
1672.14236	0.08223
1670.21371	0.08648
1668.28505	0.09091
1666.35640	0.09537
1664.42775	0.09956
1662.49909	0.10365
1660.57044	0.10763
1658.64179	0.11121
1656.71313	0.11430
1654.78448	0.11681
1652.85583	0.11926
1650.92717	0.12202
1648.99852	0.12418
1647.06987	0.12577
1645.14121	0.12750
1643.21256	0.12925
1641.28391	0.13072
1639.35525	0.13196
1637.42660	0.13308
1635.49795	0.13425
1633.56929	0.13552
1631.64064	0.13623
1629.71199	0.13614
1627.78333	0.13541
1625.85468	0.13400
1623.92603	0.13181
1621.99738	0.12911
1620.06872	0.12599
1618.14007	0.12225
1616.21142	0.11828
1614.28276	0.11446
1612.35411	0.11044
1610.42546	0.10627
1608.49680	0.10217
1606.56815	0.09831
1604.63950	0.09467
1602.71084	0.09120
1600.78219	0.08796
1598.85354	0.08502
1596.92488	0.08242
1594.99623	0.08019
1593.06758	0.07828
1591.13892	0.07658
1589.21027	0.07516
1587.28162	0.07417
1585.35296	0.07365
1583.42431	0.07356
1581.49566	0.07382
1579.56700	0.07430
1577.63835	0.07486
1575.70970	0.07588
1573.78104	0.07765
1571.85239	0.07959
1569.92374	0.08172
1567.99508	0.08425
1566.06643	0.08691
1564.13778	0.08962
1562.20912	0.09235
1560.28047	0.09491
1558.35182	0.09772
1556.42316	0.10055
1554.49451	0.10283
1552.56586	0.10478
1550.63721	0.10645
1548.70855	0.10787
1546.77990	0.10906
1544.85125	0.10999
1542.92259	0.11061
1540.99394	0.11087
1539.06529	0.11113
1537.13663	0.11146
1535.20798	0.11133
1533.27933	0.11088
1531.35067	0.11044
1529.42202	0.10979
1527.49337	0.10897
1525.56471	0.10810
1523.63606	0.10715
1521.70741	0.10605
1519.77875	0.10501
1517.85010	0.10379
1515.92145	0.10232
1513.99279	0.10061
1512.06414	0.09856
1510.13549	0.09617
1508.20683	0.09335
1506.27818	0.09043
1504.34953	0.08783
1502.42087	0.08518
1500.49222	0.08232
1498.56357	0.07939
1496.63491	0.07648
1494.70626	0.07378
1492.77761	0.07117
1490.84895	0.06857
1488.92030	0.06630
1486.99165	0.06447
1485.06299	0.06305
1483.13434	0.06203
1481.20569	0.06143
1479.27704	0.06127
1477.34838	0.06145
1475.41973	0.06189
1473.49108	0.06265
1471.56242	0.06393
1469.63377	0.06551
1467.70512	0.06697
1465.77646	0.06839
1463.84781	0.07003
1461.91916	0.07178
1459.99050	0.07344
1458.06185	0.07505
1456.13320	0.07677
1454.20454	0.07829
1452.27589	0.07913
1450.34724	0.07941
1448.41858	0.07936
1446.48993	0.07909
1444.56128	0.07850
1442.63262	0.07764
1440.70397	0.07676
1438.77532	0.07572
1436.84666	0.07435
1434.91801	0.07289
1432.98936	0.07137
1431.06070	0.06990
1429.13205	0.06877
1427.20340	0.06803
1425.27474	0.06755
1423.34609	0.06723
1421.41744	0.06689
1419.48878	0.06663
1417.56013	0.06670
1415.63148	0.06685
1413.70283	0.06694
1411.77417	0.06719
1409.84552	0.06761
1407.91687	0.06804
1405.98821	0.06838
1404.05956	0.06870
1402.13091	0.06893
1400.20225	0.06898
1398.27360	0.06893
1396.34495	0.06874
1394.41629	0.06839
1392.48764	0.06809
1390.55899	0.06788
1388.63033	0.06767
1386.70168	0.06747
1384.77303	0.06725
1382.84437	0.06693
1380.91572	0.06656
1378.98707	0.06614
1377.05841	0.06564
1375.12976	0.06501
1373.20111	0.06423
1371.27245	0.06328
1369.34380	0.06224
1367.41515	0.06120
1365.48649	0.06013
1363.55784	0.05910
1361.62919	0.05829
1359.70053	0.05775
1357.77188	0.05741
1355.84323	0.05726
1353.91457	0.05733
1351.98592	0.05766
1350.05727	0.05828
1348.12861	0.05917
1346.19996	0.06023
1344.27131	0.06125
1342.34266	0.06213
1340.41400	0.06285
1338.48535	0.06338
1336.55670	0.06359
1334.62804	0.06344
1332.69939	0.06300
1330.77074	0.06229
1328.84208	0.06139
1326.91343	0.06049
1324.98478	0.05974
1323.05612	0.05921
1321.12747	0.05889
1319.19882	0.05866
1317.27016	0.05840
1315.34151	0.05808
1313.41286	0.05765
1311.48420	0.05711
1309.55555	0.05653
1307.62690	0.05607
1305.69824	0.05579
1303.76959	0.05560
1301.84094	0.05540
1299.91228	0.05516
1297.98363	0.05501
1296.05498	0.05502
1294.12632	0.05519
1292.19767	0.05548
1290.26902	0.05591
1288.34036	0.05647
1286.41171	0.05716
1284.48306	0.05783
1282.55440	0.05836
1280.62575	0.05867
1278.69710	0.05875
1276.76845	0.05864
1274.83979	0.05850
1272.91114	0.05844
1270.98249	0.05846
1269.05383	0.05856
1267.12518	0.05885
1265.19653	0.05940
1263.26787	0.06008
1261.33922	0.06078
1259.41057	0.06155
1257.48191	0.06248
1255.55326	0.06348
1253.62461	0.06441
1251.69595	0.06535
1249.76730	0.06643
1247.83865	0.06764
1245.90999	0.06887
1243.98134	0.07010
1242.05269	0.07128
1240.12403	0.07233
1238.19538	0.07317
1236.26673	0.07371
1234.33807	0.07386
1232.40942	0.07363
1230.48077	0.07311
1228.55211	0.07233
1226.62346	0.07126
1224.69481	0.06993
1222.76615	0.06839
1220.83750	0.06684
1218.90885	0.06549
1216.98019	0.06442
1215.05154	0.06358
1213.12289	0.06303
1211.19423	0.06286
1209.26558	0.06303
1207.33693	0.06338
1205.40828	0.06372
1203.47962	0.06387
1201.55097	0.06376
1199.62232	0.06334
1197.69366	0.06252
1195.76501	0.06146
1193.83636	0.06039
1191.90770	0.05925
1189.97905	0.05803
1188.05040	0.05694
1186.12174	0.05605
1184.19309	0.05533
1182.26444	0.05474
1180.33578	0.05424
1178.40713	0.05376
1176.47848	0.05337
1174.54982	0.05316
1172.62117	0.05304
1170.69252	0.05291
1168.76386	0.05280
1166.83521	0.05273
1164.90656	0.05268
1162.97790	0.05258
1161.04925	0.05241
1159.12060	0.05219
1157.19194	0.05187
1155.26329	0.05128
1153.33464	0.05041
1151.40598	0.04940
1149.47733	0.04843
1147.54868	0.04756
1145.62002	0.04680
1143.69137	0.04620
1141.76272	0.04563
1139.83406	0.04499
1137.90541	0.04432
1135.97676	0.04374
1134.04811	0.04334
1132.11945	0.04319
1130.19080	0.04313
1128.26215	0.04303
1126.33349	0.04289
1124.40484	0.04275
1122.47619	0.04265
1120.54753	0.04253
1118.61888	0.04233
1116.69023	0.04211
1114.76157	0.04203
1112.83292	0.04215
1110.90427	0.04231
1108.97561	0.04241
1107.04696	0.04254
1105.11831	0.04277
1103.18965	0.04307
1101.26100	0.04339
1099.33235	0.04376
1097.40369	0.04423
1095.47504	0.04487
1093.54639	0.04568
1091.61773	0.04659
1089.68908	0.04759
1087.76043	0.04871
1085.83177	0.04989
1083.90312	0.05094
1081.97447	0.05174
1080.04581	0.05223
1078.11716	0.05231
1076.18851	0.05208
1074.25985	0.05172
1072.33120	0.05136
1070.40255	0.05108
1068.47390	0.05096
1066.54524	0.05097
1064.61659	0.05099
1062.68794	0.05088
1060.75928	0.05071
1058.83063	0.05049
1056.90198	0.05011
1054.97332	0.04967
1053.04467	0.04927
1051.11602	0.04883
1049.18736	0.04835
1047.25871	0.04799
1045.33006	0.04781
1043.40140	0.04770
1041.47275	0.04761
1039.54410	0.04767
1037.61544	0.04795
1035.68679	0.04841
1033.75814	0.04887
1031.82948	0.04905
1029.90083	0.04880
1027.97218	0.04814
1026.04352	0.04726
1024.11487	0.04635
1022.18622	0.04553
1020.25756	0.04479
1018.32891	0.04414
1016.40026	0.04364
1014.47160	0.04321
1012.54295	0.04266
1010.61430	0.04206
1008.68564	0.04154
1006.75699	0.04101
1004.82834	0.04034
1002.89968	0.03970
1000.97103	0.03923
999.04238	0.03881
997.11373	0.03829
995.18507	0.03775
993.25642	0.03725
991.32777	0.03679
989.39911	0.03643
987.47046	0.03610
985.54181	0.03577
983.61315	0.03553
981.68450	0.03549
979.75585	0.03559
977.82719	0.03570
975.89854	0.03584
973.96989	0.03591
972.04123	0.03575
970.11258	0.03535
968.18393	0.03487
966.25527	0.03445
964.32662	0.03413
962.39797	0.03395
960.46931	0.03376
958.54066	0.03349
956.61201	0.03324
954.68335	0.03307
952.75470	0.03292
950.82605	0.03279
948.89739	0.03266
946.96874	0.03263
945.04009	0.03273
943.11143	0.03291
941.18278	0.03307
939.25413	0.03310
937.32547	0.03302
935.39682	0.03290
933.46817	0.03275
931.53952	0.03258
929.61086	0.03254
927.68221	0.03262
925.75356	0.03268
923.82490	0.03270
921.89625	0.03270
919.96760	0.03253
918.03894	0.03216
916.11029	0.03170
914.18164	0.03136
912.25298	0.03119
910.32433	0.03104
908.39568	0.03084
906.46702	0.03074
904.53837	0.03080
902.60972	0.03083
900.68106	0.03067
898.75241	0.03052
896.82376	0.03046
894.89510	0.03025
892.96645	0.02992
891.03780	0.02971
889.10914	0.02968
887.18049	0.02978
885.25184	0.02994
883.32318	0.03005
881.39453	0.03007
879.46588	0.03001
877.53722	0.02992
875.60857	0.02988
873.67992	0.02988
871.75126	0.02991
869.82261	0.02981
867.89396	0.02946
865.96530	0.02914
864.03665	0.02916
862.10800	0.02931
860.17935	0.02921
858.25069	0.02901
856.32204	0.02906
854.39339	0.02934
852.46473	0.02954
850.53608	0.02954
848.60743	0.02945
846.67877	0.02937
844.75012	0.02930
842.82147	0.02921
840.89281	0.02907
838.96416	0.02900
837.03551	0.02902
835.10685	0.02898
833.17820	0.02880
831.24955	0.02870
829.32089	0.02878
827.39224	0.02901
825.46359	0.02927
823.53493	0.02955
821.60628	0.02980
819.67763	0.02995
817.74897	0.03011
815.82032	0.03029
813.89167	0.03044
811.96301	0.03065
810.03436	0.03102
808.10571	0.03136
806.17705	0.03145
804.24840	0.03134
802.31975	0.03129
800.39109	0.03139
798.46244	0.03161
796.53379	0.03189
794.60513	0.03212
792.67648	0.03224
790.74783	0.03233
788.81918	0.03259
786.89052	0.03306
784.96187	0.03340
783.03322	0.03348
781.10456	0.03358
779.17591	0.03384
777.24726	0.03403
775.31860	0.03413
773.38995	0.03437
771.46130	0.03466
769.53264	0.03485
767.60399	0.03501
765.67534	0.03516
763.74668	0.03522
761.81803	0.03533
759.88938	0.03558
757.96072	0.03586
756.03207	0.03609
754.10342	0.03630
752.17476	0.03655
750.24611	0.03685
748.31746	0.03716
746.38880	0.03751
744.46015	0.03780
742.53150	0.03782
740.60284	0.03777
738.67419	0.03800
736.74554	0.03847
734.81688	0.03890
732.88823	0.03907
730.95958	0.03912
729.03092	0.03938
727.10227	0.03975
725.17362	0.04007
723.24497	0.04035
721.31631	0.04091
719.38766	0.04129
717.45901	0.04153
715.53035	0.04181
713.60170	0.04209
711.67305	0.04231
709.74439	0.04255
707.81574	0.04290
705.88709	0.04331
703.95843	0.04371
702.02978	0.04402
700.10113	0.04420
698.17247	0.04428
696.24382	0.04431
694.31517	0.04439
692.38651	0.04460
690.45786	0.04480
688.52921	0.04493
686.60055	0.04510
684.67190	0.04532
682.74325	0.04559
680.81459	0.04591
678.88594	0.04608
676.95729	0.04599
675.02863	0.04590
673.09998	0.04606
671.17133	0.04643
669.24267	0.04681
667.31402	0.04706
665.38537	0.04724
663.45671	0.04747
661.52806	0.04774
659.59941	0.04793
657.67075	0.04792
655.74210	0.04785
653.81345	0.04798
651.88480	0.04833
649.95614	0.04859
648.02749	0.04855
646.09884	0.04838
644.17018	0.04833
642.24153	0.04845
640.31288	0.04872
638.38422	0.04902
636.45557	0.04915
634.52692	0.04907
632.59826	0.04888
630.66961	0.04886
628.74096	0.04924
626.81230	0.04861
624.88365	0.04723
622.95500	0.04578
621.02634	0.04573
619.09769	0.04664
617.16904	0.04585
615.24038	0.04372
613.31173	0.04286
611.38308	0.04373
609.45442	0.04530
607.52577	0.04612
605.59712	0.04606
603.66846	0.04686
601.73981	0.04813
599.81116	0.04834
597.88250	0.04787
595.95385	0.04770
594.02520	0.04814
592.09654	0.04890
590.16789	0.04950
588.23924	0.04965
586.31059	0.04965
584.38193	0.04980
582.45328	0.04989
580.52463	0.04986
578.59597	0.04990
576.66732	0.05000
574.73867	0.05015
572.81001	0.05046
570.88136	0.05072
568.95271	0.05068
567.02405	0.05055
565.09540	0.05047
563.16675	0.05036
561.23809	0.05019
559.30944	0.05014
557.38079	0.05037
555.45213	0.05078
553.52348	0.05113
551.59483	0.05126
549.66617	0.05114
547.73752	0.05095
545.80887	0.05070
543.88021	0.05042
541.95156	0.05034
540.02291	0.05045
538.09425	0.05059
536.16560	0.05072
534.23695	0.05079
532.30829	0.05076
530.37964	0.05070
528.45099	0.05074
526.52233	0.05081
524.59368	0.05067
522.66503	0.05042
520.73637	0.05039
518.80772	0.05040
516.87907	0.05016
514.95042	0.04979
513.02176	0.04947
511.09311	0.04935
509.16446	0.04942
507.23580	0.04924
505.30715	0.04871
503.37850	0.04829
501.44984	0.04819
499.52119	0.04815
497.59254	0.04805
495.66388	0.04788
493.73523	0.04764
491.80658	0.04727
489.87792	0.04679
487.94927	0.04639
486.02062	0.04617
484.09196	0.04598
482.16331	0.04575
480.23466	0.04560
478.30600	0.04557
476.37735	0.04552
474.44870	0.04533
472.52004	0.04510
470.59139	0.04500
468.66274	0.04495
466.73408	0.04477
464.80543	0.04451
462.87678	0.04429
460.94812	0.04399
459.01947	0.04350
457.09082	0.04293
455.16216	0.04242
453.23351	0.04194
451.30486	0.04154
449.37620	0.04132
447.44755	0.04120
445.51890	0.04102
443.59025	0.04072
441.66159	0.04036
439.73294	0.04003
437.80429	0.03974
435.87563	0.03948
433.94698	0.03917
432.01833	0.03888
430.08967	0.03868
428.16102	0.03847
426.23237	0.03821
424.30371	0.03795
422.37506	0.03773
420.44641	0.03751
418.51775	0.03728
416.58910	0.03710
414.66045	0.03695
412.73179	0.03672
410.80314	0.03643
408.87449	0.03619
406.94583	0.03603
405.01718	0.03594
403.08853	0.03588
401.15987	0.03566
399.23122	0.03524
