3996.16951	0.05015
3994.24086	0.05068
3992.31221	0.05092
3990.38355	0.05110
3988.45490	0.05115
3986.52625	0.05076
3984.59759	0.05027
3982.66894	0.05037
3980.74029	0.05099
3978.81163	0.05141
3976.88298	0.05134
3974.95433	0.05095
3973.02567	0.05019
3971.09702	0.04913
3969.16837	0.04863
3967.23972	0.04916
3965.31106	0.04982
3963.38241	0.04985
3961.45376	0.04980
3959.52510	0.05026
3957.59645	0.05071
3955.66780	0.05067
3953.73914	0.05048
3951.81049	0.05059
3949.88184	0.05076
3947.95318	0.05039
3946.02453	0.04964
3944.09588	0.04901
3942.16722	0.04885
3940.23857	0.04910
3938.30992	0.04910
3936.38126	0.04867
3934.45261	0.04828
3932.52396	0.04829
3930.59530	0.04868
3928.66665	0.04886
3926.73800	0.04855
3924.80934	0.04837
3922.88069	0.04875
3920.95204	0.04882
3919.02338	0.04814
3917.09473	0.04770
3915.16608	0.04791
3913.23742	0.04801
3911.30877	0.04800
3909.38012	0.04840
3907.45146	0.04889
3905.52281	0.04878
3903.59416	0.04844
3901.66550	0.04821
3899.73685	0.04784
3897.80820	0.04768
3895.87955	0.04798
3893.95089	0.04820
3892.02224	0.04811
3890.09359	0.04806
3888.16493	0.04795
3886.23628	0.04775
3884.30763	0.04788
3882.37897	0.04773
3880.45032	0.04725
3878.52167	0.04723
3876.59301	0.04727
3874.66436	0.04722
3872.73571	0.04754
3870.80705	0.04772
3868.87840	0.04779
3866.94975	0.04770
3865.02109	0.04750
3863.09244	0.04754
3861.16379	0.04721
3859.23513	0.04673
3857.30648	0.04666
3855.37783	0.04663
3853.44917	0.04696
3851.52052	0.04771
3849.59187	0.04771
3847.66321	0.04693
3845.73456	0.04573
3843.80591	0.04447
3841.87725	0.04408
3839.94860	0.04455
3838.01995	0.04505
3836.09129	0.04523
3834.16264	0.04484
3832.23399	0.04446
3830.30534	0.04474
3828.37668	0.04530
3826.44803	0.04544
3824.51938	0.04493
3822.59072	0.04420
3820.66207	0.04472
3818.73342	0.04585
3816.80476	0.04581
3814.87611	0.04564
3812.94746	0.04570
3811.01880	0.04549
3809.09015	0.04507
3807.16150	0.04464
3805.23284	0.04453
3803.30419	0.04385
3801.37554	0.04320
3799.44688	0.04370
3797.51823	0.04373
3795.58958	0.04299
3793.66092	0.04258
3791.73227	0.04305
3789.80362	0.04384
3787.87496	0.04401
3785.94631	0.04368
3784.01766	0.04331
3782.08900	0.04298
3780.16035	0.04285
3778.23170	0.04285
3776.30304	0.04261
3774.37439	0.04265
3772.44574	0.04314
3770.51708	0.04306
3768.58843	0.04254
3766.65978	0.04214
3764.73112	0.04202
3762.80247	0.04187
3760.87382	0.04147
3758.94517	0.04165
3757.01651	0.04254
3755.08786	0.04307
3753.15921	0.04280
3751.23055	0.04255
3749.30190	0.04242
3747.37325	0.04215
3745.44459	0.04148
3743.51594	0.04174
3741.58729	0.04241
3739.65863	0.04219
3737.72998	0.04187
3735.80133	0.04209
3733.87267	0.04226
3731.94402	0.04141
3730.01537	0.04032
3728.08671	0.04002
3726.15806	0.04065
3724.22941	0.04122
3722.30075	0.04087
3720.37210	0.04028
3718.44345	0.04025
3716.51479	0.04057
3714.58614	0.04041
3712.65749	0.03977
3710.72883	0.03960
3708.80018	0.03983
3706.87153	0.03988
3704.94287	0.03978
3703.01422	0.03975
3701.08557	0.03971
3699.15691	0.03951
3697.22826	0.03934
3695.29961	0.03966
3693.37095	0.04022
3691.44230	0.04035
3689.51365	0.03989
3687.58500	0.03972
3685.65634	0.03999
3683.72769	0.04015
3681.79904	0.04040
3679.87038	0.04039
3677.94173	0.03976
3676.01308	0.03883
3674.08442	0.03873
3672.15577	0.03885
3670.22712	0.03890
3668.29846	0.03936
3666.36981	0.03956
3664.44116	0.03944
3662.51250	0.03944
3660.58385	0.03972
3658.65520	0.04008
3656.72654	0.04042
3654.79789	0.04073
3652.86924	0.04041
3650.94058	0.03994
3649.01193	0.04032
3647.08328	0.04107
3645.15462	0.04151
3643.22597	0.04165
3641.29732	0.04165
3639.36866	0.04158
3637.44001	0.04163
3635.51136	0.04200
3633.58270	0.04253
3631.65405	0.04270
3629.72540	0.04259
3627.79674	0.04310
3625.86809	0.04345
3623.93944	0.04323
3622.01079	0.04336
3620.08213	0.04397
3618.15348	0.04505
3616.22483	0.04611
3614.29617	0.04645
3612.36752	0.04663
3610.43887	0.04697
3608.51021	0.04695
3606.58156	0.04660
3604.65291	0.04629
3602.72425	0.04651
3600.79560	0.04731
3598.86695	0.04809
3596.93829	0.04833
3595.00964	0.04833
3593.08099	0.04863
3591.15233	0.04908
3589.22368	0.04903
3587.29503	0.04863
3585.36637	0.04876
3583.43772	0.04977
3581.50907	0.05094
3579.58041	0.05151
3577.65176	0.05156
3575.72311	0.05166
3573.79445	0.05210
3571.86580	0.05271
3569.93715	0.05320
3568.00849	0.05350
3566.07984	0.05381
3564.15119	0.05405
3562.22253	0.05421
3560.29388	0.05480
3558.36523	0.05584
3556.43657	0.05654
3554.50792	0.05657
3552.57927	0.05659
3550.65062	0.05703
3548.72196	0.05779
3546.79331	0.05852
3544.86466	0.05902
3542.93600	0.05955
3541.00735	0.05999
3539.07870	0.05994
3537.15004	0.05974
3535.22139	0.05977
3533.29274	0.06015
3531.36408	0.06094
3529.43543	0.06173
3527.50678	0.06214
3525.57812	0.06249
3523.64947	0.06298
3521.72082	0.06353
3519.79216	0.06425
3517.86351	0.06506
3515.93486	0.06560
3514.00620	0.06578
3512.07755	0.06572
3510.14890	0.06574
3508.22024	0.06616
3506.29159	0.06686
3504.36294	0.06750
3502.43428	0.06788
3500.50563	0.06800
3498.57698	0.06813
3496.64832	0.06850
3494.71967	0.06904
3492.79102	0.06960
3490.86236	0.07016
3488.93371	0.07082
3487.00506	0.07138
3485.07641	0.07156
3483.14775	0.07163
3481.21910	0.07177
3479.29045	0.07191
3477.36179	0.07202
3475.43314	0.07218
3473.50449	0.07246
3471.57583	0.07276
3469.64718	0.07297
3467.71853	0.07338
3465.78987	0.07430
3463.86122	0.07512
3461.93257	0.07530
3460.00391	0.07532
3458.07526	0.07574
3456.14661	0.07625
3454.21795	0.07637
3452.28930	0.07620
3450.36065	0.07612
3448.43199	0.07628
3446.50334	0.07654
3444.57469	0.07671
3442.64603	0.07684
3440.71738	0.07713
3438.78873	0.07772
3436.86007	0.07868
3434.93142	0.07958
3433.00277	0.08012
3431.07411	0.08062
3429.14546	0.08099
3427.21681	0.08091
3425.28815	0.08077
3423.35950	0.08090
3421.43085	0.08109
3419.50219	0.08126
3417.57354	0.08159
3415.64489	0.08222
3413.71624	0.08285
3411.78758	0.08305
3409.85893	0.08309
3407.93028	0.08335
3406.00162	0.08357
3404.07297	0.08350
3402.14432	0.08351
3400.21566	0.08386
3398.28701	0.08424
3396.35836	0.08470
3394.42970	0.08546
3392.50105	0.08596
3390.57240	0.08597
3388.64374	0.08619
3386.71509	0.08659
3384.78644	0.08655
3382.85778	0.08625
3380.92913	0.08637
3379.00048	0.08709
3377.07182	0.08793
3375.14317	0.08863
3373.21452	0.08926
3371.28586	0.08990
3369.35721	0.09045
3367.42856	0.09087
3365.49990	0.09121
3363.57125	0.09161
3361.64260	0.09210
3359.71394	0.09260
3357.78529	0.09309
3355.85664	0.09369
3353.92798	0.09445
3351.99933	0.09528
3350.07068	0.09615
3348.14202	0.09710
3346.21337	0.09807
3344.28472	0.09883
3342.35607	0.09945
3340.42741	0.10003
3338.49876	0.10043
3336.57011	0.10075
3334.64145	0.10127
3332.71280	0.10211
3330.78415	0.10320
3328.85549	0.10426
3326.92684	0.10497
3324.99819	0.10531
3323.06953	0.10556
3321.14088	0.10595
3319.21223	0.10618
3317.28357	0.10603
3315.35492	0.10598
3313.42627	0.10635
3311.49761	0.10682
3309.56896	0.10715
3307.64031	0.10740
3305.71165	0.10762
3303.78300	0.10765
3301.85435	0.10751
3299.92569	0.10752
3297.99704	0.10765
3296.06839	0.10749
3294.13973	0.10716
3292.21108	0.10703
3290.28243	0.10693
3288.35377	0.10663
3286.42512	0.10625
3284.49647	0.10605
3282.56781	0.10618
3280.63916	0.10640
3278.71051	0.10624
3276.78186	0.10587
3274.85320	0.10559
3272.92455	0.10514
3270.99590	0.10451
3269.06724	0.10412
3267.13859	0.10396
3265.20994	0.10376
3263.28128	0.10343
3261.35263	0.10305
3259.42398	0.10261
3257.49532	0.10200
3255.56667	0.10133
3253.63802	0.10072
3251.70936	0.10010
3249.78071	0.09953
3247.85206	0.09911
3245.92340	0.09873
3243.99475	0.09838
3242.06610	0.09818
3240.13744	0.09820
3238.20879	0.09822
3236.28014	0.09782
3234.35148	0.09701
3232.42283	0.09620
3230.49418	0.09562
3228.56552	0.09536
3226.63687	0.09546
3224.70822	0.09554
3222.77956	0.09535
3220.85091	0.09523
3218.92226	0.09525
3216.99360	0.09503
3215.06495	0.09454
3213.13630	0.09410
3211.20764	0.09365
3209.27899	0.09305
3207.35034	0.09260
3205.42169	0.09248
3203.49303	0.09252
3201.56438	0.09250
3199.63573	0.09226
3197.70707	0.09175
3195.77842	0.09095
3193.84977	0.08999
3191.92111	0.08932
3189.99246	0.08916
3188.06381	0.08913
3186.13515	0.08887
3184.20650	0.08823
3182.27785	0.08743
3180.34919	0.08689
3178.42054	0.08663
3176.49189	0.08618
3174.56323	0.08536
3172.63458	0.08443
3170.70593	0.08374
3168.77727	0.08349
3166.84862	0.08346
3164.91997	0.08313
3162.99131	0.08237
3161.06266	0.08161
3159.13401	0.08115
3157.20535	0.08072
3155.27670	0.08010
3153.34805	0.07948
3151.41939	0.07894
3149.49074	0.07831
3147.56209	0.07769
3145.63343	0.07726
3143.70478	0.07692
3141.77613	0.07655
3139.84748	0.07618
3137.91882	0.07572
3135.99017	0.07521
3134.06152	0.07484
3132.13286	0.07475
3130.20421	0.07479
3128.27556	0.07453
3126.34690	0.07399
3124.41825	0.07363
3122.48960	0.07347
3120.56094	0.07332
3118.63229	0.07326
3116.70364	0.07316
3114.77498	0.07285
3112.84633	0.07257
3110.91768	0.07263
3108.98902	0.07289
3107.06037	0.07295
3105.13172	0.07291
3103.20306	0.07305
3101.27441	0.07313
3099.34576	0.07301
3097.41710	0.07289
3095.48845	0.07287
3093.55980	0.07295
3091.63114	0.07313
3089.70249	0.07341
3087.77384	0.07364
3085.84518	0.07377
3083.91653	0.07395
3081.98788	0.07422
3080.05922	0.07446
3078.13057	0.07462
3076.20192	0.07466
3074.27326	0.07458
3072.34461	0.07456
3070.41596	0.07472
3068.48731	0.07478
3066.55865	0.07450
3064.63000	0.07396
3062.70135	0.07334
3060.77269	0.07299
3058.84404	0.07300
3056.91539	0.07293
3054.98673	0.07246
3053.05808	0.07182
3051.12943	0.07136
3049.20077	0.07105
3047.27212	0.07065
3045.34347	0.07006
3043.41481	0.06950
3041.48616	0.06909
3039.55751	0.06860
3037.62885	0.06795
3035.70020	0.06745
3033.77155	0.06720
3031.84289	0.06701
3029.91424	0.06673
3027.98559	0.06626
3026.05693	0.06564
3024.12828	0.06519
3022.19963	0.06495
3020.27097	0.06452
3018.34232	0.06388
3016.41367	0.06339
3014.48501	0.06320
3012.55636	0.06321
3010.62771	0.06321
3008.69905	0.06310
3006.77040	0.06300
3004.84175	0.06303
3002.91309	0.06305
3000.98444	0.06290
2999.05579	0.06278
2997.12714	0.06289
2995.19848	0.06316
2993.26983	0.06341
2991.34118	0.06364
2989.41252	0.06386
2987.48387	0.06411
2985.55522	0.06458
2983.62656	0.06528
2981.69791	0.06590
2979.76926	0.06613
2977.84060	0.06597
2975.91195	0.06583
2973.98330	0.06593
2972.05464	0.06613
2970.12599	0.06639
2968.19734	0.06671
2966.26868	0.06702
2964.34003	0.06735
2962.41138	0.06769
2960.48272	0.06791
2958.55407	0.06811
2956.62542	0.06835
2954.69676	0.06844
2952.76811	0.06838
2950.83946	0.06837
2948.91080	0.06845
2946.98215	0.06861
2945.05350	0.06878
2943.12484	0.06888
2941.19619	0.06913
2939.26754	0.06973
2937.33888	0.07020
2935.41023	0.07004
2933.48158	0.06949
2931.55293	0.06910
2929.62427	0.06908
2927.69562	0.06923
2925.76697	0.06922
2923.83831	0.06893
2921.90966	0.06850
2919.98101	0.06795
2918.05235	0.06742
2916.12370	0.06689
2914.19505	0.06615
2912.26639	0.06534
2910.33774	0.06461
2908.40909	0.06391
2906.48043	0.06330
2904.55178	0.06278
2902.62313	0.06218
2900.69447	0.06167
2898.76582	0.06145
2896.83717	0.06143
2894.90851	0.06148
2892.97986	0.06145
2891.05121	0.06129
2889.12255	0.06122
2887.19390	0.06137
2885.26525	0.06149
2883.33659	0.06143
2881.40794	0.06131
2879.47929	0.06119
2877.55063	0.06105
2875.62198	0.06099
2873.69333	0.06099
2871.76467	0.06078
2869.83602	0.06035
2867.90737	0.05989
2865.97871	0.05946
2864.05006	0.05910
2862.12141	0.05867
2860.19276	0.05815
2858.26410	0.05773
2856.33545	0.05754
2854.40680	0.05751
2852.47814	0.05745
2850.54949	0.05720
2848.62084	0.05670
2846.69218	0.05611
2844.76353	0.05569
2842.83488	0.05531
2840.90622	0.05476
2838.97757	0.05425
2837.04892	0.05388
2835.12026	0.05360
2833.19161	0.05347
2831.26296	0.05338
2829.33430	0.05322
2827.40565	0.05299
2825.47700	0.05268
2823.54834	0.05229
2821.61969	0.05202
2819.69104	0.05199
2817.76238	0.05208
2815.83373	0.05207
2813.90508	0.05195
2811.97642	0.05181
2810.04777	0.05163
2808.11912	0.05139
2806.19046	0.05121
2804.26181	0.05101
2802.33316	0.05074
2800.40450	0.05067
2798.47585	0.05075
2796.54720	0.05061
2794.61855	0.05027
2792.68989	0.05005
2790.76124	0.04991
2788.83259	0.04968
2786.90393	0.04940
2784.97528	0.04923
2783.04663	0.04913
2781.11797	0.04891
2779.18932	0.04862
2777.26067	0.04846
2775.33201	0.04840
2773.40336	0.04838
2771.47471	0.04835
2769.54605	0.04811
2767.61740	0.04775
2765.68875	0.04766
2763.76009	0.04776
2761.83144	0.04762
2759.90279	0.04733
2757.97413	0.04723
2756.04548	0.04726
2754.11683	0.04727
2752.18817	0.04728
2750.25952	0.04721
2748.33087	0.04700
2746.40221	0.04683
2744.47356	0.04669
2742.54491	0.04641
2740.61625	0.04610
2738.68760	0.04591
2736.75895	0.04584
2734.83029	0.04573
2732.90164	0.04551
2730.97299	0.04527
2729.04433	0.04516
2727.11568	0.04524
2725.18703	0.04536
2723.25838	0.04532
2721.32972	0.04518
2719.40107	0.04502
2717.47242	0.04462
2715.54376	0.04410
2713.61511	0.04393
2711.68646	0.04406
2709.75780	0.04420
2707.82915	0.04429
2705.90050	0.04425
2703.97184	0.04402
2702.04319	0.04376
2700.11454	0.04355
2698.18588	0.04344
2696.25723	0.04345
2694.32858	0.04333
2692.39992	0.04299
2690.47127	0.04274
2688.54262	0.04275
2686.61396	0.04284
2684.68531	0.04282
2682.75666	0.04269
2680.82800	0.04256
2678.89935	0.04254
2676.97070	0.04260
2675.04204	0.04261
2673.11339	0.04252
2671.18474	0.04236
2669.25608	0.04206
2667.32743	0.04177
2665.39878	0.04167
2663.47012	0.04176
2661.54147	0.04179
2659.61282	0.04153
2657.68417	0.04112
2655.75551	0.04075
2653.82686	0.04041
2651.89821	0.04015
2649.96955	0.04011
2648.04090	0.04007
2646.11225	0.03976
2644.18359	0.03930
2642.25494	0.03898
2640.32629	0.03892
2638.39763	0.03884
2636.46898	0.03857
2634.54033	0.03821
2632.61167	0.03784
2630.68302	0.03763
2628.75437	0.03759
2626.82571	0.03751
2624.89706	0.03752
2622.96841	0.03765
2621.03975	0.03752
2619.11110	0.03712
2617.18245	0.03684
2615.25379	0.03670
2613.32514	0.03663
2611.39649	0.03656
2609.46783	0.03618
2607.53918	0.03549
2605.61053	0.03504
2603.68187	0.03513
2601.75322	0.03557
2599.82457	0.03583
2597.89591	0.03560
2595.96726	0.03537
2594.03861	0.03541
2592.10995	0.03531
2590.18130	0.03509
2588.25265	0.03502
2586.32400	0.03486
2584.39534	0.03445
2582.46669	0.03397
2580.53804	0.03361
2578.60938	0.03346
2576.68073	0.03344
2574.75208	0.03343
2572.82342	0.03356
2570.89477	0.03383
2568.96612	0.03378
2567.03746	0.03335
2565.10881	0.03308
2563.18016	0.03321
2561.25150	0.03329
2559.32285	0.03296
2557.39420	0.03272
2555.46554	0.03293
2553.53689	0.03310
2551.60824	0.03289
2549.67958	0.03261
2547.75093	0.03240
2545.82228	0.03232
2543.89362	0.03233
2541.96497	0.03228
2540.03632	0.03225
2538.10766	0.03224
2536.17901	0.03191
2534.25036	0.03141
2532.32170	0.03117
2530.39305	0.03120
2528.46440	0.03124
2526.53574	0.03127
2524.60709	0.03138
2522.67844	0.03139
2520.74978	0.03122
2518.82113	0.03101
2516.89248	0.03086
2514.96383	0.03063
2513.03517	0.03034
2511.10652	0.03023
2509.17787	0.03036
2507.24921	0.03060
2505.32056	0.03074
2503.39191	0.03070
2501.46325	0.03055
2499.53460	0.03032
2497.60595	0.03016
2495.67729	0.03031
2493.74864	0.03065
2491.81999	0.03078
2489.89133	0.03058
2487.96268	0.03036
2486.03403	0.03033
2484.10537	0.03033
2482.17672	0.03029
2480.24807	0.03020
2478.31941	0.02988
2476.39076	0.02948
2474.46211	0.02936
2472.53345	0.02938
2470.60480	0.02942
2468.67615	0.02959
2466.74749	0.02966
2464.81884	0.02954
2462.89019	0.02959
2460.96153	0.02975
2459.03288	0.02962
2457.10423	0.02924
2455.17557	0.02885
2453.24692	0.02848
2451.31827	0.02824
2449.38962	0.02828
2447.46096	0.02835
2445.53231	0.02836
2443.60366	0.02833
2441.67500	0.02807
2439.74635	0.02781
2437.81770	0.02796
2435.88904	0.02848
2433.96039	0.02892
2432.03174	0.02895
2430.10308	0.02869
2428.17443	0.02842
2426.24578	0.02833
2424.31712	0.02856
2422.38847	0.02880
2420.45982	0.02861
2418.53116	0.02826
2416.60251	0.02820
2414.67386	0.02821
2412.74520	0.02805
2410.81655	0.02799
2408.88790	0.02821
2406.95924	0.02858
2405.03059	0.02876
2403.10194	0.02858
2401.17328	0.02838
2399.24463	0.02833
2397.31598	0.02828
2395.38732	0.02819
2393.45867	0.02831
2391.53002	0.02863
2389.60136	0.02882
2387.67271	0.02880
2385.74406	0.02870
2383.81540	0.02865
2381.88675	0.02875
2379.95810	0.02906
2378.02945	0.02947
2376.10079	0.02972
2374.17214	0.02971
2372.24349	0.02954
2370.31483	0.02941
2368.38618	0.02946
2366.45753	0.02957
2364.52887	0.02955
2362.60022	0.02948
2360.67157	0.02952
2358.74291	0.02967
2356.81426	0.02981
2354.88561	0.02975
2352.95695	0.02949
2351.02830	0.02933
2349.09965	0.02935
2347.17099	0.02937
2345.24234	0.02939
2343.31369	0.02942
2341.38503	0.02948
2339.45638	0.02955
2337.52773	0.02957
2335.59907	0.02943
2333.67042	0.02920
2331.74177	0.02902
2329.81311	0.02884
2327.88446	0.02847
2325.95581	0.02787
2324.02715	0.02742
2322.09850	0.02737
2320.16985	0.02742
2318.24119	0.02718
2316.31254	0.02673
2314.38389	0.02640
2312.45524	0.02640
2310.52658	0.02654
2308.59793	0.02653
2306.66928	0.02633
2304.74062	0.02588
2302.81197	0.02529
2300.88332	0.02495
2298.95466	0.02492
2297.02601	0.02488
2295.09736	0.02484
2293.16870	0.02468
2291.24005	0.02417
2289.31140	0.02346
2287.38274	0.02283
2285.45409	0.02233
2283.52544	0.02232
2281.59678	0.02290
2279.66813	0.02318
2277.73948	0.02276
2275.81082	0.02236
2273.88217	0.02233
2271.95352	0.02236
2270.02486	0.02232
2268.09621	0.02212
2266.16756	0.02162
2264.23890	0.02134
2262.31025	0.02196
2260.38160	0.02280
2258.45294	0.02264
2256.52429	0.02183
2254.59564	0.02145
2252.66698	0.02140
2250.73833	0.02112
2248.80968	0.02092
2246.88102	0.02069
2244.95237	0.02000
2243.02372	0.01885
2241.09507	0.01799
2239.16641	0.01801
2237.23776	0.01847
2235.30911	0.01866
2233.38045	0.01890
2231.45180	0.01945
2229.52315	0.01983
2227.59449	0.01959
2225.66584	0.01878
2223.73719	0.01810
2221.80853	0.01773
2219.87988	0.01708
2217.95123	0.01637
2216.02257	0.01599
2214.09392	0.01589
2212.16527	0.01590
2210.23661	0.01566
2208.30796	0.01553
2206.37931	0.01600
2204.45065	0.01625
2202.52200	0.01581
2200.59335	0.01547
2198.66469	0.01552
2196.73604	0.01556
2194.80739	0.01548
2192.87873	0.01522
2190.95008	0.01474
2189.02143	0.01443
2187.09277	0.01460
2185.16412	0.01441
2183.23547	0.01344
2181.30681	0.01313
2179.37816	0.01402
2177.44951	0.01475
2175.52085	0.01427
2173.59220	0.01270
2171.66355	0.01114
2169.73490	0.01060
2167.80624	0.01087
2165.87759	0.01094
2163.94894	0.01035
2162.02028	0.00908
2160.09163	0.00791
2158.16298	0.00890
2156.23432	0.01178
2154.30567	0.01365
2152.37702	0.01362
2150.44836	0.01359
2148.51971	0.01449
2146.59106	0.01526
2144.66240	0.01568
2142.73375	0.01627
2140.80510	0.01697
2138.87644	0.01750
2136.94779	0.01783
2135.01914	0.01808
2133.09048	0.01802
2131.16183	0.01763
2129.23318	0.01732
2127.30452	0.01746
2125.37587	0.01823
2123.44722	0.01916
2121.51856	0.01938
2119.58991	0.01902
2117.66126	0.01873
2115.73260	0.01827
2113.80395	0.01765
2111.87530	0.01752
2109.94664	0.01794
2108.01799	0.01855
2106.08934	0.01891
2104.16069	0.01867
2102.23203	0.01804
2100.30338	0.01743
2098.37473	0.01678
2096.44607	0.01679
2094.51742	0.01733
2092.58877	0.01765
2090.66011	0.01769
2088.73146	0.01764
2086.80281	0.01720
2084.87415	0.01691
2082.94550	0.01706
2081.01685	0.01682
2079.08819	0.01566
2077.15954	0.01444
2075.23089	0.01403
2073.30223	0.01422
2071.37358	0.01429
2069.44493	0.01394
2067.51627	0.01339
2065.58762	0.01296
2063.65897	0.01302
2061.73031	0.01372
2059.80166	0.01449
2057.87301	0.01472
2055.94435	0.01468
2054.01570	0.01476
2052.08705	0.01441
2050.15839	0.01297
2048.22974	0.01154
2046.30109	0.01150
2044.37243	0.01196
2042.44378	0.01149
2040.51513	0.01023
2038.58647	0.00902
2036.65782	0.00855
2034.72917	0.00859
2032.80052	0.00836
2030.87186	0.00796
2028.94321	0.00783
2027.01456	0.00795
2025.08590	0.00814
2023.15725	0.00811
2021.22860	0.00815
2019.29994	0.00878
2017.37129	0.00948
2015.44264	0.00992
2013.51398	0.01021
2011.58533	0.00974
2009.65668	0.00849
2007.72802	0.00810
2005.79937	0.00940
2003.87072	0.01098
2001.94206	0.01162
2000.01341	0.01198
1998.08476	0.01283
1996.15610	0.01340
1994.22745	0.01297
1992.29880	0.01255
1990.37014	0.01293
1988.44149	0.01328
1986.51284	0.01280
1984.58418	0.01176
1982.65553	0.01077
1980.72688	0.00965
1978.79822	0.00812
1976.86957	0.00700
1974.94092	0.00672
1973.01226	0.00673
1971.08361	0.00733
1969.15496	0.00901
1967.22631	0.01069
1965.29765	0.01122
1963.36900	0.01118
1961.44035	0.01143
1959.51169	0.01205
1957.58304	0.01287
1955.65439	0.01358
1953.72573	0.01366
1951.79708	0.01311
1949.86843	0.01254
1947.93977	0.01254
1946.01112	0.01323
1944.08247	0.01401
1942.15381	0.01442
1940.22516	0.01472
1938.29651	0.01474
1936.36785	0.01420
1934.43920	0.01367
1932.51055	0.01364
1930.58189	0.01379
1928.65324	0.01384
1926.72459	0.01403
1924.79593	0.01438
1922.86728	0.01483
1920.93863	0.01531
1919.00997	0.01542
1917.08132	0.01510
1915.15267	0.01465
1913.22401	0.01432
1911.29536	0.01431
1909.36671	0.01455
1907.43805	0.01484
1905.50940	0.01491
1903.58075	0.01469
1901.65209	0.01457
1899.72344	0.01473
1897.79479	0.01484
1895.86614	0.01477
1893.93748	0.01467
1892.00883	0.01468
1890.08018	0.01495
1888.15152	0.01530
1886.22287	0.01526
1884.29422	0.01495
1882.36556	0.01487
1880.43691	0.01509
1878.50826	0.01523
1876.57960	0.01497
1874.65095	0.01452
1872.72230	0.01444
1870.79364	0.01472
1868.86499	0.01492
1866.93634	0.01493
1865.00768	0.01489
1863.07903	0.01487
1861.15038	0.01488
1859.22172	0.01494
1857.29307	0.01516
1855.36442	0.01544
1853.43576	0.01546
1851.50711	0.01510
1849.57846	0.01472
1847.64980	0.01461
1845.72115	0.01456
1843.79250	0.01458
1841.86384	0.01478
1839.93519	0.01477
1838.00654	0.01455
1836.07788	0.01447
1834.14923	0.01459
1832.22058	0.01473
1830.29192	0.01475
1828.36327	0.01469
1826.43462	0.01439
1824.50597	0.01403
1822.57731	0.01390
1820.64866	0.01397
1818.72001	0.01424
1816.79135	0.01473
1814.86270	0.01519
1812.93405	0.01536
1811.00539	0.01520
1809.07674	0.01486
1807.14809	0.01455
1805.21943	0.01449
1803.29078	0.01462
1801.36213	0.01468
1799.43347	0.01457
1797.50482	0.01440
1795.57617	0.01428
1793.64751	0.01416
1791.71886	0.01412
1789.79021	0.01421
1787.86155	0.01419
1785.93290	0.01407
1784.00425	0.01409
1782.07559	0.01414
1780.14694	0.01412
1778.21829	0.01416
1776.28963	0.01418
1774.36098	0.01408
1772.43233	0.01406
1770.50367	0.01428
1768.57502	0.01438
1766.64637	0.01440
1764.71771	0.01440
1762.78906	0.01430
1760.86041	0.01430
1758.93176	0.01440
1757.00310	0.01450
1755.07445	0.01464
1753.14580	0.01468
1751.21714	0.01477
1749.28849	0.01519
1747.35984	0.01568
1745.43118	0.01607
1743.50253	0.01638
1741.57388	0.01658
1739.64522	0.01674
1737.71657	0.01701
1735.78792	0.01717
1733.85926	0.01743
1731.93061	0.01796
1730.00196	0.01824
1728.07330	0.01847
1726.14465	0.01889
1724.21600	0.01931
1722.28734	0.01968
1720.35869	0.01992
1718.43004	0.02009
1716.50138	0.02068
1714.57273	0.02162
1712.64408	0.02257
1710.71542	0.02360
1708.78677	0.02485
1706.85812	0.02642
1704.92946	0.02846
1703.00081	0.03080
1701.07216	0.03319
1699.14350	0.03616
1697.21485	0.03925
1695.28620	0.04222
1693.35754	0.04545
1691.42889	0.04853
1689.50024	0.05175
1687.57159	0.05518
1685.64293	0.05850
1683.71428	0.06220
1681.78563	0.06646
1679.85697	0.07089
1677.92832	0.07559
1675.99967	0.08041
1674.07101	0.08541
1672.14236	0.09053
1670.21371	0.09566
1668.28505	0.10094
1666.35640	0.10617
1664.42775	0.11107
1662.49909	0.11572
1660.57044	0.12009
1658.64179	0.12393
1656.71313	0.12715
1654.78448	0.12963
1652.85583	0.13185
1650.92717	0.13424
1648.99852	0.13598
1647.06987	0.13720
1645.14121	0.13851
1643.21256	0.13974
1641.28391	0.14062
1639.35525	0.14127
1637.42660	0.14159
1635.49795	0.14164
1633.56929	0.14155
1631.64064	0.14082
1629.71199	0.13920
1627.78333	0.13665
1625.85468	0.13309
1623.92603	0.12860
1621.99738	0.12368
1620.06872	0.11853
1618.14007	0.11306
1616.21142	0.10772
1614.28276	0.10280
1612.35411	0.09792
1610.42546	0.09322
1608.49680	0.08888
1606.56815	0.08483
1604.63950	0.08106
1602.71084	0.07772
1600.78219	0.07484
1598.85354	0.07236
1596.92488	0.07022
1594.99623	0.06840
1593.06758	0.06694
1591.13892	0.06588
1589.21027	0.06517
1587.28162	0.06471
1585.35296	0.06456
1583.42431	0.06481
1581.49566	0.06547
1579.56700	0.06645
1577.63835	0.06755
1575.70970	0.06909
1573.78104	0.07137
1571.85239	0.07385
1569.92374	0.07650
1567.99508	0.07950
1566.06643	0.08266
1564.13778	0.08589
1562.20912	0.08902
1560.28047	0.09186
1558.35182	0.09491
1556.42316	0.09798
1554.49451	0.10038
1552.56586	0.10229
1550.63721	0.10381
1548.70855	0.10500
1546.77990	0.10592
1544.85125	0.10646
1542.92259	0.10665
1540.99394	0.10644
1539.06529	0.10613
1537.13663	0.10583
1535.20798	0.10510
1533.27933	0.10411
1531.35067	0.10312
1529.42202	0.10192
1527.49337	0.10052
1525.56471	0.09906
1523.63606	0.09746
1521.70741	0.09567
1519.77875	0.09401
1517.85010	0.09225
1515.92145	0.09025
1513.99279	0.08800
1512.06414	0.08543
1510.13549	0.08269
1508.20683	0.07969
1506.27818	0.07663
1504.34953	0.07392
1502.42087	0.07116
1500.49222	0.06826
1498.56357	0.06547
1496.63491	0.06282
1494.70626	0.06036
1492.77761	0.05804
1490.84895	0.05587
1488.92030	0.05409
1486.99165	0.05273
1485.06299	0.05180
1483.13434	0.05125
1481.20569	0.05105
1479.27704	0.05123
1477.34838	0.05172
1475.41973	0.05256
1473.49108	0.05368
1471.56242	0.05506
1469.63377	0.05663
1467.70512	0.05821
1465.77646	0.05981
1463.84781	0.06156
1461.91916	0.06338
1459.99050	0.06506
1458.06185	0.06651
1456.13320	0.06790
1454.20454	0.06912
1452.27589	0.06974
1450.34724	0.06991
1448.41858	0.06968
1446.48993	0.06915
1444.56128	0.06839
1442.63262	0.06748
1440.70397	0.06649
1438.77532	0.06530
1436.84666	0.06387
1434.91801	0.06239
1432.98936	0.06082
1431.06070	0.05937
1429.13205	0.05830
1427.20340	0.05762
1425.27474	0.05720
1423.34609	0.05699
1421.41744	0.05685
1419.48878	0.05671
1417.56013	0.05680
1415.63148	0.05700
1413.70283	0.05725
1411.77417	0.05754
1409.84552	0.05789
1407.91687	0.05832
1405.98821	0.05876
1404.05956	0.05908
1402.13091	0.05918
1400.20225	0.05906
1398.27360	0.05889
1396.34495	0.05864
1394.41629	0.05830
1392.48764	0.05807
1390.55899	0.05787
1388.63033	0.05760
1386.70168	0.05739
1384.77303	0.05715
1382.84437	0.05668
1380.91572	0.05608
1378.98707	0.05553
1377.05841	0.05504
1375.12976	0.05445
1373.20111	0.05372
1371.27245	0.05289
1369.34380	0.05197
1367.41515	0.05104
1365.48649	0.05009
1363.55784	0.04918
1361.62919	0.04847
1359.70053	0.04798
1357.77188	0.04770
1355.84323	0.04777
1353.91457	0.04816
1351.98592	0.04874
1350.05727	0.04948
1348.12861	0.05039
1346.19996	0.05134
1344.27131	0.05225
1342.34266	0.05306
1340.41400	0.05372
1338.48535	0.05415
1336.55670	0.05432
1334.62804	0.05416
1332.69939	0.05366
1330.77074	0.05287
1328.84208	0.05193
1326.91343	0.05105
1324.98478	0.05039
1323.05612	0.04998
1321.12747	0.04970
1319.19882	0.04945
1317.27016	0.04923
1315.34151	0.04896
1313.41286	0.04861
1311.48420	0.04822
1309.55555	0.04781
1307.62690	0.04741
1305.69824	0.04708
1303.76959	0.04685
1301.84094	0.04669
1299.91228	0.04654
1297.98363	0.04641
1296.05498	0.04641
1294.12632	0.04667
1292.19767	0.04718
1290.26902	0.04784
1288.34036	0.04856
1286.41171	0.04928
1284.48306	0.04994
1282.55440	0.05052
1280.62575	0.05094
1278.69710	0.05112
1276.76845	0.05113
1274.83979	0.05109
1272.91114	0.05110
1270.98249	0.05117
1269.05383	0.05138
1267.12518	0.05178
1265.19653	0.05234
1263.26787	0.05294
1261.33922	0.05351
1259.41057	0.05417
1257.48191	0.05501
1255.55326	0.05596
1253.62461	0.05695
1251.69595	0.05796
1249.76730	0.05902
1247.83865	0.06016
1245.90999	0.06131
1243.98134	0.06237
1242.05269	0.06336
1240.12403	0.06425
1238.19538	0.06485
1236.26673	0.06510
1234.33807	0.06503
1232.40942	0.06460
1230.48077	0.06375
1228.55211	0.06258
1226.62346	0.06114
1224.69481	0.05947
1222.76615	0.05773
1220.83750	0.05618
1218.90885	0.05490
1216.98019	0.05388
1215.05154	0.05319
1213.12289	0.05281
1211.19423	0.05271
1209.26558	0.05286
1207.33693	0.05319
1205.40828	0.05351
1203.47962	0.05356
1201.55097	0.05323
1199.62232	0.05267
1197.69366	0.05164
1195.76501	0.05047
1193.83636	0.04937
1191.90770	0.04830
1189.97905	0.04716
1188.05040	0.04607
1186.12174	0.04522
1184.19309	0.04456
1182.26444	0.04405
1180.33578	0.04374
1178.40713	0.04357
1176.47848	0.04341
1174.54982	0.04327
1172.62117	0.04316
1170.69252	0.04306
1168.76386	0.04297
1166.83521	0.04291
1164.90656	0.04291
1162.97790	0.04292
1161.04925	0.04280
1159.12060	0.04242
1157.19194	0.04183
1155.26329	0.04114
1153.33464	0.04035
1151.40598	0.03951
1149.47733	0.03871
1147.54868	0.03796
1145.62002	0.03729
1143.69137	0.03677
1141.76272	0.03638
1139.83406	0.03603
1137.90541	0.03566
1135.97676	0.03532
1134.04811	0.03507
1132.11945	0.03492
1130.19080	0.03491
1128.26215	0.03496
1126.33349	0.03492
1124.40484	0.03480
1122.47619	0.03470
1120.54753	0.03461
1118.61888	0.03449
1116.69023	0.03446
1114.76157	0.03450
1112.83292	0.03456
1110.90427	0.03481
1108.97561	0.03531
1107.04696	0.03568
1105.11831	0.03578
1103.18965	0.03589
1101.26100	0.03625
1099.33235	0.03679
1097.40369	0.03737
1095.47504	0.03786
1093.54639	0.03829
1091.61773	0.03893
1089.68908	0.03984
1087.76043	0.04084
1085.83177	0.04183
1083.90312	0.04270
1081.97447	0.04332
1080.04581	0.04367
1078.11716	0.04372
1076.18851	0.04339
1074.25985	0.04280
1072.33120	0.04233
1070.40255	0.04208
1068.47390	0.04190
1066.54524	0.04183
1064.61659	0.04186
1062.68794	0.04192
1060.75928	0.04188
1058.83063	0.04165
1056.90198	0.04119
1054.97332	0.04063
1053.04467	0.04018
1051.11602	0.03983
1049.18736	0.03943
1047.25871	0.03900
1045.33006	0.03874
1043.40140	0.03868
1041.47275	0.03873
1039.54410	0.03889
1037.61544	0.03915
1035.68679	0.03949
1033.75814	0.03983
1031.82948	0.03995
1029.90083	0.03972
1027.97218	0.03912
1026.04352	0.03831
1024.11487	0.03741
1022.18622	0.03651
1020.25756	0.03572
1018.32891	0.03516
1016.40026	0.03477
1014.47160	0.03440
1012.54295	0.03395
1010.61430	0.03346
1008.68564	0.03299
1006.75699	0.03246
1004.82834	0.03189
1002.89968	0.03133
1000.97103	0.03085
999.04238	0.03044
997.11373	0.03004
995.18507	0.02964
993.25642	0.02926
991.32777	0.02888
989.39911	0.02856
987.47046	0.02838
985.54181	0.02829
983.61315	0.02821
981.68450	0.02818
979.75585	0.02824
977.82719	0.02833
975.89854	0.02843
973.96989	0.02849
972.04123	0.02839
970.11258	0.02810
968.18393	0.02782
966.25527	0.02763
964.32662	0.02740
962.39797	0.02712
960.46931	0.02687
958.54066	0.02669
956.61201	0.02655
954.68335	0.02639
952.75470	0.02622
950.82605	0.02609
948.89739	0.02605
946.96874	0.02612
945.04009	0.02623
943.11143	0.02634
941.18278	0.02646
939.25413	0.02649
937.32547	0.02640
935.39682	0.02635
933.46817	0.02640
931.53952	0.02645
929.61086	0.02638
927.68221	0.02625
925.75356	0.02614
923.82490	0.02610
921.89625	0.02604
919.96760	0.02584
918.03894	0.02559
916.11029	0.02541
914.18164	0.02528
912.25298	0.02516
910.32433	0.02500
908.39568	0.02490
906.46702	0.02498
904.53837	0.02505
902.60972	0.02491
900.68106	0.02466
898.75241	0.02458
896.82376	0.02469
894.89510	0.02464
892.96645	0.02440
891.03780	0.02423
889.10914	0.02419
887.18049	0.02411
885.25184	0.02403
883.32318	0.02408
881.39453	0.02425
879.46588	0.02452
877.53722	0.02478
875.60857	0.02483
873.67992	0.02462
871.75126	0.02433
869.82261	0.02414
867.89396	0.02415
865.96530	0.02419
864.03665	0.02409
862.10800	0.02405
860.17935	0.02413
858.25069	0.02416
856.32204	0.02419
854.39339	0.02428
852.46473	0.02437
850.53608	0.02440
848.60743	0.02436
846.67877	0.02433
844.75012	0.02441
842.82147	0.02451
840.89281	0.02443
838.96416	0.02418
837.03551	0.02406
835.10685	0.02414
833.17820	0.02418
831.24955	0.02418
829.32089	0.02426
827.39224	0.02445
825.46359	0.02473
823.53493	0.02502
821.60628	0.02533
819.67763	0.02567
817.74897	0.02595
815.82032	0.02608
813.89167	0.02605
811.96301	0.02603
810.03436	0.02618
808.10571	0.02639
806.17705	0.02653
804.24840	0.02666
802.31975	0.02685
800.39109	0.02705
798.46244	0.02724
796.53379	0.02748
794.60513	0.02777
792.67648	0.02808
790.74783	0.02838
788.81918	0.02865
786.89052	0.02891
784.96187	0.02913
783.03322	0.02925
781.10456	0.02930
779.17591	0.02940
777.24726	0.02963
775.31860	0.02997
773.38995	0.03029
771.46130	0.03050
769.53264	0.03060
767.60399	0.03077
765.67534	0.03107
763.74668	0.03140
761.81803	0.03167
759.88938	0.03189
757.96072	0.03216
756.03207	0.03247
754.10342	0.03281
752.17476	0.03308
750.24611	0.03326
748.31746	0.03348
746.38880	0.03380
744.46015	0.03412
742.53150	0.03432
740.60284	0.03443
738.67419	0.03464
736.74554	0.03499
734.81688	0.03539
732.88823	0.03580
730.95958	0.03626
729.03092	0.03669
727.10227	0.03686
725.17362	0.03687
723.24497	0.03711
721.31631	0.03764
719.38766	0.03807
717.45901	0.03840
715.53035	0.03867
713.60170	0.03882
711.67305	0.03895
709.74439	0.03913
707.81574	0.03940
705.88709	0.03974
703.95843	0.04007
702.02978	0.04030
700.10113	0.04040
698.17247	0.04046
696.24382	0.04065
694.31517	0.04098
692.38651	0.04124
690.45786	0.04132
688.52921	0.04134
686.60055	0.04146
684.67190	0.04167
682.74325	0.04196
680.81459	0.04231
678.88594	0.04259
676.95729	0.04274
675.02863	0.04288
673.09998	0.04309
671.17133	0.04334
669.24267	0.04354
667.31402	0.04368
665.38537	0.04383
663.45671	0.04403
661.52806	0.04422
659.59941	0.04439
657.67075	0.04461
655.74210	0.04480
653.81345	0.04485
651.88480	0.04481
649.95614	0.04481
648.02749	0.04489
646.09884	0.04502
644.17018	0.04509
642.24153	0.04511
640.31288	0.04516
638.38422	0.04523
636.45557	0.04522
634.52692	0.04525
632.59826	0.04528
630.66961	0.04584
628.74096	0.04799
626.81230	0.04508
624.88365	0.04141
622.95500	0.03987
621.02634	0.03977
619.09769	0.04092
617.16904	0.04476
615.24038	0.04874
613.31173	0.04937
611.38308	0.04698
609.45442	0.04505
607.52577	0.04513
605.59712	0.04554
603.66846	0.04559
601.73981	0.04578
599.81116	0.04623
597.88250	0.04648
595.95385	0.04619
594.02520	0.04580
592.09654	0.04588
590.16789	0.04629
588.23924	0.04639
586.31059	0.04611
584.38193	0.04586
582.45328	0.04570
580.52463	0.04550
578.59597	0.04543
576.66732	0.04568
574.73867	0.04608
572.81001	0.04620
570.88136	0.04570
568.95271	0.04519
567.02405	0.04538
565.09540	0.04596
563.16675	0.04636
561.23809	0.04667
559.30944	0.04694
557.38079	0.04706
555.45213	0.04697
553.52348	0.04671
551.59483	0.04635
549.66617	0.04597
547.73752	0.04560
545.80887	0.04533
543.88021	0.04525
541.95156	0.04532
540.02291	0.04541
538.09425	0.04542
536.16560	0.04546
534.23695	0.04559
532.30829	0.04570
530.37964	0.04559
528.45099	0.04526
526.52233	0.04493
524.59368	0.04472
522.66503	0.04446
520.73637	0.04405
518.80772	0.04362
516.87907	0.04315
514.95042	0.04259
513.02176	0.04224
511.09311	0.04226
509.16446	0.04238
507.23580	0.04228
505.30715	0.04186
503.37850	0.04133
501.44984	0.04112
499.52119	0.04126
497.59254	0.04121
495.66388	0.04077
493.73523	0.04019
491.80658	0.03970
489.87792	0.03934
487.94927	0.03904
486.02062	0.03877
484.09196	0.03849
482.16331	0.03817
480.23466	0.03785
478.30600	0.03760
476.37735	0.03747
474.44870	0.03741
472.52004	0.03727
470.59139	0.03692
468.66274	0.03634
466.73408	0.03575
464.80543	0.03534
462.87678	0.03516
460.94812	0.03506
459.01947	0.03480
457.09082	0.03436
455.16216	0.03392
453.23351	0.03353
451.30486	0.03318
449.37620	0.03288
447.44755	0.03266
445.51890	0.03248
443.59025	0.03231
441.66159	0.03209
439.73294	0.03182
437.80429	0.03163
435.87563	0.03151
433.94698	0.03134
432.01833	0.03111
430.08967	0.03089
428.16102	0.03071
426.23237	0.03045
424.30371	0.03008
422.37506	0.02977
420.44641	0.02960
418.51775	0.02942
416.58910	0.02920
414.66045	0.02898
412.73179	0.02883
410.80314	0.02866
408.87449	0.02843
406.94583	0.02831
405.01718	0.02826
403.08853	0.02812
401.15987	0.02793
399.23122	0.02773
