3996.16951	0.04605
3994.24086	0.04594
3992.31221	0.04558
3990.38355	0.04524
3988.45490	0.04503
3986.52625	0.04483
3984.59759	0.04469
3982.66894	0.04471
3980.74029	0.04502
3978.81163	0.04543
3976.88298	0.04532
3974.95433	0.04472
3973.02567	0.04444
3971.09702	0.04448
3969.16837	0.04438
3967.23972	0.04443
3965.31106	0.04486
3963.38241	0.04516
3961.45376	0.04526
3959.52510	0.04530
3957.59645	0.04508
3955.66780	0.04482
3953.73914	0.04482
3951.81049	0.04492
3949.88184	0.04474
3947.95318	0.04410
3946.02453	0.04337
3944.09588	0.04292
3942.16722	0.04313
3940.23857	0.04379
3938.30992	0.04398
3936.38126	0.04368
3934.45261	0.04358
3932.52396	0.04366
3930.59530	0.04367
3928.66665	0.04353
3926.73800	0.04318
3924.80934	0.04283
3922.88069	0.04296
3920.95204	0.04321
3919.02338	0.04319
3917.09473	0.04312
3915.16608	0.04316
3913.23742	0.04294
3911.30877	0.04282
3909.38012	0.04335
3907.45146	0.04403
3905.52281	0.04399
3903.59416	0.04361
3901.66550	0.04352
3899.73685	0.04329
3897.80820	0.04291
3895.87955	0.04282
3893.95089	0.04287
3892.02224	0.04250
3890.09359	0.04223
3888.16493	0.04224
3886.23628	0.04223
3884.30763	0.04254
3882.37897	0.04227
3880.45032	0.04155
3878.52167	0.04184
3876.59301	0.04243
3874.66436	0.04265
3872.73571	0.04288
3870.80705	0.04252
3868.87840	0.04230
3866.94975	0.04235
3865.02109	0.04203
3863.09244	0.04168
3861.16379	0.04127
3859.23513	0.04189
3857.30648	0.04358
3855.37783	0.04375
3853.44917	0.04252
3851.52052	0.04215
3849.59187	0.04227
3847.66321	0.04210
3845.73456	0.04135
3843.80591	0.04053
3841.87725	0.04062
3839.94860	0.04076
3838.01995	0.04013
3836.09129	0.03977
3834.16264	0.03980
3832.23399	0.03994
3830.30534	0.04012
3828.37668	0.04019
3826.44803	0.04046
3824.51938	0.04086
3822.59072	0.04054
3820.66207	0.04078
3818.73342	0.04149
3816.80476	0.04069
3814.87611	0.04032
3812.94746	0.04113
3811.01880	0.04185
3809.09015	0.04166
3807.16150	0.04067
3805.23284	0.04045
3803.30419	0.03983
3801.37554	0.03891
3799.44688	0.03950
3797.51823	0.03968
3795.58958	0.03892
3793.66092	0.03847
3791.73227	0.03868
3789.80362	0.03935
3787.87496	0.03984
3785.94631	0.03982
3784.01766	0.03947
3782.08900	0.03906
3780.16035	0.03875
3778.23170	0.03873
3776.30304	0.03885
3774.37439	0.03921
3772.44574	0.03937
3770.51708	0.03861
3768.58843	0.03795
3766.65978	0.03798
3764.73112	0.03854
3762.80247	0.03922
3760.87382	0.03921
3758.94517	0.03906
3757.01651	0.03936
3755.08786	0.03959
3753.15921	0.03917
3751.23055	0.03890
3749.30190	0.03922
3747.37325	0.03965
3745.44459	0.03848
3743.51594	0.03777
3741.58729	0.03861
3739.65863	0.03903
3737.72998	0.03864
3735.80133	0.03805
3733.87267	0.03759
3731.94402	0.03668
3730.01537	0.03611
3728.08671	0.03620
3726.15806	0.03677
3724.22941	0.03696
3722.30075	0.03646
3720.37210	0.03627
3718.44345	0.03636
3716.51479	0.03635
3714.58614	0.03596
3712.65749	0.03529
3710.72883	0.03552
3708.80018	0.03643
3706.87153	0.03687
3704.94287	0.03659
3703.01422	0.03599
3701.08557	0.03562
3699.15691	0.03545
3697.22826	0.03530
3695.29961	0.03579
3693.37095	0.03678
3691.44230	0.03719
3689.51365	0.03612
3687.58500	0.03486
3685.65634	0.03479
3683.72769	0.03544
3681.79904	0.03649
3679.87038	0.03729
3677.94173	0.03700
3676.01308	0.03587
3674.08442	0.03584
3672.15577	0.03561
3670.22712	0.03493
3668.29846	0.03550
3666.36981	0.03605
3664.44116	0.03589
3662.51250	0.03602
3660.58385	0.03656
3658.65520	0.03654
3656.72654	0.03602
3654.79789	0.03639
3652.86924	0.03716
3650.94058	0.03730
3649.01193	0.03707
3647.08328	0.03691
3645.15462	0.03713
3643.22597	0.03764
3641.29732	0.03801
3639.36866	0.03827
3637.44001	0.03869
3635.51136	0.03898
3633.58270	0.03902
3631.65405	0.03884
3629.72540	0.03816
3627.79674	0.03816
3625.86809	0.03880
3623.93944	0.03934
3622.01079	0.03983
3620.08213	0.04036
3618.15348	0.04145
3616.22483	0.04260
3614.29617	0.04275
3612.36752	0.04233
3610.43887	0.04202
3608.51021	0.04197
3606.58156	0.04219
3604.65291	0.04234
3602.72425	0.04246
3600.79560	0.04283
3598.86695	0.04345
3596.93829	0.04373
3595.00964	0.04382
3593.08099	0.04457
3591.15233	0.04551
3589.22368	0.04533
3587.29503	0.04441
3585.36637	0.04419
3583.43772	0.04500
3581.50907	0.04609
3579.58041	0.04682
3577.65176	0.04721
3575.72311	0.04754
3573.79445	0.04802
3571.86580	0.04859
3569.93715	0.04884
3568.00849	0.04878
3566.07984	0.04910
3564.15119	0.04986
3562.22253	0.05051
3560.29388	0.05080
3558.36523	0.05112
3556.43657	0.05186
3554.50792	0.05251
3552.57927	0.05262
3550.65062	0.05281
3548.72196	0.05356
3546.79331	0.05437
3544.86466	0.05479
3542.93600	0.05505
3541.00735	0.05538
3539.07870	0.05567
3537.15004	0.05583
3535.22139	0.05593
3533.29274	0.05612
3531.36408	0.05649
3529.43543	0.05709
3527.50678	0.05782
3525.57812	0.05841
3523.64947	0.05850
3521.72082	0.05835
3519.79216	0.05861
3517.86351	0.05945
3515.93486	0.06033
3514.00620	0.06090
3512.07755	0.06130
3510.14890	0.06151
3508.22024	0.06166
3506.29159	0.06206
3504.36294	0.06258
3502.43428	0.06288
3500.50563	0.06300
3498.57698	0.06330
3496.64832	0.06377
3494.71967	0.06419
3492.79102	0.06475
3490.86236	0.06560
3488.93371	0.06620
3487.00506	0.06622
3485.07641	0.06621
3483.14775	0.06643
3481.21910	0.06652
3479.29045	0.06635
3477.36179	0.06627
3475.43314	0.06656
3473.50449	0.06693
3471.57583	0.06712
3469.64718	0.06742
3467.71853	0.06807
3465.78987	0.06891
3463.86122	0.06967
3461.93257	0.07010
3460.00391	0.07023
3458.07526	0.07031
3456.14661	0.07038
3454.21795	0.07036
3452.28930	0.07058
3450.36065	0.07127
3448.43199	0.07197
3446.50334	0.07216
3444.57469	0.07204
3442.64603	0.07209
3440.71738	0.07235
3438.78873	0.07265
3436.86007	0.07306
3434.93142	0.07356
3433.00277	0.07407
3431.07411	0.07454
3429.14546	0.07467
3427.21681	0.07441
3425.28815	0.07444
3423.35950	0.07518
3421.43085	0.07599
3419.50219	0.07623
3417.57354	0.07623
3415.64489	0.07666
3413.71624	0.07735
3411.78758	0.07768
3409.85893	0.07770
3407.93028	0.07773
3406.00162	0.07776
3404.07297	0.07775
3402.14432	0.07775
3400.21566	0.07786
3398.28701	0.07821
3396.35836	0.07891
3394.42970	0.07975
3392.50105	0.08023
3390.57240	0.08016
3388.64374	0.08009
3386.71509	0.08026
3384.78644	0.08022
3382.85778	0.07997
3380.92913	0.08018
3379.00048	0.08083
3377.07182	0.08132
3375.14317	0.08167
3373.21452	0.08226
3371.28586	0.08296
3369.35721	0.08339
3367.42856	0.08373
3365.49990	0.08433
3363.57125	0.08512
3361.64260	0.08587
3359.71394	0.08650
3357.78529	0.08710
3355.85664	0.08774
3353.92798	0.08844
3351.99933	0.08926
3350.07068	0.09010
3348.14202	0.09070
3346.21337	0.09105
3344.28472	0.09152
3342.35607	0.09245
3340.42741	0.09354
3338.49876	0.09430
3336.57011	0.09473
3334.64145	0.09519
3332.71280	0.09583
3330.78415	0.09659
3328.85549	0.09722
3326.92684	0.09741
3324.99819	0.09728
3323.06953	0.09751
3321.14088	0.09826
3319.21223	0.09882
3317.28357	0.09880
3315.35492	0.09874
3313.42627	0.09910
3311.49761	0.09967
3309.56896	0.09998
3307.64031	0.09993
3305.71165	0.09972
3303.78300	0.09960
3301.85435	0.09976
3299.92569	0.10012
3297.99704	0.10030
3296.06839	0.10016
3294.13973	0.09982
3292.21108	0.09948
3290.28243	0.09930
3288.35377	0.09918
3286.42512	0.09903
3284.49647	0.09902
3282.56781	0.09917
3280.63916	0.09927
3278.71051	0.09903
3276.78186	0.09849
3274.85320	0.09791
3272.92455	0.09744
3270.99590	0.09702
3269.06724	0.09660
3267.13859	0.09626
3265.20994	0.09603
3263.28128	0.09568
3261.35263	0.09519
3259.42398	0.09490
3257.49532	0.09472
3255.56667	0.09408
3253.63802	0.09314
3251.70936	0.09250
3249.78071	0.09202
3247.85206	0.09146
3245.92340	0.09108
3243.99475	0.09085
3242.06610	0.09052
3240.13744	0.09025
3238.20879	0.09024
3236.28014	0.09019
3234.35148	0.08979
3232.42283	0.08909
3230.49418	0.08836
3228.56552	0.08792
3226.63687	0.08766
3224.70822	0.08727
3222.77956	0.08696
3220.85091	0.08701
3218.92226	0.08704
3216.99360	0.08679
3215.06495	0.08641
3213.13630	0.08602
3211.20764	0.08557
3209.27899	0.08506
3207.35034	0.08480
3205.42169	0.08499
3203.49303	0.08527
3201.56438	0.08538
3199.63573	0.08520
3197.70707	0.08442
3195.77842	0.08318
3193.84977	0.08207
3191.92111	0.08151
3189.99246	0.08148
3188.06381	0.08162
3186.13515	0.08152
3184.20650	0.08099
3182.27785	0.08018
3180.34919	0.07951
3178.42054	0.07908
3176.49189	0.07862
3174.56323	0.07812
3172.63458	0.07762
3170.70593	0.07681
3168.77727	0.07590
3166.84862	0.07533
3164.91997	0.07492
3162.99131	0.07438
3161.06266	0.07396
3159.13401	0.07377
3157.20535	0.07345
3155.27670	0.07281
3153.34805	0.07209
3151.41939	0.07153
3149.49074	0.07107
3147.56209	0.07062
3145.63343	0.07028
3143.70478	0.07012
3141.77613	0.06994
3139.84748	0.06958
3137.91882	0.06899
3135.99017	0.06834
3134.06152	0.06775
3132.13286	0.06742
3130.20421	0.06742
3128.27556	0.06735
3126.34690	0.06703
3124.41825	0.06676
3122.48960	0.06647
3120.56094	0.06607
3118.63229	0.06600
3116.70364	0.06628
3114.77498	0.06625
3112.84633	0.06586
3110.91768	0.06574
3108.98902	0.06598
3107.06037	0.06632
3105.13172	0.06664
3103.20306	0.06669
3101.27441	0.06652
3099.34576	0.06661
3097.41710	0.06684
3095.48845	0.06685
3093.55980	0.06690
3091.63114	0.06728
3089.70249	0.06770
3087.77384	0.06781
3085.84518	0.06766
3083.91653	0.06762
3081.98788	0.06792
3080.05922	0.06820
3078.13057	0.06810
3076.20192	0.06792
3074.27326	0.06785
3072.34461	0.06770
3070.41596	0.06764
3068.48731	0.06768
3066.55865	0.06754
3064.63000	0.06720
3062.70135	0.06683
3060.77269	0.06650
3058.84404	0.06626
3056.91539	0.06604
3054.98673	0.06571
3053.05808	0.06530
3051.12943	0.06499
3049.20077	0.06471
3047.27212	0.06427
3045.34347	0.06365
3043.41481	0.06298
3041.48616	0.06246
3039.55751	0.06201
3037.62885	0.06147
3035.70020	0.06099
3033.77155	0.06071
3031.84289	0.06055
3029.91424	0.06038
3027.98559	0.06015
3026.05693	0.05982
3024.12828	0.05938
3022.19963	0.05892
3020.27097	0.05849
3018.34232	0.05805
3016.41367	0.05757
3014.48501	0.05716
3012.55636	0.05703
3010.62771	0.05720
3008.69905	0.05741
3006.77040	0.05747
3004.84175	0.05749
3002.91309	0.05748
3000.98444	0.05735
2999.05579	0.05719
2997.12714	0.05703
2995.19848	0.05683
2993.26983	0.05677
2991.34118	0.05713
2989.41252	0.05775
2987.48387	0.05823
2985.55522	0.05849
2983.62656	0.05886
2981.69791	0.05941
2979.76926	0.05993
2977.84060	0.06024
2975.91195	0.06029
2973.98330	0.06029
2972.05464	0.06043
2970.12599	0.06065
2968.19734	0.06092
2966.26868	0.06126
2964.34003	0.06164
2962.41138	0.06191
2960.48272	0.06202
2958.55407	0.06216
2956.62542	0.06244
2954.69676	0.06258
2952.76811	0.06241
2950.83946	0.06216
2948.91080	0.06216
2946.98215	0.06245
2945.05350	0.06265
2943.12484	0.06270
2941.19619	0.06300
2939.26754	0.06350
2937.33888	0.06365
2935.41023	0.06331
2933.48158	0.06290
2931.55293	0.06263
2929.62427	0.06250
2927.69562	0.06257
2925.76697	0.06264
2923.83831	0.06252
2921.90966	0.06223
2919.98101	0.06169
2918.05235	0.06107
2916.12370	0.06038
2914.19505	0.05944
2912.26639	0.05861
2910.33774	0.05817
2908.40909	0.05769
2906.48043	0.05705
2904.55178	0.05649
2902.62313	0.05602
2900.69447	0.05571
2898.76582	0.05564
2896.83717	0.05564
2894.90851	0.05544
2892.97986	0.05498
2891.05121	0.05457
2889.12255	0.05450
2887.19390	0.05472
2885.26525	0.05497
2883.33659	0.05499
2881.40794	0.05486
2879.47929	0.05477
2877.55063	0.05473
2875.62198	0.05470
2873.69333	0.05456
2871.76467	0.05426
2869.83602	0.05393
2867.90737	0.05352
2865.97871	0.05299
2864.05006	0.05250
2862.12141	0.05219
2860.19276	0.05199
2858.26410	0.05183
2856.33545	0.05172
2854.40680	0.05155
2852.47814	0.05135
2850.54949	0.05115
2848.62084	0.05077
2846.69218	0.05021
2844.76353	0.04977
2842.83488	0.04943
2840.90622	0.04892
2838.97757	0.04839
2837.04892	0.04803
2835.12026	0.04776
2833.19161	0.04760
2831.26296	0.04756
2829.33430	0.04743
2827.40565	0.04712
2825.47700	0.04684
2823.54834	0.04667
2821.61969	0.04645
2819.69104	0.04615
2817.76238	0.04600
2815.83373	0.04601
2813.90508	0.04596
2811.97642	0.04584
2810.04777	0.04578
2808.11912	0.04571
2806.19046	0.04553
2804.26181	0.04528
2802.33316	0.04508
2800.40450	0.04499
2798.47585	0.04493
2796.54720	0.04484
2794.61855	0.04463
2792.68989	0.04432
2790.76124	0.04402
2788.83259	0.04380
2786.90393	0.04365
2784.97528	0.04352
2783.04663	0.04342
2781.11797	0.04331
2779.18932	0.04319
2777.26067	0.04314
2775.33201	0.04316
2773.40336	0.04322
2771.47471	0.04326
2769.54605	0.04319
2767.61740	0.04298
2765.68875	0.04273
2763.76009	0.04257
2761.83144	0.04251
2759.90279	0.04240
2757.97413	0.04208
2756.04548	0.04165
2754.11683	0.04134
2752.18817	0.04132
2750.25952	0.04141
2748.33087	0.04140
2746.40221	0.04130
2744.47356	0.04116
2742.54491	0.04094
2740.61625	0.04067
2738.68760	0.04045
2736.75895	0.04038
2734.83029	0.04042
2732.90164	0.04045
2730.97299	0.04039
2729.04433	0.04028
2727.11568	0.04020
2725.18703	0.04012
2723.25838	0.04008
2721.32972	0.04010
2719.40107	0.04000
2717.47242	0.03964
2715.54376	0.03927
2713.61511	0.03914
2711.68646	0.03916
2709.75780	0.03917
2707.82915	0.03907
2705.90050	0.03886
2703.97184	0.03868
2702.04319	0.03862
2700.11454	0.03864
2698.18588	0.03866
2696.25723	0.03868
2694.32858	0.03853
2692.39992	0.03823
2690.47127	0.03803
2688.54262	0.03795
2686.61396	0.03785
2684.68531	0.03779
2682.75666	0.03779
2680.82800	0.03772
2678.89935	0.03765
2676.97070	0.03766
2675.04204	0.03763
2673.11339	0.03759
2671.18474	0.03755
2669.25608	0.03737
2667.32743	0.03719
2665.39878	0.03720
2663.47012	0.03734
2661.54147	0.03735
2659.61282	0.03714
2657.68417	0.03686
2655.75551	0.03667
2653.82686	0.03649
2651.89821	0.03628
2649.96955	0.03609
2648.04090	0.03595
2646.11225	0.03581
2644.18359	0.03561
2642.25494	0.03536
2640.32629	0.03520
2638.39763	0.03509
2636.46898	0.03490
2634.54033	0.03468
2632.61167	0.03452
2630.68302	0.03444
2628.75437	0.03440
2626.82571	0.03430
2624.89706	0.03424
2622.96841	0.03425
2621.03975	0.03400
2619.11110	0.03352
2617.18245	0.03326
2615.25379	0.03325
2613.32514	0.03317
2611.39649	0.03284
2609.46783	0.03229
2607.53918	0.03181
2605.61053	0.03161
2603.68187	0.03164
2601.75322	0.03178
2599.82457	0.03179
2597.89591	0.03162
2595.96726	0.03160
2594.03861	0.03173
2592.10995	0.03172
2590.18130	0.03150
2588.25265	0.03095
2586.32400	0.03016
2584.39534	0.02970
2582.46669	0.02978
2580.53804	0.02998
2578.60938	0.02998
2576.68073	0.03003
2574.75208	0.03019
2572.82342	0.03024
2570.89477	0.03012
2568.96612	0.02982
2567.03746	0.02942
2565.10881	0.02915
2563.18016	0.02903
2561.25150	0.02901
2559.32285	0.02915
2557.39420	0.02933
2555.46554	0.02934
2553.53689	0.02921
2551.60824	0.02898
2549.67958	0.02885
2547.75093	0.02877
2545.82228	0.02854
2543.89362	0.02833
2541.96497	0.02822
2540.03632	0.02815
2538.10766	0.02797
2536.17901	0.02759
2534.25036	0.02725
2532.32170	0.02725
2530.39305	0.02731
2528.46440	0.02706
2526.53574	0.02677
2524.60709	0.02670
2522.67844	0.02675
2520.74978	0.02688
2518.82113	0.02703
2516.89248	0.02713
2514.96383	0.02705
2513.03517	0.02675
2511.10652	0.02647
2509.17787	0.02637
2507.24921	0.02629
2505.32056	0.02617
2503.39191	0.02635
2501.46325	0.02680
2499.53460	0.02693
2497.60595	0.02669
2495.67729	0.02674
2493.74864	0.02706
2491.81999	0.02705
2489.89133	0.02662
2487.96268	0.02621
2486.03403	0.02611
2484.10537	0.02617
2482.17672	0.02617
2480.24807	0.02600
2478.31941	0.02569
2476.39076	0.02544
2474.46211	0.02536
2472.53345	0.02541
2470.60480	0.02569
2468.67615	0.02603
2466.74749	0.02594
2464.81884	0.02556
2462.89019	0.02543
2460.96153	0.02547
2459.03288	0.02534
2457.10423	0.02518
2455.17557	0.02512
2453.24692	0.02498
2451.31827	0.02488
2449.38962	0.02492
2447.46096	0.02476
2445.53231	0.02448
2443.60366	0.02447
2441.67500	0.02470
2439.74635	0.02493
2437.81770	0.02493
2435.88904	0.02473
2433.96039	0.02469
2432.03174	0.02465
2430.10308	0.02441
2428.17443	0.02431
2426.24578	0.02435
2424.31712	0.02444
2422.38847	0.02465
2420.45982	0.02458
2418.53116	0.02426
2416.60251	0.02432
2414.67386	0.02466
2412.74520	0.02470
2410.81655	0.02461
2408.88790	0.02469
2406.95924	0.02469
2405.03059	0.02435
2403.10194	0.02410
2401.17328	0.02443
2399.24463	0.02492
2397.31598	0.02499
2395.38732	0.02462
2393.45867	0.02450
2391.53002	0.02470
2389.60136	0.02481
2387.67271	0.02481
2385.74406	0.02482
2383.81540	0.02482
2381.88675	0.02483
2379.95810	0.02491
2378.02945	0.02511
2376.10079	0.02532
2374.17214	0.02532
2372.24349	0.02522
2370.31483	0.02545
2368.38618	0.02519
2366.45753	0.02537
2364.52887	0.02534
2362.60022	0.02567
2360.67157	0.02514
2358.74291	0.02590
2356.81426	0.02528
2354.88561	0.02550
2352.95695	0.02555
2351.02830	0.02511
2349.09965	0.02523
2347.17099	0.02557
2345.24234	0.02561
2343.31369	0.02562
2341.38503	0.02612
2339.45638	0.02643
2337.52773	0.02629
2335.59907	0.02568
2333.67042	0.02502
2331.74177	0.02463
2329.81311	0.02458
2327.88446	0.02474
2325.95581	0.02494
2324.02715	0.02494
2322.09850	0.02502
2320.16985	0.02500
2318.24119	0.02471
2316.31254	0.02419
2314.38389	0.02382
2312.45524	0.02375
2310.52658	0.02388
2308.59793	0.02396
2306.66928	0.02384
2304.74062	0.02347
2302.81197	0.02303
2300.88332	0.02275
2298.95466	0.02257
2297.02601	0.02251
2295.09736	0.02257
2293.16870	0.02260
2291.24005	0.02237
2289.31140	0.02196
2287.38274	0.02136
2285.45409	0.02053
2283.52544	0.02002
2281.59678	0.02029
2279.66813	0.02074
2277.73948	0.02069
2275.81082	0.02041
2273.88217	0.02016
2271.95352	0.01993
2270.02486	0.01994
2268.09621	0.02003
2266.16756	0.01963
2264.23890	0.01900
2262.31025	0.01895
2260.38160	0.01932
2258.45294	0.01968
2256.52429	0.01994
2254.59564	0.01982
2252.66698	0.01922
2250.73833	0.01864
2248.80968	0.01841
2246.88102	0.01828
2244.95237	0.01791
2243.02372	0.01747
2241.09507	0.01710
2239.16641	0.01668
2237.23776	0.01625
2235.30911	0.01605
2233.38045	0.01624
2231.45180	0.01675
2229.52315	0.01723
2227.59449	0.01726
2225.66584	0.01709
2223.73719	0.01730
2221.80853	0.01719
2219.87988	0.01605
2217.95123	0.01514
2216.02257	0.01495
2214.09392	0.01410
2212.16527	0.01257
2210.23661	0.01187
2208.30796	0.01268
2206.37931	0.01379
2204.45065	0.01367
2202.52200	0.01292
2200.59335	0.01279
2198.66469	0.01300
2196.73604	0.01311
2194.80739	0.01329
2192.87873	0.01339
2190.95008	0.01323
2189.02143	0.01310
2187.09277	0.01301
2185.16412	0.01268
2183.23547	0.01221
2181.30681	0.01197
2179.37816	0.01230
2177.44951	0.01235
2175.52085	0.01097
2173.59220	0.00927
2171.66355	0.00880
2169.73490	0.00929
2167.80624	0.01007
2165.87759	0.01031
2163.94894	0.00933
2162.02028	0.00798
2160.09163	0.00704
2158.16298	0.00662
2156.23432	0.00701
2154.30567	0.00775
2152.37702	0.00855
2150.44836	0.00973
2148.51971	0.01072
2146.59106	0.01128
2144.66240	0.01205
2142.73375	0.01260
2140.80510	0.01274
2138.87644	0.01332
2136.94779	0.01424
2135.01914	0.01455
2133.09048	0.01405
2131.16183	0.01365
2129.23318	0.01392
2127.30452	0.01427
2125.37587	0.01476
2123.44722	0.01571
2121.51856	0.01629
2119.58991	0.01612
2117.66126	0.01569
2115.73260	0.01503
2113.80395	0.01466
2111.87530	0.01516
2109.94664	0.01572
2108.01799	0.01558
2106.08934	0.01524
2104.16069	0.01510
2102.23203	0.01488
2100.30338	0.01443
2098.37473	0.01406
2096.44607	0.01418
2094.51742	0.01464
2092.58877	0.01503
2090.66011	0.01522
2088.73146	0.01521
2086.80281	0.01499
2084.87415	0.01484
2082.94550	0.01489
2081.01685	0.01489
2079.08819	0.01423
2077.15954	0.01298
2075.23089	0.01213
2073.30223	0.01217
2071.37358	0.01277
2069.44493	0.01336
2067.51627	0.01339
2065.58762	0.01276
2063.65897	0.01206
2061.73031	0.01222
2059.80166	0.01301
2057.87301	0.01334
2055.94435	0.01336
2054.01570	0.01357
2052.08705	0.01348
2050.15839	0.01271
2048.22974	0.01169
2046.30109	0.01104
2044.37243	0.01056
2042.44378	0.00986
2040.51513	0.00900
2038.58647	0.00820
2036.65782	0.00806
2034.72917	0.00855
2032.80052	0.00866
2030.87186	0.00844
2028.94321	0.00830
2027.01456	0.00780
2025.08590	0.00685
2023.15725	0.00584
2021.22860	0.00546
2019.29994	0.00654
2017.37129	0.00838
2015.44264	0.00973
2013.51398	0.01050
2011.58533	0.01066
2009.65668	0.00977
2007.72802	0.00790
2005.79937	0.00633
2003.87072	0.00649
2001.94206	0.00790
2000.01341	0.00940
1998.08476	0.01084
1996.15610	0.01189
1994.22745	0.01169
1992.29880	0.01060
1990.37014	0.00994
1988.44149	0.01022
1986.51284	0.01079
1984.58418	0.01091
1982.65553	0.01078
1980.72688	0.01022
1978.79822	0.00874
1976.86957	0.00739
1974.94092	0.00698
1973.01226	0.00682
1971.08361	0.00716
1969.15496	0.00830
1967.22631	0.00893
1965.29765	0.00852
1963.36900	0.00834
1961.44035	0.00895
1959.51169	0.00948
1957.58304	0.00960
1955.65439	0.00995
1953.72573	0.01061
1951.79708	0.01105
1949.86843	0.01131
1947.93977	0.01157
1946.01112	0.01172
1944.08247	0.01170
1942.15381	0.01180
1940.22516	0.01211
1938.29651	0.01226
1936.36785	0.01228
1934.43920	0.01240
1932.51055	0.01259
1930.58189	0.01259
1928.65324	0.01219
1926.72459	0.01165
1924.79593	0.01149
1922.86728	0.01194
1920.93863	0.01251
1919.00997	0.01267
1917.08132	0.01279
1915.15267	0.01292
1913.22401	0.01281
1911.29536	0.01271
1909.36671	0.01263
1907.43805	0.01256
1905.50940	0.01267
1903.58075	0.01288
1901.65209	0.01304
1899.72344	0.01308
1897.79479	0.01290
1895.86614	0.01270
1893.93748	0.01280
1892.00883	0.01314
1890.08018	0.01343
1888.15152	0.01350
1886.22287	0.01325
1884.29422	0.01289
1882.36556	0.01270
1880.43691	0.01271
1878.50826	0.01293
1876.57960	0.01311
1874.65095	0.01307
1872.72230	0.01303
1870.79364	0.01302
1868.86499	0.01288
1866.93634	0.01274
1865.00768	0.01273
1863.07903	0.01286
1861.15038	0.01300
1859.22172	0.01305
1857.29307	0.01313
1855.36442	0.01330
1853.43576	0.01328
1851.50711	0.01291
1849.57846	0.01256
1847.64980	0.01257
1845.72115	0.01265
1843.79250	0.01277
1841.86384	0.01306
1839.93519	0.01308
1838.00654	0.01297
1836.07788	0.01305
1834.14923	0.01324
1832.22058	0.01320
1830.29192	0.01288
1828.36327	0.01270
1826.43462	0.01262
1824.50597	0.01253
1822.57731	0.01252
1820.64866	0.01256
1818.72001	0.01266
1816.79135	0.01277
1814.86270	0.01288
1812.93405	0.01290
1811.00539	0.01288
1809.07674	0.01284
1807.14809	0.01275
1805.21943	0.01271
1803.29078	0.01273
1801.36213	0.01272
1799.43347	0.01274
1797.50482	0.01284
1795.57617	0.01299
1793.64751	0.01298
1791.71886	0.01293
1789.79021	0.01303
1787.86155	0.01298
1785.93290	0.01287
1784.00425	0.01293
1782.07559	0.01301
1780.14694	0.01291
1778.21829	0.01275
1776.28963	0.01266
1774.36098	0.01263
1772.43233	0.01269
1770.50367	0.01293
1768.57502	0.01291
1766.64637	0.01290
1764.71771	0.01302
1762.78906	0.01297
1760.86041	0.01298
1758.93176	0.01305
1757.00310	0.01308
1755.07445	0.01336
1753.14580	0.01356
1751.21714	0.01361
1749.28849	0.01387
1747.35984	0.01413
1745.43118	0.01436
1743.50253	0.01470
1741.57388	0.01501
1739.64522	0.01533
1737.71657	0.01599
1735.78792	0.01634
1733.85926	0.01640
1731.93061	0.01676
1730.00196	0.01700
1728.07330	0.01721
1726.14465	0.01757
1724.21600	0.01798
1722.28734	0.01856
1720.35869	0.01910
1718.43004	0.01932
1716.50138	0.01981
1714.57273	0.02064
1712.64408	0.02144
1710.71542	0.02237
1708.78677	0.02359
1706.85812	0.02521
1704.92946	0.02743
1703.00081	0.02997
1701.07216	0.03224
1699.14350	0.03508
1697.21485	0.03798
1695.28620	0.04066
1693.35754	0.04382
1691.42889	0.04684
1689.50024	0.05010
1687.57159	0.05369
1685.64293	0.05689
1683.71428	0.06032
1681.78563	0.06441
1679.85697	0.06875
1677.92832	0.07349
1675.99967	0.07836
1674.07101	0.08356
1672.14236	0.08895
1670.21371	0.09411
1668.28505	0.09933
1666.35640	0.10449
1664.42775	0.10925
1662.49909	0.11376
1660.57044	0.11802
1658.64179	0.12184
1656.71313	0.12527
1654.78448	0.12764
1652.85583	0.12929
1650.92717	0.13126
1648.99852	0.13262
1647.06987	0.13327
1645.14121	0.13409
1643.21256	0.13501
1641.28391	0.13577
1639.35525	0.13643
1637.42660	0.13659
1635.49795	0.13631
1633.56929	0.13603
1631.64064	0.13516
1629.71199	0.13328
1627.78333	0.13047
1625.85468	0.12670
1623.92603	0.12202
1621.99738	0.11699
1620.06872	0.11181
1618.14007	0.10614
1616.21142	0.10060
1614.28276	0.09571
1612.35411	0.09091
1610.42546	0.08633
1608.49680	0.08222
1606.56815	0.07848
1604.63950	0.07501
1602.71084	0.07191
1600.78219	0.06928
1598.85354	0.06703
1596.92488	0.06505
1594.99623	0.06334
1593.06758	0.06199
1591.13892	0.06107
1589.21027	0.06056
1587.28162	0.06037
1585.35296	0.06046
1583.42431	0.06084
1581.49566	0.06169
1579.56700	0.06299
1577.63835	0.06425
1575.70970	0.06579
1573.78104	0.06815
1571.85239	0.07064
1569.92374	0.07326
1567.99508	0.07632
1566.06643	0.07957
1564.13778	0.08309
1562.20912	0.08662
1560.28047	0.08942
1558.35182	0.09221
1556.42316	0.09514
1554.49451	0.09738
1552.56586	0.09915
1550.63721	0.10048
1548.70855	0.10146
1546.77990	0.10226
1544.85125	0.10284
1542.92259	0.10301
1540.99394	0.10240
1539.06529	0.10156
1537.13663	0.10098
1535.20798	0.09994
1533.27933	0.09858
1531.35067	0.09738
1529.42202	0.09605
1527.49337	0.09448
1525.56471	0.09291
1523.63606	0.09124
1521.70741	0.08928
1519.77875	0.08746
1517.85010	0.08557
1515.92145	0.08347
1513.99279	0.08120
1512.06414	0.07870
1510.13549	0.07620
1508.20683	0.07327
1506.27818	0.07003
1504.34953	0.06730
1502.42087	0.06470
1500.49222	0.06206
1498.56357	0.05950
1496.63491	0.05698
1494.70626	0.05474
1492.77761	0.05271
1490.84895	0.05074
1488.92030	0.04913
1486.99165	0.04792
1485.06299	0.04712
1483.13434	0.04670
1481.20569	0.04666
1479.27704	0.04701
1477.34838	0.04768
1475.41973	0.04864
1473.49108	0.04975
1471.56242	0.05113
1469.63377	0.05279
1467.70512	0.05445
1465.77646	0.05605
1463.84781	0.05775
1461.91916	0.05963
1459.99050	0.06142
1458.06185	0.06276
1456.13320	0.06390
1454.20454	0.06493
1452.27589	0.06540
1450.34724	0.06538
1448.41858	0.06494
1446.48993	0.06424
1444.56128	0.06338
1442.63262	0.06238
1440.70397	0.06141
1438.77532	0.06020
1436.84666	0.05860
1434.91801	0.05708
1432.98936	0.05561
1431.06070	0.05428
1429.13205	0.05336
1427.20340	0.05284
1425.27474	0.05254
1423.34609	0.05246
1421.41744	0.05242
1419.48878	0.05226
1417.56013	0.05230
1415.63148	0.05244
1413.70283	0.05270
1411.77417	0.05314
1409.84552	0.05366
1407.91687	0.05420
1405.98821	0.05467
1404.05956	0.05504
1402.13091	0.05522
1400.20225	0.05507
1398.27360	0.05481
1396.34495	0.05450
1394.41629	0.05419
1392.48764	0.05408
1390.55899	0.05396
1388.63033	0.05366
1386.70168	0.05333
1384.77303	0.05302
1382.84437	0.05260
1380.91572	0.05214
1378.98707	0.05169
1377.05841	0.05116
1375.12976	0.05046
1373.20111	0.04973
1371.27245	0.04896
1369.34380	0.04798
1367.41515	0.04696
1365.48649	0.04605
1363.55784	0.04521
1361.62919	0.04456
1359.70053	0.04414
1357.77188	0.04394
1355.84323	0.04407
1353.91457	0.04448
1351.98592	0.04502
1350.05727	0.04572
1348.12861	0.04665
1346.19996	0.04767
1344.27131	0.04859
1342.34266	0.04939
1340.41400	0.05000
1338.48535	0.05039
1336.55670	0.05052
1334.62804	0.05033
1332.69939	0.04980
1330.77074	0.04895
1328.84208	0.04796
1326.91343	0.04709
1324.98478	0.04642
1323.05612	0.04596
1321.12747	0.04570
1319.19882	0.04554
1317.27016	0.04540
1315.34151	0.04519
1313.41286	0.04484
1311.48420	0.04437
1309.55555	0.04396
1307.62690	0.04370
1305.69824	0.04351
1303.76959	0.04339
1301.84094	0.04329
1299.91228	0.04317
1297.98363	0.04309
1296.05498	0.04313
1294.12632	0.04336
1292.19767	0.04382
1290.26902	0.04446
1288.34036	0.04518
1286.41171	0.04591
1284.48306	0.04659
1282.55440	0.04712
1280.62575	0.04742
1278.69710	0.04752
1276.76845	0.04752
1274.83979	0.04748
1272.91114	0.04747
1270.98249	0.04764
1269.05383	0.04803
1267.12518	0.04855
1265.19653	0.04913
1263.26787	0.04974
1261.33922	0.05036
1259.41057	0.05107
1257.48191	0.05188
1255.55326	0.05277
1253.62461	0.05370
1251.69595	0.05470
1249.76730	0.05580
1247.83865	0.05692
1245.90999	0.05799
1243.98134	0.05902
1242.05269	0.06004
1240.12403	0.06089
1238.19538	0.06140
1236.26673	0.06159
1234.33807	0.06146
1232.40942	0.06093
1230.48077	0.05997
1228.55211	0.05867
1226.62346	0.05709
1224.69481	0.05530
1222.76615	0.05352
1220.83750	0.05199
1218.90885	0.05074
1216.98019	0.04975
1215.05154	0.04910
1213.12289	0.04880
1211.19423	0.04881
1209.26558	0.04905
1207.33693	0.04943
1205.40828	0.04976
1203.47962	0.04985
1201.55097	0.04956
1199.62232	0.04892
1197.69366	0.04786
1195.76501	0.04664
1193.83636	0.04541
1191.90770	0.04429
1189.97905	0.04331
1188.05040	0.04247
1186.12174	0.04174
1184.19309	0.04111
1182.26444	0.04065
1180.33578	0.04032
1178.40713	0.04003
1176.47848	0.03982
1174.54982	0.03971
1172.62117	0.03959
1170.69252	0.03942
1168.76386	0.03924
1166.83521	0.03915
1164.90656	0.03918
1162.97790	0.03918
1161.04925	0.03896
1159.12060	0.03847
1157.19194	0.03782
1155.26329	0.03716
1153.33464	0.03647
1151.40598	0.03572
1149.47733	0.03502
1147.54868	0.03441
1145.62002	0.03392
1143.69137	0.03353
1141.76272	0.03314
1139.83406	0.03269
1137.90541	0.03221
1135.97676	0.03183
1134.04811	0.03167
1132.11945	0.03169
1130.19080	0.03181
1128.26215	0.03191
1126.33349	0.03186
1124.40484	0.03172
1122.47619	0.03158
1120.54753	0.03147
1118.61888	0.03132
1116.69023	0.03126
1114.76157	0.03131
1112.83292	0.03139
1110.90427	0.03153
1108.97561	0.03178
1107.04696	0.03206
1105.11831	0.03235
1103.18965	0.03273
1101.26100	0.03319
1099.33235	0.03366
1097.40369	0.03415
1095.47504	0.03464
1093.54639	0.03517
1091.61773	0.03596
1089.68908	0.03698
1087.76043	0.03795
1085.83177	0.03877
1083.90312	0.03950
1081.97447	0.04003
1080.04581	0.04029
1078.11716	0.04031
1076.18851	0.04003
1074.25985	0.03950
1072.33120	0.03898
1070.40255	0.03858
1068.47390	0.03834
1066.54524	0.03828
1064.61659	0.03833
1062.68794	0.03832
1060.75928	0.03818
1058.83063	0.03792
1056.90198	0.03752
1054.97332	0.03701
1053.04467	0.03649
1051.11602	0.03606
1049.18736	0.03570
1047.25871	0.03544
1045.33006	0.03529
1043.40140	0.03518
1041.47275	0.03513
1039.54410	0.03528
1037.61544	0.03559
1035.68679	0.03595
1033.75814	0.03623
1031.82948	0.03627
1029.90083	0.03596
1027.97218	0.03539
1026.04352	0.03470
1024.11487	0.03397
1022.18622	0.03322
1020.25756	0.03252
1018.32891	0.03196
1016.40026	0.03155
1014.47160	0.03112
1012.54295	0.03058
1010.61430	0.03004
1008.68564	0.02956
1006.75699	0.02906
1004.82834	0.02855
1002.89968	0.02809
1000.97103	0.02767
999.04238	0.02721
997.11373	0.02675
995.18507	0.02639
993.25642	0.02616
991.32777	0.02602
989.39911	0.02580
987.47046	0.02555
985.54181	0.02540
983.61315	0.02535
981.68450	0.02541
979.75585	0.02555
977.82719	0.02570
975.89854	0.02575
973.96989	0.02569
972.04123	0.02561
970.11258	0.02550
968.18393	0.02535
966.25527	0.02515
964.32662	0.02487
962.39797	0.02466
960.46931	0.02462
958.54066	0.02457
956.61201	0.02433
954.68335	0.02405
952.75470	0.02384
950.82605	0.02370
948.89739	0.02364
946.96874	0.02373
945.04009	0.02389
943.11143	0.02405
941.18278	0.02417
939.25413	0.02416
937.32547	0.02402
935.39682	0.02394
933.46817	0.02403
931.53952	0.02412
929.61086	0.02409
927.68221	0.02393
925.75356	0.02381
923.82490	0.02385
921.89625	0.02396
919.96760	0.02398
918.03894	0.02387
916.11029	0.02374
914.18164	0.02364
912.25298	0.02354
910.32433	0.02333
908.39568	0.02303
906.46702	0.02281
904.53837	0.02270
902.60972	0.02259
900.68106	0.02243
898.75241	0.02242
896.82376	0.02272
894.89510	0.02301
892.96645	0.02293
891.03780	0.02269
889.10914	0.02257
887.18049	0.02253
885.25184	0.02243
883.32318	0.02231
881.39453	0.02233
879.46588	0.02245
877.53722	0.02251
875.60857	0.02250
873.67992	0.02248
871.75126	0.02252
869.82261	0.02261
867.89396	0.02259
865.96530	0.02242
864.03665	0.02227
862.10800	0.02224
860.17935	0.02221
858.25069	0.02222
856.32204	0.02241
854.39339	0.02265
852.46473	0.02279
850.53608	0.02285
848.60743	0.02281
846.67877	0.02273
844.75012	0.02276
842.82147	0.02279
840.89281	0.02276
838.96416	0.02274
837.03551	0.02277
835.10685	0.02277
833.17820	0.02276
831.24955	0.02295
829.32089	0.02329
827.39224	0.02350
825.46359	0.02356
823.53493	0.02370
821.60628	0.02400
819.67763	0.02439
817.74897	0.02473
815.82032	0.02491
813.89167	0.02490
811.96301	0.02482
810.03436	0.02484
808.10571	0.02500
806.17705	0.02526
804.24840	0.02557
802.31975	0.02588
800.39109	0.02609
798.46244	0.02625
796.53379	0.02646
794.60513	0.02670
792.67648	0.02694
790.74783	0.02726
788.81918	0.02751
786.89052	0.02756
784.96187	0.02755
783.03322	0.02772
781.10456	0.02804
779.17591	0.02832
777.24726	0.02846
775.31860	0.02857
773.38995	0.02885
771.46130	0.02927
769.53264	0.02959
767.60399	0.02974
765.67534	0.02984
763.74668	0.03001
761.81803	0.03025
759.88938	0.03046
757.96072	0.03062
756.03207	0.03093
754.10342	0.03141
752.17476	0.03186
750.24611	0.03213
748.31746	0.03219
746.38880	0.03225
744.46015	0.03245
742.53150	0.03275
740.60284	0.03301
738.67419	0.03315
736.74554	0.03333
734.81688	0.03366
732.88823	0.03390
730.95958	0.03406
729.03092	0.03435
727.10227	0.03479
725.17362	0.03516
723.24497	0.03536
721.31631	0.03558
719.38766	0.03582
717.45901	0.03615
715.53035	0.03649
713.60170	0.03671
711.67305	0.03688
709.74439	0.03713
707.81574	0.03750
705.88709	0.03795
703.95843	0.03835
702.02978	0.03860
700.10113	0.03873
698.17247	0.03884
696.24382	0.03896
694.31517	0.03904
692.38651	0.03908
690.45786	0.03916
688.52921	0.03935
686.60055	0.03961
684.67190	0.03983
682.74325	0.04006
680.81459	0.04036
678.88594	0.04065
676.95729	0.04084
675.02863	0.04099
673.09998	0.04116
671.17133	0.04130
669.24267	0.04139
667.31402	0.04151
665.38537	0.04166
663.45671	0.04189
661.52806	0.04214
659.59941	0.04235
657.67075	0.04248
655.74210	0.04254
653.81345	0.04249
651.88480	0.04241
649.95614	0.04250
648.02749	0.04281
646.09884	0.04304
644.17018	0.04303
642.24153	0.04298
640.31288	0.04302
638.38422	0.04314
636.45557	0.04330
634.52692	0.04348
632.59826	0.04365
630.66961	0.04413
628.74096	0.04545
626.81230	0.04444
624.88365	0.04353
622.95500	0.04387
621.02634	0.04424
619.09769	0.04400
617.16904	0.04526
615.24038	0.04764
613.31173	0.04884
611.38308	0.04854
609.45442	0.04767
607.52577	0.04653
605.59712	0.04540
603.66846	0.04494
601.73981	0.04474
599.81116	0.04422
597.88250	0.04370
595.95385	0.04327
594.02520	0.04293
592.09654	0.04294
590.16789	0.04314
588.23924	0.04312
586.31059	0.04306
584.38193	0.04324
582.45328	0.04343
580.52463	0.04341
578.59597	0.04335
576.66732	0.04340
574.73867	0.04355
572.81001	0.04361
570.88136	0.04335
568.95271	0.04301
567.02405	0.04303
565.09540	0.04334
563.16675	0.04366
561.23809	0.04394
559.30944	0.04410
557.38079	0.04407
555.45213	0.04395
553.52348	0.04381
551.59483	0.04372
549.66617	0.04366
547.73752	0.04352
545.80887	0.04313
543.88021	0.04274
541.95156	0.04273
540.02291	0.04295
538.09425	0.04304
536.16560	0.04297
534.23695	0.04294
532.30829	0.04295
530.37964	0.04291
528.45099	0.04280
526.52233	0.04252
524.59368	0.04201
522.66503	0.04144
520.73637	0.04111
518.80772	0.04097
516.87907	0.04073
514.95042	0.04038
513.02176	0.04014
511.09311	0.04002
509.16446	0.03987
507.23580	0.03966
505.30715	0.03933
503.37850	0.03883
501.44984	0.03844
499.52119	0.03842
497.59254	0.03843
495.66388	0.03809
493.73523	0.03764
491.80658	0.03741
489.87792	0.03721
487.94927	0.03686
486.02062	0.03659
484.09196	0.03634
482.16331	0.03583
480.23466	0.03523
478.30600	0.03489
476.37735	0.03482
474.44870	0.03476
472.52004	0.03450
470.59139	0.03408
468.66274	0.03364
466.73408	0.03335
464.80543	0.03320
462.87678	0.03304
460.94812	0.03278
459.01947	0.03246
457.09082	0.03211
455.16216	0.03167
453.23351	0.03121
451.30486	0.03088
449.37620	0.03071
447.44755	0.03058
445.51890	0.03035
443.59025	0.03009
441.66159	0.02985
439.73294	0.02960
437.80429	0.02943
435.87563	0.02933
433.94698	0.02918
432.01833	0.02900
430.08967	0.02877
428.16102	0.02844
426.23237	0.02812
424.30371	0.02792
422.37506	0.02785
420.44641	0.02771
418.51775	0.02746
416.58910	0.02717
414.66045	0.02687
412.73179	0.02670
410.80314	0.02665
408.87449	0.02661
406.94583	0.02652
405.01718	0.02635
403.08853	0.02608
401.15987	0.02579
399.23122	0.02553
