3996.16951	0.03527
3994.24086	0.03534
3992.31221	0.03514
3990.38355	0.03525
3988.45490	0.03564
3986.52625	0.03569
3984.59759	0.03541
3982.66894	0.03528
3980.74029	0.03557
3978.81163	0.03605
3976.88298	0.03617
3974.95433	0.03568
3973.02567	0.03492
3971.09702	0.03425
3969.16837	0.03396
3967.23972	0.03436
3965.31106	0.03510
3963.38241	0.03559
3961.45376	0.03576
3959.52510	0.03567
3957.59645	0.03531
3955.66780	0.03511
3953.73914	0.03542
3951.81049	0.03596
3949.88184	0.03622
3947.95318	0.03587
3946.02453	0.03514
3944.09588	0.03457
3942.16722	0.03434
3940.23857	0.03421
3938.30992	0.03396
3936.38126	0.03368
3934.45261	0.03370
3932.52396	0.03397
3930.59530	0.03395
3928.66665	0.03355
3926.73800	0.03330
3924.80934	0.03343
3922.88069	0.03384
3920.95204	0.03433
3919.02338	0.03448
3917.09473	0.03423
3915.16608	0.03402
3913.23742	0.03393
3911.30877	0.03387
3909.38012	0.03401
3907.45146	0.03431
3905.52281	0.03439
3903.59416	0.03420
3901.66550	0.03406
3899.73685	0.03392
3897.80820	0.03363
3895.87955	0.03332
3893.95089	0.03302
3892.02224	0.03276
3890.09359	0.03261
3888.16493	0.03265
3886.23628	0.03304
3884.30763	0.03355
3882.37897	0.03352
3880.45032	0.03302
3878.52167	0.03280
3876.59301	0.03291
3874.66436	0.03287
3872.73571	0.03283
3870.80705	0.03309
3868.87840	0.03325
3866.94975	0.03303
3865.02109	0.03295
3863.09244	0.03311
3861.16379	0.03299
3859.23513	0.03266
3857.30648	0.03260
3855.37783	0.03285
3853.44917	0.03341
3851.52052	0.03381
3849.59187	0.03352
3847.66321	0.03291
3845.73456	0.03229
3843.80591	0.03153
3841.87725	0.03109
3839.94860	0.03136
3838.01995	0.03182
3836.09129	0.03180
3834.16264	0.03142
3832.23399	0.03121
3830.30534	0.03145
3828.37668	0.03176
3826.44803	0.03137
3824.51938	0.03033
3822.59072	0.02973
3820.66207	0.03016
3818.73342	0.03072
3816.80476	0.03080
3814.87611	0.03085
3812.94746	0.03105
3811.01880	0.03112
3809.09015	0.03104
3807.16150	0.03091
3805.23284	0.03056
3803.30419	0.02985
3801.37554	0.02959
3799.44688	0.03037
3797.51823	0.03110
3795.58958	0.03070
3793.66092	0.02989
3791.73227	0.02997
3789.80362	0.03073
3787.87496	0.03116
3785.94631	0.03112
3784.01766	0.03078
3782.08900	0.03027
3780.16035	0.02981
3778.23170	0.02941
3776.30304	0.02897
3774.37439	0.02903
3772.44574	0.02982
3770.51708	0.03059
3768.58843	0.03086
3766.65978	0.03081
3764.73112	0.03067
3762.80247	0.03058
3760.87382	0.03032
3758.94517	0.03004
3757.01651	0.03012
3755.08786	0.03024
3753.15921	0.03022
3751.23055	0.03036
3749.30190	0.03045
3747.37325	0.03005
3745.44459	0.02950
3743.51594	0.02934
3741.58729	0.02941
3739.65863	0.02916
3737.72998	0.02873
3735.80133	0.02864
3733.87267	0.02873
3731.94402	0.02837
3730.01537	0.02774
3728.08671	0.02780
3726.15806	0.02859
3724.22941	0.02906
3722.30075	0.02880
3720.37210	0.02826
3718.44345	0.02782
3716.51479	0.02748
3714.58614	0.02714
3712.65749	0.02703
3710.72883	0.02763
3708.80018	0.02853
3706.87153	0.02885
3704.94287	0.02854
3703.01422	0.02816
3701.08557	0.02792
3699.15691	0.02758
3697.22826	0.02719
3695.29961	0.02737
3693.37095	0.02807
3691.44230	0.02825
3689.51365	0.02748
3687.58500	0.02665
3685.65634	0.02663
3683.72769	0.02740
3681.79904	0.02827
3679.87038	0.02843
3677.94173	0.02786
3676.01308	0.02712
3674.08442	0.02652
3672.15577	0.02630
3670.22712	0.02675
3668.29846	0.02738
3666.36981	0.02737
3664.44116	0.02708
3662.51250	0.02746
3660.58385	0.02830
3658.65520	0.02864
3656.72654	0.02831
3654.79789	0.02771
3652.86924	0.02717
3650.94058	0.02725
3649.01193	0.02819
3647.08328	0.02910
3645.15462	0.02934
3643.22597	0.02938
3641.29732	0.02968
3639.36866	0.02998
3637.44001	0.02996
3635.51136	0.02961
3633.58270	0.02905
3631.65405	0.02858
3629.72540	0.02852
3627.79674	0.02891
3625.86809	0.02937
3623.93944	0.02969
3622.01079	0.03010
3620.08213	0.03054
3618.15348	0.03078
3616.22483	0.03106
3614.29617	0.03162
3612.36752	0.03213
3610.43887	0.03213
3608.51021	0.03173
3606.58156	0.03146
3604.65291	0.03158
3602.72425	0.03210
3600.79560	0.03288
3598.86695	0.03347
3596.93829	0.03363
3595.00964	0.03367
3593.08099	0.03399
3591.15233	0.03423
3589.22368	0.03368
3587.29503	0.03271
3585.36637	0.03256
3583.43772	0.03332
3581.50907	0.03390
3579.58041	0.03414
3577.65176	0.03486
3575.72311	0.03559
3573.79445	0.03537
3571.86580	0.03473
3569.93715	0.03457
3568.00849	0.03490
3566.07984	0.03548
3564.15119	0.03604
3562.22253	0.03640
3560.29388	0.03670
3558.36523	0.03722
3556.43657	0.03773
3554.50792	0.03789
3552.57927	0.03784
3550.65062	0.03783
3548.72196	0.03789
3546.79331	0.03797
3544.86466	0.03818
3542.93600	0.03859
3541.00735	0.03881
3539.07870	0.03867
3537.15004	0.03863
3535.22139	0.03886
3533.29274	0.03919
3531.36408	0.03964
3529.43543	0.04012
3527.50678	0.04062
3525.57812	0.04123
3523.64947	0.04153
3521.72082	0.04129
3519.79216	0.04111
3517.86351	0.04150
3515.93486	0.04214
3514.00620	0.04247
3512.07755	0.04256
3510.14890	0.04274
3508.22024	0.04304
3506.29159	0.04324
3504.36294	0.04336
3502.43428	0.04346
3500.50563	0.04350
3498.57698	0.04369
3496.64832	0.04401
3494.71967	0.04427
3492.79102	0.04459
3490.86236	0.04506
3488.93371	0.04543
3487.00506	0.04530
3485.07641	0.04491
3483.14775	0.04491
3481.21910	0.04527
3479.29045	0.04559
3477.36179	0.04580
3475.43314	0.04583
3473.50449	0.04577
3471.57583	0.04591
3469.64718	0.04632
3467.71853	0.04674
3465.78987	0.04714
3463.86122	0.04746
3461.93257	0.04739
3460.00391	0.04716
3458.07526	0.04729
3456.14661	0.04762
3454.21795	0.04779
3452.28930	0.04792
3450.36065	0.04821
3448.43199	0.04869
3446.50334	0.04907
3444.57469	0.04902
3442.64603	0.04882
3440.71738	0.04884
3438.78873	0.04895
3436.86007	0.04910
3434.93142	0.04925
3433.00277	0.04951
3431.07411	0.04994
3429.14546	0.05012
3427.21681	0.04993
3425.28815	0.04993
3423.35950	0.05021
3421.43085	0.05043
3419.50219	0.05064
3417.57354	0.05117
3415.64489	0.05197
3413.71624	0.05234
3411.78758	0.05205
3409.85893	0.05177
3407.93028	0.05189
3406.00162	0.05223
3404.07297	0.05258
3402.14432	0.05281
3400.21566	0.05292
3398.28701	0.05303
3396.35836	0.05334
3394.42970	0.05378
3392.50105	0.05397
3390.57240	0.05390
3388.64374	0.05401
3386.71509	0.05428
3384.78644	0.05422
3382.85778	0.05388
3380.92913	0.05378
3379.00048	0.05411
3377.07182	0.05462
3375.14317	0.05506
3373.21452	0.05539
3371.28586	0.05552
3369.35721	0.05547
3367.42856	0.05550
3365.49990	0.05570
3363.57125	0.05593
3361.64260	0.05624
3359.71394	0.05667
3357.78529	0.05704
3355.85664	0.05731
3353.92798	0.05779
3351.99933	0.05865
3350.07068	0.05946
3348.14202	0.05976
3346.21337	0.05957
3344.28472	0.05927
3342.35607	0.05951
3340.42741	0.06038
3338.49876	0.06120
3336.57011	0.06158
3334.64145	0.06183
3332.71280	0.06228
3330.78415	0.06300
3328.85549	0.06375
3326.92684	0.06421
3324.99819	0.06424
3323.06953	0.06406
3321.14088	0.06408
3319.21223	0.06427
3317.28357	0.06441
3315.35492	0.06458
3313.42627	0.06481
3311.49761	0.06511
3309.56896	0.06556
3307.64031	0.06594
3305.71165	0.06602
3303.78300	0.06593
3301.85435	0.06595
3299.92569	0.06607
3297.99704	0.06615
3296.06839	0.06613
3294.13973	0.06604
3292.21108	0.06591
3290.28243	0.06578
3288.35377	0.06575
3286.42512	0.06576
3284.49647	0.06566
3282.56781	0.06574
3280.63916	0.06602
3278.71051	0.06607
3276.78186	0.06589
3274.85320	0.06570
3272.92455	0.06533
3270.99590	0.06478
3269.06724	0.06440
3267.13859	0.06424
3265.20994	0.06402
3263.28128	0.06372
3261.35263	0.06354
3259.42398	0.06351
3257.49532	0.06354
3255.56667	0.06354
3253.63802	0.06353
3251.70936	0.06350
3249.78071	0.06316
3247.85206	0.06249
3245.92340	0.06201
3243.99475	0.06183
3242.06610	0.06178
3240.13744	0.06194
3238.20879	0.06219
3236.28014	0.06220
3234.35148	0.06181
3232.42283	0.06111
3230.49418	0.06040
3228.56552	0.06018
3226.63687	0.06051
3224.70822	0.06077
3222.77956	0.06069
3220.85091	0.06045
3218.92226	0.06025
3216.99360	0.06014
3215.06495	0.06002
3213.13630	0.05984
3211.20764	0.05960
3209.27899	0.05934
3207.35034	0.05918
3205.42169	0.05913
3203.49303	0.05918
3201.56438	0.05914
3199.63573	0.05865
3197.70707	0.05784
3195.77842	0.05721
3193.84977	0.05686
3191.92111	0.05679
3189.99246	0.05710
3188.06381	0.05754
3186.13515	0.05761
3184.20650	0.05722
3182.27785	0.05680
3180.34919	0.05667
3178.42054	0.05661
3176.49189	0.05630
3174.56323	0.05583
3172.63458	0.05531
3170.70593	0.05461
3168.77727	0.05393
3166.84862	0.05357
3164.91997	0.05341
3162.99131	0.05318
3161.06266	0.05293
3159.13401	0.05279
3157.20535	0.05253
3155.27670	0.05193
3153.34805	0.05133
3151.41939	0.05102
3149.49074	0.05084
3147.56209	0.05069
3145.63343	0.05062
3143.70478	0.05048
3141.77613	0.05029
3139.84748	0.05018
3137.91882	0.05004
3135.99017	0.04971
3134.06152	0.04921
3132.13286	0.04883
3130.20421	0.04872
3128.27556	0.04861
3126.34690	0.04843
3124.41825	0.04838
3122.48960	0.04831
3120.56094	0.04813
3118.63229	0.04819
3116.70364	0.04839
3114.77498	0.04825
3112.84633	0.04796
3110.91768	0.04805
3108.98902	0.04842
3107.06037	0.04850
3105.13172	0.04817
3103.20306	0.04780
3101.27441	0.04753
3099.34576	0.04740
3097.41710	0.04733
3095.48845	0.04732
3093.55980	0.04764
3091.63114	0.04815
3089.70249	0.04834
3087.77384	0.04817
3085.84518	0.04801
3083.91653	0.04810
3081.98788	0.04839
3080.05922	0.04864
3078.13057	0.04876
3076.20192	0.04885
3074.27326	0.04889
3072.34461	0.04883
3070.41596	0.04877
3068.48731	0.04878
3066.55865	0.04877
3064.63000	0.04847
3062.70135	0.04788
3060.77269	0.04752
3058.84404	0.04768
3056.91539	0.04804
3054.98673	0.04820
3053.05808	0.04804
3051.12943	0.04766
3049.20077	0.04732
3047.27212	0.04710
3045.34347	0.04685
3043.41481	0.04654
3041.48616	0.04628
3039.55751	0.04597
3037.62885	0.04544
3035.70020	0.04490
3033.77155	0.04466
3031.84289	0.04464
3029.91424	0.04462
3027.98559	0.04452
3026.05693	0.04428
3024.12828	0.04385
3022.19963	0.04333
3020.27097	0.04296
3018.34232	0.04285
3016.41367	0.04279
3014.48501	0.04265
3012.55636	0.04252
3010.62771	0.04254
3008.69905	0.04263
3006.77040	0.04265
3004.84175	0.04256
3002.91309	0.04244
3000.98444	0.04225
2999.05579	0.04200
2997.12714	0.04186
2995.19848	0.04194
2993.26983	0.04217
2991.34118	0.04241
2989.41252	0.04256
2987.48387	0.04270
2985.55522	0.04297
2983.62656	0.04330
2981.69791	0.04370
2979.76926	0.04415
2977.84060	0.04435
2975.91195	0.04424
2973.98330	0.04425
2972.05464	0.04464
2970.12599	0.04522
2968.19734	0.04568
2966.26868	0.04598
2964.34003	0.04633
2962.41138	0.04680
2960.48272	0.04726
2958.55407	0.04750
2956.62542	0.04756
2954.69676	0.04771
2952.76811	0.04793
2950.83946	0.04795
2948.91080	0.04777
2946.98215	0.04766
2945.05350	0.04774
2943.12484	0.04781
2941.19619	0.04787
2939.26754	0.04825
2937.33888	0.04876
2935.41023	0.04892
2933.48158	0.04887
2931.55293	0.04899
2929.62427	0.04930
2927.69562	0.04979
2925.76697	0.05025
2923.83831	0.05041
2921.90966	0.05023
2919.98101	0.04980
2918.05235	0.04940
2916.12370	0.04904
2914.19505	0.04844
2912.26639	0.04769
2910.33774	0.04711
2908.40909	0.04669
2906.48043	0.04624
2904.55178	0.04569
2902.62313	0.04508
2900.69447	0.04458
2898.76582	0.04414
2896.83717	0.04376
2894.90851	0.04362
2892.97986	0.04357
2891.05121	0.04350
2889.12255	0.04365
2887.19390	0.04392
2885.26525	0.04382
2883.33659	0.04340
2881.40794	0.04309
2879.47929	0.04301
2877.55063	0.04311
2875.62198	0.04330
2873.69333	0.04334
2871.76467	0.04310
2869.83602	0.04289
2867.90737	0.04280
2865.97871	0.04260
2864.05006	0.04230
2862.12141	0.04197
2860.19276	0.04169
2858.26410	0.04152
2856.33545	0.04138
2854.40680	0.04131
2852.47814	0.04138
2850.54949	0.04128
2848.62084	0.04093
2846.69218	0.04054
2844.76353	0.04024
2842.83488	0.03996
2840.90622	0.03954
2838.97757	0.03911
2837.04892	0.03888
2835.12026	0.03868
2833.19161	0.03830
2831.26296	0.03798
2829.33430	0.03781
2827.40565	0.03759
2825.47700	0.03723
2823.54834	0.03684
2821.61969	0.03664
2819.69104	0.03669
2817.76238	0.03677
2815.83373	0.03672
2813.90508	0.03663
2811.97642	0.03662
2810.04777	0.03657
2808.11912	0.03637
2806.19046	0.03619
2804.26181	0.03611
2802.33316	0.03610
2800.40450	0.03612
2798.47585	0.03610
2796.54720	0.03586
2794.61855	0.03552
2792.68989	0.03537
2790.76124	0.03533
2788.83259	0.03515
2786.90393	0.03489
2784.97528	0.03471
2783.04663	0.03464
2781.11797	0.03460
2779.18932	0.03460
2777.26067	0.03459
2775.33201	0.03449
2773.40336	0.03433
2771.47471	0.03424
2769.54605	0.03418
2767.61740	0.03402
2765.68875	0.03387
2763.76009	0.03386
2761.83144	0.03388
2759.90279	0.03381
2757.97413	0.03361
2756.04548	0.03340
2754.11683	0.03334
2752.18817	0.03341
2750.25952	0.03341
2748.33087	0.03331
2746.40221	0.03333
2744.47356	0.03339
2742.54491	0.03321
2740.61625	0.03288
2738.68760	0.03268
2736.75895	0.03261
2734.83029	0.03249
2732.90164	0.03230
2730.97299	0.03218
2729.04433	0.03206
2727.11568	0.03192
2725.18703	0.03192
2723.25838	0.03208
2721.32972	0.03231
2719.40107	0.03234
2717.47242	0.03201
2715.54376	0.03160
2713.61511	0.03141
2711.68646	0.03143
2709.75780	0.03151
2707.82915	0.03154
2705.90050	0.03143
2703.97184	0.03125
2702.04319	0.03122
2700.11454	0.03130
2698.18588	0.03135
2696.25723	0.03128
2694.32858	0.03097
2692.39992	0.03059
2690.47127	0.03049
2688.54262	0.03068
2686.61396	0.03076
2684.68531	0.03068
2682.75666	0.03065
2680.82800	0.03065
2678.89935	0.03060
2676.97070	0.03054
2675.04204	0.03041
2673.11339	0.03032
2671.18474	0.03033
2669.25608	0.03026
2667.32743	0.03004
2665.39878	0.02993
2663.47012	0.02992
2661.54147	0.02982
2659.61282	0.02957
2657.68417	0.02931
2655.75551	0.02913
2653.82686	0.02894
2651.89821	0.02872
2649.96955	0.02854
2648.04090	0.02843
2646.11225	0.02841
2644.18359	0.02837
2642.25494	0.02823
2640.32629	0.02809
2638.39763	0.02792
2636.46898	0.02752
2634.54033	0.02713
2632.61167	0.02705
2630.68302	0.02713
2628.75437	0.02706
2626.82571	0.02686
2624.89706	0.02677
2622.96841	0.02670
2621.03975	0.02642
2619.11110	0.02608
2617.18245	0.02598
2615.25379	0.02611
2613.32514	0.02612
2611.39649	0.02592
2609.46783	0.02564
2607.53918	0.02528
2605.61053	0.02500
2603.68187	0.02508
2601.75322	0.02546
2599.82457	0.02559
2597.89591	0.02518
2595.96726	0.02477
2594.03861	0.02481
2592.10995	0.02498
2590.18130	0.02481
2588.25265	0.02426
2586.32400	0.02379
2584.39534	0.02383
2582.46669	0.02415
2580.53804	0.02445
2578.60938	0.02449
2576.68073	0.02413
2574.75208	0.02375
2572.82342	0.02381
2570.89477	0.02408
2568.96612	0.02403
2567.03746	0.02369
2565.10881	0.02338
2563.18016	0.02330
2561.25150	0.02322
2559.32285	0.02305
2557.39420	0.02310
2555.46554	0.02330
2553.53689	0.02339
2551.60824	0.02342
2549.67958	0.02343
2547.75093	0.02346
2545.82228	0.02354
2543.89362	0.02359
2541.96497	0.02344
2540.03632	0.02310
2538.10766	0.02257
2536.17901	0.02197
2534.25036	0.02174
2532.32170	0.02200
2530.39305	0.02229
2528.46440	0.02233
2526.53574	0.02231
2524.60709	0.02234
2522.67844	0.02230
2520.74978	0.02216
2518.82113	0.02211
2516.89248	0.02217
2514.96383	0.02202
2513.03517	0.02175
2511.10652	0.02175
2509.17787	0.02199
2507.24921	0.02207
2505.32056	0.02178
2503.39191	0.02157
2501.46325	0.02167
2499.53460	0.02166
2497.60595	0.02148
2495.67729	0.02157
2493.74864	0.02193
2491.81999	0.02221
2489.89133	0.02228
2487.96268	0.02230
2486.03403	0.02229
2484.10537	0.02208
2482.17672	0.02172
2480.24807	0.02136
2478.31941	0.02106
2476.39076	0.02110
2474.46211	0.02151
2472.53345	0.02178
2470.60480	0.02174
2468.67615	0.02159
2466.74749	0.02132
2464.81884	0.02119
2462.89019	0.02137
2460.96153	0.02143
2459.03288	0.02111
2457.10423	0.02071
2455.17557	0.02040
2453.24692	0.02020
2451.31827	0.02029
2449.38962	0.02049
2447.46096	0.02045
2445.53231	0.02033
2443.60366	0.02038
2441.67500	0.02046
2439.74635	0.02045
2437.81770	0.02048
2435.88904	0.02066
2433.96039	0.02099
2432.03174	0.02124
2430.10308	0.02119
2428.17443	0.02092
2426.24578	0.02071
2424.31712	0.02078
2422.38847	0.02093
2420.45982	0.02073
2418.53116	0.02052
2416.60251	0.02073
2414.67386	0.02084
2412.74520	0.02059
2410.81655	0.02062
2408.88790	0.02107
2406.95924	0.02130
2405.03059	0.02103
2403.10194	0.02066
2401.17328	0.02054
2399.24463	0.02063
2397.31598	0.02068
2395.38732	0.02069
2393.45867	0.02090
2391.53002	0.02122
2389.60136	0.02138
2387.67271	0.02144
2385.74406	0.02153
2383.81540	0.02158
2381.88675	0.02154
2379.95810	0.02150
2378.02945	0.02155
2376.10079	0.02168
2374.17214	0.02179
2372.24349	0.02187
2370.31483	0.02204
2368.38618	0.02228
2366.45753	0.02241
2364.52887	0.02227
2362.60022	0.02197
2360.67157	0.02181
2358.74291	0.02189
2356.81426	0.02199
2354.88561	0.02189
2352.95695	0.02164
2351.02830	0.02141
2349.09965	0.02137
2347.17099	0.02151
2345.24234	0.02160
2343.31369	0.02152
2341.38503	0.02147
2339.45638	0.02160
2337.52773	0.02174
2335.59907	0.02177
2333.67042	0.02172
2331.74177	0.02154
2329.81311	0.02123
2327.88446	0.02085
2325.95581	0.02037
2324.02715	0.01992
2322.09850	0.01975
2320.16985	0.01981
2318.24119	0.01980
2316.31254	0.01964
2314.38389	0.01946
2312.45524	0.01945
2310.52658	0.01952
2308.59793	0.01944
2306.66928	0.01922
2304.74062	0.01897
2302.81197	0.01861
2300.88332	0.01825
2298.95466	0.01806
2297.02601	0.01800
2295.09736	0.01788
2293.16870	0.01748
2291.24005	0.01689
2289.31140	0.01656
2287.38274	0.01650
2285.45409	0.01631
2283.52544	0.01609
2281.59678	0.01622
2279.66813	0.01655
2277.73948	0.01655
2275.81082	0.01626
2273.88217	0.01594
2271.95352	0.01562
2270.02486	0.01544
2268.09621	0.01540
2266.16756	0.01535
2264.23890	0.01563
2262.31025	0.01639
2260.38160	0.01686
2258.45294	0.01647
2256.52429	0.01562
2254.59564	0.01476
2252.66698	0.01395
2250.73833	0.01350
2248.80968	0.01385
2246.88102	0.01467
2244.95237	0.01493
2243.02372	0.01413
2241.09507	0.01319
2239.16641	0.01298
2237.23776	0.01293
2235.30911	0.01263
2233.38045	0.01286
2231.45180	0.01373
2229.52315	0.01414
2227.59449	0.01360
2225.66584	0.01302
2223.73719	0.01328
2221.80853	0.01383
2219.87988	0.01342
2217.95123	0.01254
2216.02257	0.01232
2214.09392	0.01219
2212.16527	0.01155
2210.23661	0.01087
2208.30796	0.01065
2206.37931	0.01063
2204.45065	0.01029
2202.52200	0.01025
2200.59335	0.01093
2198.66469	0.01133
2196.73604	0.01107
2194.80739	0.01082
2192.87873	0.01075
2190.95008	0.01056
2189.02143	0.01001
2187.09277	0.00914
2185.16412	0.00850
2183.23547	0.00901
2181.30681	0.01072
2179.37816	0.01181
2177.44951	0.01093
2175.52085	0.00901
2173.59220	0.00750
2171.66355	0.00714
2169.73490	0.00753
2167.80624	0.00738
2165.87759	0.00638
2163.94894	0.00530
2162.02028	0.00451
2160.09163	0.00453
2158.16298	0.00603
2156.23432	0.00816
2154.30567	0.00895
2152.37702	0.00839
2150.44836	0.00822
2148.51971	0.00865
2146.59106	0.00925
2144.66240	0.01075
2142.73375	0.01265
2140.80510	0.01358
2138.87644	0.01357
2136.94779	0.01337
2135.01914	0.01339
2133.09048	0.01346
2131.16183	0.01329
2129.23318	0.01286
2127.30452	0.01275
2125.37587	0.01352
2123.44722	0.01425
2121.51856	0.01388
2119.58991	0.01325
2117.66126	0.01324
2115.73260	0.01325
2113.80395	0.01313
2111.87530	0.01326
2109.94664	0.01339
2108.01799	0.01337
2106.08934	0.01343
2104.16069	0.01345
2102.23203	0.01301
2100.30338	0.01224
2098.37473	0.01132
2096.44607	0.01131
2094.51742	0.01205
2092.58877	0.01260
2090.66011	0.01262
2088.73146	0.01250
2086.80281	0.01238
2084.87415	0.01226
2082.94550	0.01193
2081.01685	0.01139
2079.08819	0.01065
2077.15954	0.00992
2075.23089	0.00957
2073.30223	0.00965
2071.37358	0.00969
2069.44493	0.00908
2067.51627	0.00826
2065.58762	0.00812
2063.65897	0.00855
2061.73031	0.00913
2059.80166	0.00982
2057.87301	0.01050
2055.94435	0.01094
2054.01570	0.01078
2052.08705	0.00951
2050.15839	0.00724
2048.22974	0.00532
2046.30109	0.00509
2044.37243	0.00615
2042.44378	0.00713
2040.51513	0.00756
2038.58647	0.00751
2036.65782	0.00721
2034.72917	0.00680
2032.80052	0.00603
2030.87186	0.00500
2028.94321	0.00434
2027.01456	0.00433
2025.08590	0.00438
2023.15725	0.00357
2021.22860	0.00276
2019.29994	0.00342
2017.37129	0.00508
2015.44264	0.00662
2013.51398	0.00748
2011.58533	0.00723
2009.65668	0.00598
2007.72802	0.00491
2005.79937	0.00529
2003.87072	0.00684
2001.94206	0.00833
2000.01341	0.00921
1998.08476	0.00953
1996.15610	0.00934
1994.22745	0.00895
1992.29880	0.00877
1990.37014	0.00855
1988.44149	0.00809
1986.51284	0.00800
1984.58418	0.00850
1982.65553	0.00823
1980.72688	0.00600
1978.79822	0.00342
1976.86957	0.00266
1974.94092	0.00288
1973.01226	0.00303
1971.08361	0.00380
1969.15496	0.00502
1967.22631	0.00582
1965.29765	0.00649
1963.36900	0.00745
1961.44035	0.00837
1959.51169	0.00889
1957.58304	0.00892
1955.65439	0.00875
1953.72573	0.00845
1951.79708	0.00808
1949.86843	0.00806
1947.93977	0.00849
1946.01112	0.00918
1944.08247	0.00990
1942.15381	0.01028
1940.22516	0.01032
1938.29651	0.01029
1936.36785	0.01022
1934.43920	0.01007
1932.51055	0.00987
1930.58189	0.00964
1928.65324	0.00958
1926.72459	0.00985
1924.79593	0.01023
1922.86728	0.01061
1920.93863	0.01087
1919.00997	0.01078
1917.08132	0.01054
1915.15267	0.01051
1913.22401	0.01070
1911.29536	0.01086
1909.36671	0.01078
1907.43805	0.01079
1905.50940	0.01094
1903.58075	0.01090
1901.65209	0.01079
1899.72344	0.01084
1897.79479	0.01096
1895.86614	0.01096
1893.93748	0.01079
1892.00883	0.01067
1890.08018	0.01086
1888.15152	0.01109
1886.22287	0.01117
1884.29422	0.01132
1882.36556	0.01145
1880.43691	0.01132
1878.50826	0.01120
1876.57960	0.01127
1874.65095	0.01126
1872.72230	0.01113
1870.79364	0.01096
1868.86499	0.01085
1866.93634	0.01092
1865.00768	0.01104
1863.07903	0.01105
1861.15038	0.01108
1859.22172	0.01121
1857.29307	0.01138
1855.36442	0.01160
1853.43576	0.01171
1851.50711	0.01149
1849.57846	0.01111
1847.64980	0.01094
1845.72115	0.01109
1843.79250	0.01137
1841.86384	0.01148
1839.93519	0.01133
1838.00654	0.01123
1836.07788	0.01131
1834.14923	0.01124
1832.22058	0.01093
1830.29192	0.01076
1828.36327	0.01080
1826.43462	0.01077
1824.50597	0.01056
1822.57731	0.01028
1820.64866	0.01014
1818.72001	0.01031
1816.79135	0.01078
1814.86270	0.01127
1812.93405	0.01150
1811.00539	0.01147
1809.07674	0.01132
1807.14809	0.01118
1805.21943	0.01118
1803.29078	0.01127
1801.36213	0.01122
1799.43347	0.01102
1797.50482	0.01086
1795.57617	0.01085
1793.64751	0.01090
1791.71886	0.01098
1789.79021	0.01107
1787.86155	0.01103
1785.93290	0.01082
1784.00425	0.01065
1782.07559	0.01059
1780.14694	0.01056
1778.21829	0.01053
1776.28963	0.01048
1774.36098	0.01048
1772.43233	0.01063
1770.50367	0.01089
1768.57502	0.01104
1766.64637	0.01101
1764.71771	0.01094
1762.78906	0.01090
1760.86041	0.01085
1758.93176	0.01079
1757.00310	0.01089
1755.07445	0.01109
1753.14580	0.01117
1751.21714	0.01122
1749.28849	0.01148
1747.35984	0.01185
1745.43118	0.01211
1743.50253	0.01224
1741.57388	0.01239
1739.64522	0.01259
1737.71657	0.01279
1735.78792	0.01295
1733.85926	0.01314
1731.93061	0.01333
1730.00196	0.01350
1728.07330	0.01371
1726.14465	0.01397
1724.21600	0.01418
1722.28734	0.01435
1720.35869	0.01449
1718.43004	0.01464
1716.50138	0.01493
1714.57273	0.01537
1712.64408	0.01591
1710.71542	0.01652
1708.78677	0.01724
1706.85812	0.01816
1704.92946	0.01928
1703.00081	0.02054
1701.07216	0.02191
1699.14350	0.02349
1697.21485	0.02528
1695.28620	0.02720
1693.35754	0.02918
1691.42889	0.03109
1689.50024	0.03296
1687.57159	0.03487
1685.64293	0.03683
1683.71428	0.03892
1681.78563	0.04128
1679.85697	0.04395
1677.92832	0.04677
1675.99967	0.04956
1674.07101	0.05233
1672.14236	0.05519
1670.21371	0.05814
1668.28505	0.06114
1666.35640	0.06409
1664.42775	0.06691
1662.49909	0.06963
1660.57044	0.07222
1658.64179	0.07455
1656.71313	0.07649
1654.78448	0.07811
1652.85583	0.07960
1650.92717	0.08099
1648.99852	0.08219
1647.06987	0.08326
1645.14121	0.08433
1643.21256	0.08544
1641.28391	0.08644
1639.35525	0.08722
1637.42660	0.08779
1635.49795	0.08826
1633.56929	0.08867
1631.64064	0.08887
1629.71199	0.08874
1627.78333	0.08814
1625.85468	0.08691
1623.92603	0.08509
1621.99738	0.08290
1620.06872	0.08040
1618.14007	0.07763
1616.21142	0.07484
1614.28276	0.07213
1612.35411	0.06938
1610.42546	0.06654
1608.49680	0.06380
1606.56815	0.06130
1604.63950	0.05894
1602.71084	0.05667
1600.78219	0.05460
1598.85354	0.05281
1596.92488	0.05121
1594.99623	0.04968
1593.06758	0.04836
1591.13892	0.04739
1589.21027	0.04670
1587.28162	0.04619
1585.35296	0.04586
1583.42431	0.04572
1581.49566	0.04575
1579.56700	0.04593
1577.63835	0.04629
1575.70970	0.04699
1573.78104	0.04810
1571.85239	0.04944
1569.92374	0.05096
1567.99508	0.05268
1566.06643	0.05452
1564.13778	0.05638
1562.20912	0.05814
1560.28047	0.05986
1558.35182	0.06175
1556.42316	0.06370
1554.49451	0.06543
1552.56586	0.06687
1550.63721	0.06807
1548.70855	0.06905
1546.77990	0.06988
1544.85125	0.07060
1542.92259	0.07107
1540.99394	0.07131
1539.06529	0.07153
1537.13663	0.07175
1535.20798	0.07181
1533.27933	0.07166
1531.35067	0.07140
1529.42202	0.07107
1527.49337	0.07063
1525.56471	0.07001
1523.63606	0.06926
1521.70741	0.06849
1519.77875	0.06777
1517.85010	0.06704
1515.92145	0.06624
1513.99279	0.06523
1512.06414	0.06391
1510.13549	0.06228
1508.20683	0.06045
1506.27818	0.05860
1504.34953	0.05683
1502.42087	0.05500
1500.49222	0.05303
1498.56357	0.05110
1496.63491	0.04931
1494.70626	0.04754
1492.77761	0.04578
1490.84895	0.04416
1488.92030	0.04276
1486.99165	0.04157
1485.06299	0.04062
1483.13434	0.03993
1481.20569	0.03945
1479.27704	0.03926
1477.34838	0.03938
1475.41973	0.03976
1473.49108	0.04038
1471.56242	0.04127
1469.63377	0.04235
1467.70512	0.04348
1465.77646	0.04457
1463.84781	0.04566
1461.91916	0.04678
1459.99050	0.04786
1458.06185	0.04888
1456.13320	0.04984
1454.20454	0.05068
1452.27589	0.05125
1450.34724	0.05155
1448.41858	0.05155
1446.48993	0.05132
1444.56128	0.05098
1442.63262	0.05056
1440.70397	0.05003
1438.77532	0.04935
1436.84666	0.04852
1434.91801	0.04756
1432.98936	0.04656
1431.06070	0.04565
1429.13205	0.04492
1427.20340	0.04442
1425.27474	0.04409
1423.34609	0.04387
1421.41744	0.04370
1419.48878	0.04355
1417.56013	0.04348
1415.63148	0.04353
1413.70283	0.04368
1411.77417	0.04387
1409.84552	0.04411
1407.91687	0.04440
1405.98821	0.04470
1404.05956	0.04491
1402.13091	0.04496
1400.20225	0.04486
1398.27360	0.04471
1396.34495	0.04455
1394.41629	0.04437
1392.48764	0.04422
1390.55899	0.04411
1388.63033	0.04397
1386.70168	0.04382
1384.77303	0.04368
1382.84437	0.04355
1380.91572	0.04346
1378.98707	0.04338
1377.05841	0.04320
1375.12976	0.04284
1373.20111	0.04227
1371.27245	0.04156
1369.34380	0.04083
1367.41515	0.04014
1365.48649	0.03946
1363.55784	0.03882
1361.62919	0.03830
1359.70053	0.03794
1357.77188	0.03768
1355.84323	0.03759
1353.91457	0.03772
1351.98592	0.03799
1350.05727	0.03838
1348.12861	0.03893
1346.19996	0.03959
1344.27131	0.04020
1342.34266	0.04075
1340.41400	0.04123
1338.48535	0.04154
1336.55670	0.04170
1334.62804	0.04172
1332.69939	0.04149
1330.77074	0.04098
1328.84208	0.04039
1326.91343	0.03988
1324.98478	0.03944
1323.05612	0.03904
1321.12747	0.03876
1319.19882	0.03864
1317.27016	0.03858
1315.34151	0.03842
1313.41286	0.03816
1311.48420	0.03790
1309.55555	0.03766
1307.62690	0.03739
1305.69824	0.03713
1303.76959	0.03695
1301.84094	0.03685
1299.91228	0.03670
1297.98363	0.03653
1296.05498	0.03649
1294.12632	0.03666
1292.19767	0.03698
1290.26902	0.03736
1288.34036	0.03779
1286.41171	0.03828
1284.48306	0.03875
1282.55440	0.03913
1280.62575	0.03939
1278.69710	0.03954
1276.76845	0.03962
1274.83979	0.03965
1272.91114	0.03971
1270.98249	0.03984
1269.05383	0.04005
1267.12518	0.04029
1265.19653	0.04060
1263.26787	0.04096
1261.33922	0.04134
1259.41057	0.04174
1257.48191	0.04225
1255.55326	0.04286
1253.62461	0.04353
1251.69595	0.04426
1249.76730	0.04503
1247.83865	0.04579
1245.90999	0.04660
1243.98134	0.04744
1242.05269	0.04827
1240.12403	0.04901
1238.19538	0.04952
1236.26673	0.04982
1234.33807	0.05001
1232.40942	0.05005
1230.48077	0.04982
1228.55211	0.04927
1226.62346	0.04841
1224.69481	0.04734
1222.76615	0.04627
1220.83750	0.04533
1218.90885	0.04451
1216.98019	0.04382
1215.05154	0.04329
1213.12289	0.04297
1211.19423	0.04289
1209.26558	0.04301
1207.33693	0.04324
1205.40828	0.04344
1203.47962	0.04349
1201.55097	0.04339
1199.62232	0.04331
1197.69366	0.04274
1195.76501	0.04201
1193.83636	0.04128
1191.90770	0.04056
1189.97905	0.03980
1188.05040	0.03906
1186.12174	0.03844
1184.19309	0.03793
1182.26444	0.03755
1180.33578	0.03730
1178.40713	0.03712
1176.47848	0.03700
1174.54982	0.03693
1172.62117	0.03684
1170.69252	0.03672
1168.76386	0.03656
1166.83521	0.03644
1164.90656	0.03647
1162.97790	0.03651
1161.04925	0.03640
1159.12060	0.03617
1157.19194	0.03582
1155.26329	0.03537
1153.33464	0.03485
1151.40598	0.03415
1149.47733	0.03335
1147.54868	0.03271
1145.62002	0.03231
1143.69137	0.03200
1141.76272	0.03167
1139.83406	0.03129
1137.90541	0.03094
1135.97676	0.03064
1134.04811	0.03044
1132.11945	0.03034
1130.19080	0.03028
1128.26215	0.03020
1126.33349	0.03015
1124.40484	0.03011
1122.47619	0.02997
1120.54753	0.02977
1118.61888	0.02964
1116.69023	0.02963
1114.76157	0.02959
1112.83292	0.02954
1110.90427	0.02963
1108.97561	0.02986
1107.04696	0.03005
1105.11831	0.03018
1103.18965	0.03037
1101.26100	0.03064
1099.33235	0.03095
1097.40369	0.03125
1095.47504	0.03158
1093.54639	0.03198
1091.61773	0.03246
1089.68908	0.03306
1087.76043	0.03379
1085.83177	0.03459
1083.90312	0.03533
1081.97447	0.03594
1080.04581	0.03633
1078.11716	0.03652
1076.18851	0.03646
1074.25985	0.03617
1072.33120	0.03586
1070.40255	0.03562
1068.47390	0.03548
1066.54524	0.03547
1064.61659	0.03551
1062.68794	0.03553
1060.75928	0.03548
1058.83063	0.03535
1056.90198	0.03515
1054.97332	0.03488
1053.04467	0.03456
1051.11602	0.03426
1049.18736	0.03396
1047.25871	0.03368
1045.33006	0.03350
1043.40140	0.03340
1041.47275	0.03336
1039.54410	0.03345
1037.61544	0.03365
1035.68679	0.03391
1033.75814	0.03418
1031.82948	0.03429
1029.90083	0.03409
1027.97218	0.03366
1026.04352	0.03317
1024.11487	0.03264
1022.18622	0.03203
1020.25756	0.03145
1018.32891	0.03100
1016.40026	0.03075
1014.47160	0.03056
1012.54295	0.03023
1010.61430	0.02970
1008.68564	0.02910
1006.75699	0.02861
1004.82834	0.02821
1002.89968	0.02783
1000.97103	0.02750
999.04238	0.02721
997.11373	0.02694
995.18507	0.02676
993.25642	0.02657
991.32777	0.02625
989.39911	0.02590
987.47046	0.02568
985.54181	0.02554
983.61315	0.02538
981.68450	0.02529
979.75585	0.02531
977.82719	0.02536
975.89854	0.02535
973.96989	0.02532
972.04123	0.02531
970.11258	0.02527
968.18393	0.02514
966.25527	0.02494
964.32662	0.02466
962.39797	0.02442
960.46931	0.02434
958.54066	0.02428
956.61201	0.02411
954.68335	0.02391
952.75470	0.02374
950.82605	0.02356
948.89739	0.02345
946.96874	0.02350
945.04009	0.02358
943.11143	0.02361
941.18278	0.02367
939.25413	0.02373
937.32547	0.02368
935.39682	0.02366
933.46817	0.02379
931.53952	0.02387
929.61086	0.02376
927.68221	0.02361
925.75356	0.02358
923.82490	0.02359
921.89625	0.02357
919.96760	0.02356
918.03894	0.02351
916.11029	0.02332
914.18164	0.02313
912.25298	0.02303
910.32433	0.02291
908.39568	0.02278
906.46702	0.02272
904.53837	0.02260
902.60972	0.02236
900.68106	0.02215
898.75241	0.02217
896.82376	0.02238
894.89510	0.02247
892.96645	0.02230
891.03780	0.02210
889.10914	0.02200
887.18049	0.02190
885.25184	0.02183
883.32318	0.02191
881.39453	0.02204
879.46588	0.02215
877.53722	0.02227
875.60857	0.02234
873.67992	0.02233
871.75126	0.02222
869.82261	0.02208
867.89396	0.02190
865.96530	0.02165
864.03665	0.02146
862.10800	0.02146
860.17935	0.02157
858.25069	0.02165
856.32204	0.02170
854.39339	0.02179
852.46473	0.02191
850.53608	0.02203
848.60743	0.02211
846.67877	0.02210
844.75012	0.02203
842.82147	0.02191
840.89281	0.02175
838.96416	0.02163
837.03551	0.02159
835.10685	0.02159
833.17820	0.02157
831.24955	0.02166
829.32089	0.02187
827.39224	0.02195
825.46359	0.02190
823.53493	0.02205
821.60628	0.02242
819.67763	0.02276
817.74897	0.02298
815.82032	0.02317
813.89167	0.02330
811.96301	0.02336
810.03436	0.02346
808.10571	0.02361
806.17705	0.02372
804.24840	0.02378
802.31975	0.02384
800.39109	0.02384
798.46244	0.02380
796.53379	0.02385
794.60513	0.02404
792.67648	0.02428
790.74783	0.02454
788.81918	0.02480
786.89052	0.02500
784.96187	0.02511
783.03322	0.02512
781.10456	0.02517
779.17591	0.02532
777.24726	0.02553
775.31860	0.02576
773.38995	0.02597
771.46130	0.02614
769.53264	0.02631
767.60399	0.02646
765.67534	0.02662
763.74668	0.02684
761.81803	0.02712
759.88938	0.02735
757.96072	0.02748
756.03207	0.02768
754.10342	0.02803
752.17476	0.02837
750.24611	0.02863
748.31746	0.02874
746.38880	0.02878
744.46015	0.02898
742.53150	0.02918
740.60284	0.02921
738.67419	0.02933
736.74554	0.02965
734.81688	0.03008
732.88823	0.03046
730.95958	0.03068
729.03092	0.03071
727.10227	0.03071
725.17362	0.03087
723.24497	0.03109
721.31631	0.03131
719.38766	0.03158
717.45901	0.03197
715.53035	0.03233
713.60170	0.03251
711.67305	0.03259
709.74439	0.03273
707.81574	0.03299
705.88709	0.03330
703.95843	0.03363
702.02978	0.03389
700.10113	0.03402
698.17247	0.03410
696.24382	0.03423
694.31517	0.03435
692.38651	0.03442
690.45786	0.03451
688.52921	0.03466
686.60055	0.03484
684.67190	0.03505
682.74325	0.03529
680.81459	0.03553
678.88594	0.03576
676.95729	0.03594
675.02863	0.03614
673.09998	0.03634
671.17133	0.03648
669.24267	0.03658
667.31402	0.03669
665.38537	0.03681
663.45671	0.03703
661.52806	0.03727
659.59941	0.03740
657.67075	0.03750
655.74210	0.03759
653.81345	0.03759
651.88480	0.03759
649.95614	0.03775
648.02749	0.03800
646.09884	0.03826
644.17018	0.03847
642.24153	0.03852
640.31288	0.03855
638.38422	0.03868
636.45557	0.03878
634.52692	0.03878
632.59826	0.03858
630.66961	0.03911
628.74096	0.04214
626.81230	0.03858
624.88365	0.03307
622.95500	0.02931
621.02634	0.02882
619.09769	0.03019
617.16904	0.03350
615.24038	0.03834
613.31173	0.04047
611.38308	0.03778
609.45442	0.03435
607.52577	0.03371
605.59712	0.03504
603.66846	0.03726
601.73981	0.03903
599.81116	0.03959
597.88250	0.03972
595.95385	0.03980
594.02520	0.03964
592.09654	0.03959
590.16789	0.03991
588.23924	0.04011
586.31059	0.03993
584.38193	0.03974
582.45328	0.03975
580.52463	0.03983
578.59597	0.03989
576.66732	0.03992
574.73867	0.03995
572.81001	0.03995
570.88136	0.03981
568.95271	0.03966
567.02405	0.03978
565.09540	0.04016
563.16675	0.04061
561.23809	0.04093
559.30944	0.04105
557.38079	0.04100
555.45213	0.04093
553.52348	0.04111
551.59483	0.04141
549.66617	0.04146
547.73752	0.04140
545.80887	0.04128
543.88021	0.04101
541.95156	0.04073
540.02291	0.04067
538.09425	0.04078
536.16560	0.04090
534.23695	0.04101
532.30829	0.04102
530.37964	0.04086
528.45099	0.04069
526.52233	0.04066
524.59368	0.04065
522.66503	0.04043
520.73637	0.04014
518.80772	0.04004
516.87907	0.03992
514.95042	0.03961
513.02176	0.03934
511.09311	0.03925
509.16446	0.03923
507.23580	0.03920
505.30715	0.03899
503.37850	0.03863
501.44984	0.03851
499.52119	0.03871
497.59254	0.03869
495.66388	0.03821
493.73523	0.03768
491.80658	0.03742
489.87792	0.03725
487.94927	0.03701
486.02062	0.03680
484.09196	0.03664
482.16331	0.03635
480.23466	0.03600
478.30600	0.03584
476.37735	0.03585
474.44870	0.03570
472.52004	0.03531
470.59139	0.03495
468.66274	0.03477
466.73408	0.03467
464.80543	0.03450
462.87678	0.03421
460.94812	0.03387
459.01947	0.03344
457.09082	0.03303
455.16216	0.03280
453.23351	0.03266
451.30486	0.03235
449.37620	0.03192
447.44755	0.03163
445.51890	0.03153
443.59025	0.03150
441.66159	0.03135
439.73294	0.03104
437.80429	0.03077
435.87563	0.03069
433.94698	0.03059
432.01833	0.03038
430.08967	0.03018
428.16102	0.03001
426.23237	0.02979
424.30371	0.02958
422.37506	0.02940
420.44641	0.02916
418.51775	0.02890
416.58910	0.02872
414.66045	0.02862
412.73179	0.02851
410.80314	0.02835
408.87449	0.02818
406.94583	0.02807
405.01718	0.02799
403.08853	0.02791
401.15987	0.02785
399.23122	0.02777
