3996.16951	0.05238
3994.24086	0.05193
3992.31221	0.05125
3990.38355	0.05108
3988.45490	0.05176
3986.52625	0.05241
3984.59759	0.05240
3982.66894	0.05231
3980.74029	0.05260
3978.81163	0.05275
3976.88298	0.05259
3974.95433	0.05248
3973.02567	0.05234
3971.09702	0.05191
3969.16837	0.05152
3967.23972	0.05168
3965.31106	0.05217
3963.38241	0.05230
3961.45376	0.05198
3959.52510	0.05175
3957.59645	0.05180
3955.66780	0.05194
3953.73914	0.05194
3951.81049	0.05167
3949.88184	0.05129
3947.95318	0.05104
3946.02453	0.05093
3944.09588	0.05086
3942.16722	0.05102
3940.23857	0.05129
3938.30992	0.05097
3936.38126	0.05024
3934.45261	0.04999
3932.52396	0.05021
3930.59530	0.05043
3928.66665	0.05043
3926.73800	0.05000
3924.80934	0.04929
3922.88069	0.04893
3920.95204	0.04920
3919.02338	0.04969
3917.09473	0.04981
3915.16608	0.04952
3913.23742	0.04920
3911.30877	0.04916
3909.38012	0.04947
3907.45146	0.04995
3905.52281	0.05011
3903.59416	0.04976
3901.66550	0.04950
3899.73685	0.04944
3897.80820	0.04918
3895.87955	0.04897
3893.95089	0.04907
3892.02224	0.04916
3890.09359	0.04878
3888.16493	0.04814
3886.23628	0.04794
3884.30763	0.04817
3882.37897	0.04842
3880.45032	0.04852
3878.52167	0.04857
3876.59301	0.04866
3874.66436	0.04875
3872.73571	0.04886
3870.80705	0.04905
3868.87840	0.04920
3866.94975	0.04919
3865.02109	0.04907
3863.09244	0.04897
3861.16379	0.04877
3859.23513	0.04847
3857.30648	0.04835
3855.37783	0.04858
3853.44917	0.04881
3851.52052	0.04867
3849.59187	0.04815
3847.66321	0.04754
3845.73456	0.04692
3843.80591	0.04619
3841.87725	0.04568
3839.94860	0.04596
3838.01995	0.04658
3836.09129	0.04647
3834.16264	0.04577
3832.23399	0.04543
3830.30534	0.04566
3828.37668	0.04605
3826.44803	0.04616
3824.51938	0.04602
3822.59072	0.04613
3820.66207	0.04646
3818.73342	0.04653
3816.80476	0.04645
3814.87611	0.04646
3812.94746	0.04629
3811.01880	0.04594
3809.09015	0.04580
3807.16150	0.04595
3805.23284	0.04572
3803.30419	0.04503
3801.37554	0.04473
3799.44688	0.04491
3797.51823	0.04482
3795.58958	0.04434
3793.66092	0.04407
3791.73227	0.04431
3789.80362	0.04468
3787.87496	0.04481
3785.94631	0.04466
3784.01766	0.04410
3782.08900	0.04352
3780.16035	0.04354
3778.23170	0.04383
3776.30304	0.04368
3774.37439	0.04353
3772.44574	0.04377
3770.51708	0.04376
3768.58843	0.04340
3766.65978	0.04325
3764.73112	0.04332
3762.80247	0.04344
3760.87382	0.04351
3758.94517	0.04359
3757.01651	0.04378
3755.08786	0.04394
3753.15921	0.04400
3751.23055	0.04383
3749.30190	0.04321
3747.37325	0.04258
3745.44459	0.04246
3743.51594	0.04251
3741.58729	0.04246
3739.65863	0.04256
3737.72998	0.04260
3735.80133	0.04239
3733.87267	0.04216
3731.94402	0.04171
3730.01537	0.04117
3728.08671	0.04099
3726.15806	0.04136
3724.22941	0.04164
3722.30075	0.04147
3720.37210	0.04132
3718.44345	0.04133
3716.51479	0.04109
3714.58614	0.04059
3712.65749	0.04039
3710.72883	0.04089
3708.80018	0.04162
3706.87153	0.04169
3704.94287	0.04125
3703.01422	0.04098
3701.08557	0.04104
3699.15691	0.04123
3697.22826	0.04117
3695.29961	0.04088
3693.37095	0.04056
3691.44230	0.04033
3689.51365	0.04023
3687.58500	0.04026
3685.65634	0.04033
3683.72769	0.04028
3681.79904	0.04023
3679.87038	0.04035
3677.94173	0.04060
3676.01308	0.04083
3674.08442	0.04091
3672.15577	0.04081
3670.22712	0.04082
3668.29846	0.04100
3666.36981	0.04089
3664.44116	0.04060
3662.51250	0.04073
3660.58385	0.04098
3658.65520	0.04096
3656.72654	0.04091
3654.79789	0.04076
3652.86924	0.04054
3650.94058	0.04089
3649.01193	0.04173
3647.08328	0.04252
3645.15462	0.04308
3643.22597	0.04343
3641.29732	0.04381
3639.36866	0.04419
3637.44001	0.04424
3635.51136	0.04417
3633.58270	0.04414
3631.65405	0.04375
3629.72540	0.04372
3627.79674	0.04473
3625.86809	0.04565
3623.93944	0.04554
3622.01079	0.04549
3620.08213	0.04621
3618.15348	0.04741
3616.22483	0.04851
3614.29617	0.04885
3612.36752	0.04875
3610.43887	0.04888
3608.51021	0.04921
3606.58156	0.04922
3604.65291	0.04902
3602.72425	0.04926
3600.79560	0.05030
3598.86695	0.05133
3596.93829	0.05158
3595.00964	0.05159
3593.08099	0.05193
3591.15233	0.05230
3589.22368	0.05239
3587.29503	0.05250
3585.36637	0.05306
3583.43772	0.05398
3581.50907	0.05486
3579.58041	0.05549
3577.65176	0.05591
3575.72311	0.05625
3573.79445	0.05665
3571.86580	0.05708
3569.93715	0.05757
3568.00849	0.05817
3566.07984	0.05888
3564.15119	0.05964
3562.22253	0.06014
3560.29388	0.06024
3558.36523	0.06059
3556.43657	0.06145
3554.50792	0.06212
3552.57927	0.06238
3550.65062	0.06278
3548.72196	0.06345
3546.79331	0.06394
3544.86466	0.06428
3542.93600	0.06493
3541.00735	0.06560
3539.07870	0.06576
3537.15004	0.06575
3535.22139	0.06602
3533.29274	0.06656
3531.36408	0.06719
3529.43543	0.06783
3527.50678	0.06864
3525.57812	0.06977
3523.64947	0.07065
3521.72082	0.07081
3519.79216	0.07079
3517.86351	0.07118
3515.93486	0.07177
3514.00620	0.07220
3512.07755	0.07271
3510.14890	0.07347
3508.22024	0.07404
3506.29159	0.07445
3504.36294	0.07503
3502.43428	0.07547
3500.50563	0.07567
3498.57698	0.07608
3496.64832	0.07647
3494.71967	0.07656
3492.79102	0.07694
3490.86236	0.07778
3488.93371	0.07816
3487.00506	0.07779
3485.07641	0.07765
3483.14775	0.07831
3481.21910	0.07908
3479.29045	0.07937
3477.36179	0.07960
3475.43314	0.08017
3473.50449	0.08072
3471.57583	0.08098
3469.64718	0.08138
3467.71853	0.08216
3465.78987	0.08292
3463.86122	0.08338
3461.93257	0.08361
3460.00391	0.08375
3458.07526	0.08395
3456.14661	0.08422
3454.21795	0.08450
3452.28930	0.08491
3450.36065	0.08550
3448.43199	0.08599
3446.50334	0.08611
3444.57469	0.08599
3442.64603	0.08599
3440.71738	0.08612
3438.78873	0.08639
3436.86007	0.08697
3434.93142	0.08768
3433.00277	0.08846
3431.07411	0.08930
3429.14546	0.08984
3427.21681	0.08983
3425.28815	0.08975
3423.35950	0.09014
3421.43085	0.09076
3419.50219	0.09108
3417.57354	0.09138
3415.64489	0.09227
3413.71624	0.09331
3411.78758	0.09373
3409.85893	0.09382
3407.93028	0.09395
3406.00162	0.09383
3404.07297	0.09349
3402.14432	0.09345
3400.21566	0.09405
3398.28701	0.09499
3396.35836	0.09566
3394.42970	0.09595
3392.50105	0.09610
3390.57240	0.09614
3388.64374	0.09627
3386.71509	0.09659
3384.78644	0.09677
3382.85778	0.09684
3380.92913	0.09717
3379.00048	0.09784
3377.07182	0.09858
3375.14317	0.09913
3373.21452	0.09953
3371.28586	0.09995
3369.35721	0.10044
3367.42856	0.10104
3365.49990	0.10182
3363.57125	0.10272
3361.64260	0.10351
3359.71394	0.10412
3357.78529	0.10492
3355.85664	0.10602
3353.92798	0.10699
3351.99933	0.10774
3350.07068	0.10855
3348.14202	0.10942
3346.21337	0.11018
3344.28472	0.11091
3342.35607	0.11186
3340.42741	0.11294
3338.49876	0.11362
3336.57011	0.11392
3334.64145	0.11442
3332.71280	0.11519
3330.78415	0.11593
3328.85549	0.11665
3326.92684	0.11744
3324.99819	0.11807
3323.06953	0.11861
3321.14088	0.11933
3319.21223	0.11993
3317.28357	0.12000
3315.35492	0.12000
3313.42627	0.12034
3311.49761	0.12065
3309.56896	0.12076
3307.64031	0.12101
3305.71165	0.12145
3303.78300	0.12184
3301.85435	0.12210
3299.92569	0.12220
3297.99704	0.12218
3296.06839	0.12204
3294.13973	0.12175
3292.21108	0.12134
3290.28243	0.12095
3288.35377	0.12088
3286.42512	0.12118
3284.49647	0.12153
3282.56781	0.12175
3280.63916	0.12177
3278.71051	0.12156
3276.78186	0.12132
3274.85320	0.12103
3272.92455	0.12048
3270.99590	0.11988
3269.06724	0.11944
3267.13859	0.11910
3265.20994	0.11871
3263.28128	0.11810
3261.35263	0.11730
3259.42398	0.11667
3257.49532	0.11629
3255.56667	0.11586
3253.63802	0.11534
3251.70936	0.11497
3249.78071	0.11455
3247.85206	0.11371
3245.92340	0.11280
3243.99475	0.11244
3242.06610	0.11245
3240.13744	0.11234
3238.20879	0.11213
3236.28014	0.11183
3234.35148	0.11134
3232.42283	0.11077
3230.49418	0.11010
3228.56552	0.10954
3226.63687	0.10951
3224.70822	0.10960
3222.77956	0.10932
3220.85091	0.10889
3218.92226	0.10853
3216.99360	0.10819
3215.06495	0.10785
3213.13630	0.10760
3211.20764	0.10729
3209.27899	0.10679
3207.35034	0.10632
3205.42169	0.10611
3203.49303	0.10608
3201.56438	0.10614
3199.63573	0.10589
3197.70707	0.10505
3195.77842	0.10400
3193.84977	0.10317
3191.92111	0.10268
3189.99246	0.10253
3188.06381	0.10255
3186.13515	0.10227
3184.20650	0.10155
3182.27785	0.10087
3180.34919	0.10045
3178.42054	0.09993
3176.49189	0.09917
3174.56323	0.09853
3172.63458	0.09801
3170.70593	0.09734
3168.77727	0.09663
3166.84862	0.09602
3164.91997	0.09532
3162.99131	0.09459
3161.06266	0.09406
3159.13401	0.09358
3157.20535	0.09263
3155.27670	0.09138
3153.34805	0.09050
3151.41939	0.09020
3149.49074	0.09001
3147.56209	0.08950
3145.63343	0.08881
3143.70478	0.08825
3141.77613	0.08777
3139.84748	0.08730
3137.91882	0.08685
3135.99017	0.08633
3134.06152	0.08581
3132.13286	0.08553
3130.20421	0.08551
3128.27556	0.08538
3126.34690	0.08503
3124.41825	0.08461
3122.48960	0.08421
3120.56094	0.08388
3118.63229	0.08383
3116.70364	0.08384
3114.77498	0.08356
3112.84633	0.08329
3110.91768	0.08333
3108.98902	0.08336
3107.06037	0.08319
3105.13172	0.08324
3103.20306	0.08355
3101.27441	0.08356
3099.34576	0.08324
3097.41710	0.08312
3095.48845	0.08327
3093.55980	0.08351
3091.63114	0.08389
3089.70249	0.08423
3087.77384	0.08437
3085.84518	0.08453
3083.91653	0.08500
3081.98788	0.08566
3080.05922	0.08612
3078.13057	0.08622
3076.20192	0.08605
3074.27326	0.08564
3072.34461	0.08514
3070.41596	0.08492
3068.48731	0.08489
3066.55865	0.08467
3064.63000	0.08432
3062.70135	0.08407
3060.77269	0.08389
3058.84404	0.08365
3056.91539	0.08330
3054.98673	0.08285
3053.05808	0.08228
3051.12943	0.08166
3049.20077	0.08110
3047.27212	0.08055
3045.34347	0.07981
3043.41481	0.07914
3041.48616	0.07888
3039.55751	0.07872
3037.62885	0.07819
3035.70020	0.07741
3033.77155	0.07674
3031.84289	0.07628
3029.91424	0.07588
3027.98559	0.07541
3026.05693	0.07489
3024.12828	0.07448
3022.19963	0.07426
3020.27097	0.07401
3018.34232	0.07356
3016.41367	0.07304
3014.48501	0.07255
3012.55636	0.07205
3010.62771	0.07164
3008.69905	0.07140
3006.77040	0.07136
3004.84175	0.07148
3002.91309	0.07160
3000.98444	0.07161
2999.05579	0.07156
2997.12714	0.07155
2995.19848	0.07162
2993.26983	0.07183
2991.34118	0.07217
2989.41252	0.07260
2987.48387	0.07306
2985.55522	0.07340
2983.62656	0.07382
2981.69791	0.07449
2979.76926	0.07507
2977.84060	0.07524
2975.91195	0.07505
2973.98330	0.07494
2972.05464	0.07523
2970.12599	0.07572
2968.19734	0.07611
2966.26868	0.07652
2964.34003	0.07707
2962.41138	0.07757
2960.48272	0.07780
2958.55407	0.07793
2956.62542	0.07811
2954.69676	0.07821
2952.76811	0.07813
2950.83946	0.07806
2948.91080	0.07818
2946.98215	0.07851
2945.05350	0.07883
2943.12484	0.07904
2941.19619	0.07931
2939.26754	0.07977
2937.33888	0.08021
2935.41023	0.08042
2933.48158	0.08040
2931.55293	0.08031
2929.62427	0.08029
2927.69562	0.08037
2925.76697	0.08036
2923.83831	0.08013
2921.90966	0.07966
2919.98101	0.07896
2918.05235	0.07820
2916.12370	0.07737
2914.19505	0.07623
2912.26639	0.07512
2910.33774	0.07435
2908.40909	0.07365
2906.48043	0.07293
2904.55178	0.07231
2902.62313	0.07168
2900.69447	0.07097
2898.76582	0.07037
2896.83717	0.07008
2894.90851	0.07005
2892.97986	0.06998
2891.05121	0.06971
2889.12255	0.06952
2887.19390	0.06956
2885.26525	0.06958
2883.33659	0.06948
2881.40794	0.06944
2879.47929	0.06944
2877.55063	0.06937
2875.62198	0.06932
2873.69333	0.06930
2871.76467	0.06906
2869.83602	0.06858
2867.90737	0.06803
2865.97871	0.06754
2864.05006	0.06714
2862.12141	0.06668
2860.19276	0.06623
2858.26410	0.06605
2856.33545	0.06603
2854.40680	0.06596
2852.47814	0.06578
2850.54949	0.06546
2848.62084	0.06488
2846.69218	0.06405
2844.76353	0.06321
2842.83488	0.06249
2840.90622	0.06184
2838.97757	0.06129
2837.04892	0.06086
2835.12026	0.06051
2833.19161	0.06030
2831.26296	0.06024
2829.33430	0.06004
2827.40565	0.05957
2825.47700	0.05906
2823.54834	0.05867
2821.61969	0.05842
2819.69104	0.05837
2817.76238	0.05839
2815.83373	0.05834
2813.90508	0.05825
2811.97642	0.05817
2810.04777	0.05794
2808.11912	0.05746
2806.19046	0.05696
2804.26181	0.05669
2802.33316	0.05662
2800.40450	0.05654
2798.47585	0.05636
2796.54720	0.05613
2794.61855	0.05588
2792.68989	0.05573
2790.76124	0.05569
2788.83259	0.05555
2786.90393	0.05525
2784.97528	0.05494
2783.04663	0.05465
2781.11797	0.05433
2779.18932	0.05413
2777.26067	0.05416
2775.33201	0.05421
2773.40336	0.05414
2771.47471	0.05395
2769.54605	0.05373
2767.61740	0.05346
2765.68875	0.05314
2763.76009	0.05287
2761.83144	0.05275
2759.90279	0.05278
2757.97413	0.05271
2756.04548	0.05246
2754.11683	0.05223
2752.18817	0.05219
2750.25952	0.05219
2748.33087	0.05206
2746.40221	0.05186
2744.47356	0.05168
2742.54491	0.05137
2740.61625	0.05091
2738.68760	0.05062
2736.75895	0.05067
2734.83029	0.05073
2732.90164	0.05064
2730.97299	0.05054
2729.04433	0.05038
2727.11568	0.05011
2725.18703	0.04999
2723.25838	0.05000
2721.32972	0.04995
2719.40107	0.04978
2717.47242	0.04947
2715.54376	0.04911
2713.61511	0.04887
2711.68646	0.04875
2709.75780	0.04873
2707.82915	0.04876
2705.90050	0.04866
2703.97184	0.04840
2702.04319	0.04816
2700.11454	0.04811
2698.18588	0.04815
2696.25723	0.04802
2694.32858	0.04768
2692.39992	0.04739
2690.47127	0.04732
2688.54262	0.04736
2686.61396	0.04733
2684.68531	0.04715
2682.75666	0.04692
2680.82800	0.04677
2678.89935	0.04669
2676.97070	0.04658
2675.04204	0.04650
2673.11339	0.04658
2671.18474	0.04669
2669.25608	0.04656
2667.32743	0.04631
2665.39878	0.04621
2663.47012	0.04630
2661.54147	0.04625
2659.61282	0.04585
2657.68417	0.04529
2655.75551	0.04485
2653.82686	0.04453
2651.89821	0.04422
2649.96955	0.04388
2648.04090	0.04355
2646.11225	0.04336
2644.18359	0.04321
2642.25494	0.04301
2640.32629	0.04284
2638.39763	0.04258
2636.46898	0.04218
2634.54033	0.04187
2632.61167	0.04171
2630.68302	0.04155
2628.75437	0.04135
2626.82571	0.04123
2624.89706	0.04130
2622.96841	0.04137
2621.03975	0.04103
2619.11110	0.04039
2617.18245	0.03995
2615.25379	0.03982
2613.32514	0.03971
2611.39649	0.03948
2609.46783	0.03921
2607.53918	0.03898
2605.61053	0.03875
2603.68187	0.03856
2601.75322	0.03859
2599.82457	0.03861
2597.89591	0.03834
2595.96726	0.03805
2594.03861	0.03799
2592.10995	0.03799
2590.18130	0.03790
2588.25265	0.03764
2586.32400	0.03739
2584.39534	0.03736
2582.46669	0.03748
2580.53804	0.03742
2578.60938	0.03703
2576.68073	0.03656
2574.75208	0.03641
2572.82342	0.03646
2570.89477	0.03642
2568.96612	0.03628
2567.03746	0.03612
2565.10881	0.03598
2563.18016	0.03589
2561.25150	0.03570
2559.32285	0.03536
2557.39420	0.03519
2555.46554	0.03541
2553.53689	0.03564
2551.60824	0.03550
2549.67958	0.03517
2547.75093	0.03491
2545.82228	0.03470
2543.89362	0.03466
2541.96497	0.03465
2540.03632	0.03439
2538.10766	0.03409
2536.17901	0.03392
2534.25036	0.03372
2532.32170	0.03360
2530.39305	0.03371
2528.46440	0.03378
2526.53574	0.03367
2524.60709	0.03354
2522.67844	0.03357
2520.74978	0.03357
2518.82113	0.03332
2516.89248	0.03311
2514.96383	0.03313
2513.03517	0.03315
2511.10652	0.03299
2509.17787	0.03276
2507.24921	0.03255
2505.32056	0.03236
2503.39191	0.03242
2501.46325	0.03269
2499.53460	0.03267
2497.60595	0.03236
2495.67729	0.03227
2493.74864	0.03259
2491.81999	0.03285
2489.89133	0.03256
2487.96268	0.03212
2486.03403	0.03210
2484.10537	0.03244
2482.17672	0.03282
2480.24807	0.03289
2478.31941	0.03251
2476.39076	0.03216
2474.46211	0.03203
2472.53345	0.03178
2470.60480	0.03159
2468.67615	0.03167
2466.74749	0.03174
2464.81884	0.03174
2462.89019	0.03174
2460.96153	0.03164
2459.03288	0.03153
2457.10423	0.03132
2455.17557	0.03091
2453.24692	0.03050
2451.31827	0.03044
2449.38962	0.03053
2447.46096	0.03037
2445.53231	0.03023
2443.60366	0.03040
2441.67500	0.03068
2439.74635	0.03096
2437.81770	0.03115
2435.88904	0.03105
2433.96039	0.03079
2432.03174	0.03057
2430.10308	0.03039
2428.17443	0.03013
2426.24578	0.02981
2424.31712	0.02981
2422.38847	0.03036
2420.45982	0.03104
2418.53116	0.03159
2416.60251	0.03188
2414.67386	0.03154
2412.74520	0.03077
2410.81655	0.03031
2408.88790	0.03044
2406.95924	0.03071
2405.03059	0.03070
2403.10194	0.03051
2401.17328	0.03041
2399.24463	0.03036
2397.31598	0.03023
2395.38732	0.03017
2393.45867	0.03045
2391.53002	0.03088
2389.60136	0.03109
2387.67271	0.03114
2385.74406	0.03111
2383.81540	0.03102
2381.88675	0.03096
2379.95810	0.03112
2378.02945	0.03153
2376.10079	0.03195
2374.17214	0.03200
2372.24349	0.03180
2370.31483	0.03122
2368.38618	0.03233
2366.45753	0.03288
2364.52887	0.03266
2362.60022	0.03317
2360.67157	0.03191
2358.74291	0.03085
2356.81426	0.03188
2354.88561	0.03230
2352.95695	0.03169
2351.02830	0.03134
2349.09965	0.03132
2347.17099	0.03156
2345.24234	0.03145
2343.31369	0.03143
2341.38503	0.03196
2339.45638	0.03083
2337.52773	0.03252
2335.59907	0.03211
2333.67042	0.03128
2331.74177	0.03098
2329.81311	0.03073
2327.88446	0.03041
2325.95581	0.03000
2324.02715	0.02964
2322.09850	0.02960
2320.16985	0.02973
2318.24119	0.02955
2316.31254	0.02903
2314.38389	0.02853
2312.45524	0.02844
2310.52658	0.02873
2308.59793	0.02885
2306.66928	0.02856
2304.74062	0.02811
2302.81197	0.02785
2300.88332	0.02758
2298.95466	0.02715
2297.02601	0.02666
2295.09736	0.02630
2293.16870	0.02603
2291.24005	0.02572
2289.31140	0.02549
2287.38274	0.02538
2285.45409	0.02508
2283.52544	0.02483
2281.59678	0.02504
2279.66813	0.02510
2277.73948	0.02455
2275.81082	0.02404
2273.88217	0.02407
2271.95352	0.02422
2270.02486	0.02393
2268.09621	0.02328
2266.16756	0.02287
2264.23890	0.02308
2262.31025	0.02373
2260.38160	0.02418
2258.45294	0.02414
2256.52429	0.02376
2254.59564	0.02322
2252.66698	0.02255
2250.73833	0.02191
2248.80968	0.02157
2246.88102	0.02135
2244.95237	0.02116
2243.02372	0.02095
2241.09507	0.02057
2239.16641	0.02021
2237.23776	0.02013
2235.30911	0.02020
2233.38045	0.02035
2231.45180	0.02066
2229.52315	0.02073
2227.59449	0.02046
2225.66584	0.02038
2223.73719	0.02034
2221.80853	0.01967
2219.87988	0.01859
2217.95123	0.01808
2216.02257	0.01830
2214.09392	0.01829
2212.16527	0.01764
2210.23661	0.01668
2208.30796	0.01633
2206.37931	0.01673
2204.45065	0.01658
2202.52200	0.01606
2200.59335	0.01602
2198.66469	0.01586
2196.73604	0.01534
2194.80739	0.01521
2192.87873	0.01568
2190.95008	0.01600
2189.02143	0.01597
2187.09277	0.01614
2185.16412	0.01600
2183.23547	0.01499
2181.30681	0.01422
2179.37816	0.01454
2177.44951	0.01475
2175.52085	0.01379
2173.59220	0.01275
2171.66355	0.01256
2169.73490	0.01265
2167.80624	0.01241
2165.87759	0.01142
2163.94894	0.00984
2162.02028	0.00899
2160.09163	0.00965
2158.16298	0.01112
2156.23432	0.01252
2154.30567	0.01311
2152.37702	0.01302
2150.44836	0.01347
2148.51971	0.01419
2146.59106	0.01455
2144.66240	0.01591
2142.73375	0.01819
2140.80510	0.01920
2138.87644	0.01873
2136.94779	0.01840
2135.01914	0.01847
2133.09048	0.01837
2131.16183	0.01843
2129.23318	0.01886
2127.30452	0.01925
2125.37587	0.01978
2123.44722	0.02040
2121.51856	0.02024
2119.58991	0.01944
2117.66126	0.01905
2115.73260	0.01934
2113.80395	0.01997
2111.87530	0.02025
2109.94664	0.01978
2108.01799	0.01924
2106.08934	0.01915
2104.16069	0.01906
2102.23203	0.01856
2100.30338	0.01806
2098.37473	0.01813
2096.44607	0.01884
2094.51742	0.01944
2092.58877	0.01945
2090.66011	0.01916
2088.73146	0.01902
2086.80281	0.01895
2084.87415	0.01880
2082.94550	0.01855
2081.01685	0.01802
2079.08819	0.01715
2077.15954	0.01632
2075.23089	0.01607
2073.30223	0.01626
2071.37358	0.01630
2069.44493	0.01608
2067.51627	0.01600
2065.58762	0.01602
2063.65897	0.01584
2061.73031	0.01581
2059.80166	0.01625
2057.87301	0.01644
2055.94435	0.01592
2054.01570	0.01536
2052.08705	0.01511
2050.15839	0.01459
2048.22974	0.01373
2046.30109	0.01321
2044.37243	0.01303
2042.44378	0.01293
2040.51513	0.01299
2038.58647	0.01278
2036.65782	0.01215
2034.72917	0.01160
2032.80052	0.01126
2030.87186	0.01079
2028.94321	0.01031
2027.01456	0.01058
2025.08590	0.01147
2023.15725	0.01136
2021.22860	0.01006
2019.29994	0.00944
2017.37129	0.01041
2015.44264	0.01222
2013.51398	0.01374
2011.58533	0.01417
2009.65668	0.01321
2007.72802	0.01159
2005.79937	0.01095
2003.87072	0.01158
2001.94206	0.01230
2000.01341	0.01259
1998.08476	0.01260
1996.15610	0.01249
1994.22745	0.01282
1992.29880	0.01363
1990.37014	0.01392
1988.44149	0.01346
1986.51284	0.01283
1984.58418	0.01231
1982.65553	0.01180
1980.72688	0.01132
1978.79822	0.01115
1976.86957	0.01108
1974.94092	0.01058
1973.01226	0.00976
1971.08361	0.00955
1969.15496	0.01059
1967.22631	0.01203
1965.29765	0.01296
1963.36900	0.01358
1961.44035	0.01395
1959.51169	0.01388
1957.58304	0.01371
1955.65439	0.01363
1953.72573	0.01322
1951.79708	0.01262
1949.86843	0.01276
1947.93977	0.01363
1946.01112	0.01451
1944.08247	0.01528
1942.15381	0.01582
1940.22516	0.01587
1938.29651	0.01569
1936.36785	0.01572
1934.43920	0.01599
1932.51055	0.01616
1930.58189	0.01603
1928.65324	0.01584
1926.72459	0.01559
1924.79593	0.01532
1922.86728	0.01553
1920.93863	0.01607
1919.00997	0.01629
1917.08132	0.01609
1915.15267	0.01582
1913.22401	0.01577
1911.29536	0.01593
1909.36671	0.01593
1907.43805	0.01579
1905.50940	0.01588
1903.58075	0.01622
1901.65209	0.01655
1899.72344	0.01661
1897.79479	0.01639
1895.86614	0.01616
1893.93748	0.01606
1892.00883	0.01620
1890.08018	0.01654
1888.15152	0.01675
1886.22287	0.01658
1884.29422	0.01624
1882.36556	0.01601
1880.43691	0.01596
1878.50826	0.01603
1876.57960	0.01601
1874.65095	0.01585
1872.72230	0.01576
1870.79364	0.01580
1868.86499	0.01582
1866.93634	0.01587
1865.00768	0.01596
1863.07903	0.01591
1861.15038	0.01576
1859.22172	0.01572
1857.29307	0.01592
1855.36442	0.01624
1853.43576	0.01637
1851.50711	0.01613
1849.57846	0.01572
1847.64980	0.01546
1845.72115	0.01548
1843.79250	0.01568
1841.86384	0.01580
1839.93519	0.01566
1838.00654	0.01553
1836.07788	0.01564
1834.14923	0.01582
1832.22058	0.01592
1830.29192	0.01595
1828.36327	0.01594
1826.43462	0.01585
1824.50597	0.01567
1822.57731	0.01551
1820.64866	0.01553
1818.72001	0.01570
1816.79135	0.01590
1814.86270	0.01603
1812.93405	0.01598
1811.00539	0.01575
1809.07674	0.01547
1807.14809	0.01530
1805.21943	0.01536
1803.29078	0.01556
1801.36213	0.01563
1799.43347	0.01546
1797.50482	0.01522
1795.57617	0.01519
1793.64751	0.01532
1791.71886	0.01543
1789.79021	0.01543
1787.86155	0.01529
1785.93290	0.01507
1784.00425	0.01495
1782.07559	0.01496
1780.14694	0.01489
1778.21829	0.01477
1776.28963	0.01471
1774.36098	0.01475
1772.43233	0.01487
1770.50367	0.01495
1768.57502	0.01493
1766.64637	0.01490
1764.71771	0.01500
1762.78906	0.01515
1760.86041	0.01521
1758.93176	0.01524
1757.00310	0.01535
1755.07445	0.01553
1753.14580	0.01565
1751.21714	0.01570
1749.28849	0.01586
1747.35984	0.01618
1745.43118	0.01650
1743.50253	0.01680
1741.57388	0.01712
1739.64522	0.01738
1737.71657	0.01758
1735.78792	0.01786
1733.85926	0.01824
1731.93061	0.01855
1730.00196	0.01874
1728.07330	0.01899
1726.14465	0.01934
1724.21600	0.01968
1722.28734	0.01995
1720.35869	0.02032
1718.43004	0.02088
1716.50138	0.02155
1714.57273	0.02222
1712.64408	0.02302
1710.71542	0.02404
1708.78677	0.02527
1706.85812	0.02680
1704.92946	0.02875
1703.00081	0.03101
1701.07216	0.03354
1699.14350	0.03635
1697.21485	0.03934
1695.28620	0.04239
1693.35754	0.04537
1691.42889	0.04829
1689.50024	0.05129
1687.57159	0.05448
1685.64293	0.05790
1683.71428	0.06154
1681.78563	0.06531
1679.85697	0.06937
1677.92832	0.07383
1675.99967	0.07858
1674.07101	0.08345
1672.14236	0.08840
1670.21371	0.09348
1668.28505	0.09863
1666.35640	0.10368
1664.42775	0.10860
1662.49909	0.11335
1660.57044	0.11776
1658.64179	0.12166
1656.71313	0.12501
1654.78448	0.12795
1652.85583	0.13063
1650.92717	0.13290
1648.99852	0.13476
1647.06987	0.13647
1645.14121	0.13805
1643.21256	0.13945
1641.28391	0.14076
1639.35525	0.14198
1637.42660	0.14307
1635.49795	0.14399
1633.56929	0.14463
1631.64064	0.14475
1629.71199	0.14412
1627.78333	0.14257
1625.85468	0.14005
1623.92603	0.13667
1621.99738	0.13259
1620.06872	0.12804
1618.14007	0.12320
1616.21142	0.11823
1614.28276	0.11327
1612.35411	0.10836
1610.42546	0.10363
1608.49680	0.09914
1606.56815	0.09488
1604.63950	0.09093
1602.71084	0.08736
1600.78219	0.08412
1598.85354	0.08123
1596.92488	0.07875
1594.99623	0.07663
1593.06758	0.07488
1591.13892	0.07355
1589.21027	0.07263
1587.28162	0.07200
1585.35296	0.07169
1583.42431	0.07175
1581.49566	0.07223
1579.56700	0.07310
1577.63835	0.07433
1575.70970	0.07591
1573.78104	0.07786
1571.85239	0.08023
1569.92374	0.08293
1567.99508	0.08587
1566.06643	0.08896
1564.13778	0.09218
1562.20912	0.09546
1560.28047	0.09878
1558.35182	0.10205
1556.42316	0.10506
1554.49451	0.10762
1552.56586	0.10967
1550.63721	0.11125
1548.70855	0.11255
1546.77990	0.11364
1544.85125	0.11443
1542.92259	0.11481
1540.99394	0.11484
1539.06529	0.11468
1537.13663	0.11435
1535.20798	0.11383
1533.27933	0.11309
1531.35067	0.11208
1529.42202	0.11092
1527.49337	0.10969
1525.56471	0.10832
1523.63606	0.10679
1521.70741	0.10523
1519.77875	0.10368
1517.85010	0.10202
1515.92145	0.10011
1513.99279	0.09790
1512.06414	0.09544
1510.13549	0.09278
1508.20683	0.08991
1506.27818	0.08683
1504.34953	0.08371
1502.42087	0.08070
1500.49222	0.07778
1498.56357	0.07491
1496.63491	0.07210
1494.70626	0.06934
1492.77761	0.06667
1490.84895	0.06425
1488.92030	0.06222
1486.99165	0.06059
1485.06299	0.05930
1483.13434	0.05838
1481.20569	0.05793
1479.27704	0.05797
1477.34838	0.05842
1475.41973	0.05924
1473.49108	0.06040
1471.56242	0.06184
1469.63377	0.06344
1467.70512	0.06512
1465.77646	0.06687
1463.84781	0.06867
1461.91916	0.07043
1459.99050	0.07218
1458.06185	0.07397
1456.13320	0.07567
1454.20454	0.07703
1452.27589	0.07791
1450.34724	0.07822
1448.41858	0.07799
1446.48993	0.07739
1444.56128	0.07662
1442.63262	0.07575
1440.70397	0.07474
1438.77532	0.07352
1436.84666	0.07207
1434.91801	0.07039
1432.98936	0.06864
1431.06070	0.06710
1429.13205	0.06595
1427.20340	0.06521
1425.27474	0.06477
1423.34609	0.06455
1421.41744	0.06444
1419.48878	0.06432
1417.56013	0.06418
1415.63148	0.06418
1413.70283	0.06438
1411.77417	0.06474
1409.84552	0.06521
1407.91687	0.06580
1405.98821	0.06647
1404.05956	0.06701
1402.13091	0.06722
1400.20225	0.06710
1398.27360	0.06689
1396.34495	0.06668
1394.41629	0.06643
1392.48764	0.06618
1390.55899	0.06599
1388.63033	0.06577
1386.70168	0.06544
1384.77303	0.06505
1382.84437	0.06463
1380.91572	0.06422
1378.98707	0.06380
1377.05841	0.06327
1375.12976	0.06254
1373.20111	0.06166
1371.27245	0.06068
1369.34380	0.05960
1367.41515	0.05850
1365.48649	0.05741
1363.55784	0.05637
1361.62919	0.05548
1359.70053	0.05482
1357.77188	0.05443
1355.84323	0.05439
1353.91457	0.05468
1351.98592	0.05520
1350.05727	0.05593
1348.12861	0.05688
1346.19996	0.05789
1344.27131	0.05884
1342.34266	0.05969
1340.41400	0.06043
1338.48535	0.06098
1336.55670	0.06128
1334.62804	0.06124
1332.69939	0.06072
1330.77074	0.05979
1328.84208	0.05877
1326.91343	0.05790
1324.98478	0.05718
1323.05612	0.05661
1321.12747	0.05623
1319.19882	0.05602
1317.27016	0.05588
1315.34151	0.05561
1313.41286	0.05512
1311.48420	0.05451
1309.55555	0.05398
1307.62690	0.05362
1305.69824	0.05332
1303.76959	0.05304
1301.84094	0.05277
1299.91228	0.05249
1297.98363	0.05226
1296.05498	0.05225
1294.12632	0.05254
1292.19767	0.05307
1290.26902	0.05369
1288.34036	0.05441
1286.41171	0.05521
1284.48306	0.05597
1282.55440	0.05655
1280.62575	0.05683
1278.69710	0.05686
1276.76845	0.05678
1274.83979	0.05675
1272.91114	0.05679
1270.98249	0.05692
1269.05383	0.05720
1267.12518	0.05760
1265.19653	0.05806
1263.26787	0.05856
1261.33922	0.05915
1259.41057	0.05990
1257.48191	0.06077
1255.55326	0.06171
1253.62461	0.06275
1251.69595	0.06392
1249.76730	0.06515
1247.83865	0.06643
1245.90999	0.06771
1243.98134	0.06894
1242.05269	0.07014
1240.12403	0.07117
1238.19538	0.07183
1236.26673	0.07220
1234.33807	0.07233
1232.40942	0.07202
1230.48077	0.07117
1228.55211	0.06994
1226.62346	0.06849
1224.69481	0.06682
1222.76615	0.06500
1220.83750	0.06322
1218.90885	0.06167
1216.98019	0.06043
1215.05154	0.05958
1213.12289	0.05915
1211.19423	0.05913
1209.26558	0.05944
1207.33693	0.05993
1205.40828	0.06035
1203.47962	0.06048
1201.55097	0.06022
1199.62232	0.05964
1197.69366	0.05865
1195.76501	0.05743
1193.83636	0.05618
1191.90770	0.05500
1189.97905	0.05383
1188.05040	0.05268
1186.12174	0.05168
1184.19309	0.05095
1182.26444	0.05047
1180.33578	0.05011
1178.40713	0.04976
1176.47848	0.04945
1174.54982	0.04921
1172.62117	0.04902
1170.69252	0.04890
1168.76386	0.04883
1166.83521	0.04875
1164.90656	0.04876
1162.97790	0.04876
1161.04925	0.04856
1159.12060	0.04811
1157.19194	0.04748
1155.26329	0.04677
1153.33464	0.04600
1151.40598	0.04508
1149.47733	0.04412
1147.54868	0.04332
1145.62002	0.04273
1143.69137	0.04221
1141.76272	0.04166
1139.83406	0.04108
1137.90541	0.04059
1135.97676	0.04025
1134.04811	0.04003
1132.11945	0.03988
1130.19080	0.03979
1128.26215	0.03975
1126.33349	0.03971
1124.40484	0.03966
1122.47619	0.03962
1120.54753	0.03947
1118.61888	0.03926
1116.69023	0.03918
1114.76157	0.03921
1112.83292	0.03922
1110.90427	0.03932
1108.97561	0.03970
1107.04696	0.04021
1105.11831	0.04056
1103.18965	0.04074
1101.26100	0.04097
1099.33235	0.04131
1097.40369	0.04177
1095.47504	0.04227
1093.54639	0.04280
1091.61773	0.04355
1089.68908	0.04457
1087.76043	0.04570
1085.83177	0.04684
1083.90312	0.04789
1081.97447	0.04865
1080.04581	0.04905
1078.11716	0.04910
1076.18851	0.04875
1074.25985	0.04814
1072.33120	0.04754
1070.40255	0.04714
1068.47390	0.04697
1066.54524	0.04698
1064.61659	0.04708
1062.68794	0.04713
1060.75928	0.04702
1058.83063	0.04674
1056.90198	0.04634
1054.97332	0.04583
1053.04467	0.04526
1051.11602	0.04478
1049.18736	0.04441
1047.25871	0.04411
1045.33006	0.04390
1043.40140	0.04377
1041.47275	0.04369
1039.54410	0.04375
1037.61544	0.04404
1035.68679	0.04448
1033.75814	0.04492
1031.82948	0.04513
1029.90083	0.04493
1027.97218	0.04432
1026.04352	0.04348
1024.11487	0.04261
1022.18622	0.04180
1020.25756	0.04106
1018.32891	0.04052
1016.40026	0.04019
1014.47160	0.03985
1012.54295	0.03928
1010.61430	0.03856
1008.68564	0.03785
1006.75699	0.03717
1004.82834	0.03655
1002.89968	0.03600
1000.97103	0.03547
999.04238	0.03497
997.11373	0.03455
995.18507	0.03420
993.25642	0.03380
991.32777	0.03332
989.39911	0.03290
987.47046	0.03265
985.54181	0.03250
983.61315	0.03239
981.68450	0.03237
979.75585	0.03247
977.82719	0.03264
975.89854	0.03282
973.96989	0.03291
972.04123	0.03288
970.11258	0.03268
968.18393	0.03236
966.25527	0.03207
964.32662	0.03180
962.39797	0.03148
960.46931	0.03119
958.54066	0.03097
956.61201	0.03075
954.68335	0.03058
952.75470	0.03048
950.82605	0.03039
948.89739	0.03028
946.96874	0.03019
945.04009	0.03017
943.11143	0.03031
941.18278	0.03053
939.25413	0.03063
937.32547	0.03062
935.39682	0.03068
933.46817	0.03073
931.53952	0.03062
929.61086	0.03046
927.68221	0.03037
925.75356	0.03033
923.82490	0.03026
921.89625	0.03015
919.96760	0.02997
918.03894	0.02976
916.11029	0.02964
914.18164	0.02959
912.25298	0.02950
910.32433	0.02928
908.39568	0.02907
906.46702	0.02901
904.53837	0.02896
902.60972	0.02874
900.68106	0.02844
898.75241	0.02827
896.82376	0.02832
894.89510	0.02842
892.96645	0.02841
891.03780	0.02828
889.10914	0.02808
887.18049	0.02789
885.25184	0.02777
883.32318	0.02775
881.39453	0.02783
879.46588	0.02799
877.53722	0.02816
875.60857	0.02829
873.67992	0.02841
871.75126	0.02832
869.82261	0.02807
867.89396	0.02792
865.96530	0.02790
864.03665	0.02786
862.10800	0.02784
860.17935	0.02790
858.25069	0.02793
856.32204	0.02800
854.39339	0.02810
852.46473	0.02808
850.53608	0.02793
848.60743	0.02778
846.67877	0.02771
844.75012	0.02777
842.82147	0.02792
840.89281	0.02801
838.96416	0.02789
837.03551	0.02775
835.10685	0.02779
833.17820	0.02790
831.24955	0.02801
829.32089	0.02810
827.39224	0.02813
825.46359	0.02816
823.53493	0.02833
821.60628	0.02859
819.67763	0.02889
817.74897	0.02919
815.82032	0.02943
813.89167	0.02957
811.96301	0.02965
810.03436	0.02973
808.10571	0.02988
806.17705	0.03004
804.24840	0.03017
802.31975	0.03032
800.39109	0.03050
798.46244	0.03064
796.53379	0.03079
794.60513	0.03096
792.67648	0.03117
790.74783	0.03149
788.81918	0.03176
786.89052	0.03194
784.96187	0.03216
783.03322	0.03241
781.10456	0.03258
779.17591	0.03275
777.24726	0.03297
775.31860	0.03317
773.38995	0.03338
771.46130	0.03373
769.53264	0.03414
767.60399	0.03444
765.67534	0.03468
763.74668	0.03493
761.81803	0.03511
759.88938	0.03528
757.96072	0.03550
756.03207	0.03575
754.10342	0.03602
752.17476	0.03625
750.24611	0.03641
748.31746	0.03659
746.38880	0.03681
744.46015	0.03706
742.53150	0.03733
740.60284	0.03764
738.67419	0.03799
736.74554	0.03827
734.81688	0.03847
732.88823	0.03864
730.95958	0.03890
729.03092	0.03936
727.10227	0.03981
725.17362	0.04014
723.24497	0.04048
721.31631	0.04085
719.38766	0.04110
717.45901	0.04139
715.53035	0.04171
713.60170	0.04190
711.67305	0.04204
709.74439	0.04231
707.81574	0.04267
705.88709	0.04307
703.95843	0.04348
702.02978	0.04378
700.10113	0.04392
698.17247	0.04406
696.24382	0.04425
694.31517	0.04442
692.38651	0.04447
690.45786	0.04449
688.52921	0.04469
686.60055	0.04495
684.67190	0.04526
682.74325	0.04556
680.81459	0.04574
678.88594	0.04593
676.95729	0.04607
675.02863	0.04634
673.09998	0.04664
671.17133	0.04683
669.24267	0.04688
667.31402	0.04700
665.38537	0.04717
663.45671	0.04738
661.52806	0.04752
659.59941	0.04766
657.67075	0.04785
655.74210	0.04798
653.81345	0.04801
651.88480	0.04805
649.95614	0.04822
648.02749	0.04840
646.09884	0.04854
644.17018	0.04859
642.24153	0.04859
640.31288	0.04865
638.38422	0.04873
636.45557	0.04873
634.52692	0.04868
632.59826	0.04862
630.66961	0.04872
628.74096	0.04934
626.81230	0.04825
624.88365	0.04718
622.95500	0.04795
621.02634	0.04998
619.09769	0.05032
617.16904	0.05026
615.24038	0.05152
613.31173	0.05141
611.38308	0.04902
609.45442	0.04698
607.52577	0.04675
605.59712	0.04770
603.66846	0.04920
601.73981	0.05053
599.81116	0.05080
597.88250	0.05023
595.95385	0.04952
594.02520	0.04913
592.09654	0.04918
590.16789	0.04935
588.23924	0.04934
586.31059	0.04924
584.38193	0.04920
582.45328	0.04918
580.52463	0.04916
578.59597	0.04913
576.66732	0.04909
574.73867	0.04907
572.81001	0.04912
570.88136	0.04919
568.95271	0.04932
567.02405	0.04968
565.09540	0.05013
563.16675	0.05038
561.23809	0.05058
559.30944	0.05068
557.38079	0.05060
555.45213	0.05054
553.52348	0.05050
551.59483	0.05031
549.66617	0.04996
547.73752	0.04970
545.80887	0.04969
543.88021	0.04967
541.95156	0.04946
540.02291	0.04924
538.09425	0.04920
536.16560	0.04925
534.23695	0.04934
532.30829	0.04947
530.37964	0.04947
528.45099	0.04932
526.52233	0.04921
524.59368	0.04914
522.66503	0.04895
520.73637	0.04856
518.80772	0.04811
516.87907	0.04780
514.95042	0.04775
513.02176	0.04777
511.09311	0.04754
509.16446	0.04707
507.23580	0.04668
505.30715	0.04635
503.37850	0.04592
501.44984	0.04554
499.52119	0.04538
497.59254	0.04520
495.66388	0.04485
493.73523	0.04448
491.80658	0.04421
489.87792	0.04393
487.94927	0.04358
486.02062	0.04327
484.09196	0.04289
482.16331	0.04244
480.23466	0.04216
478.30600	0.04214
476.37735	0.04221
474.44870	0.04210
472.52004	0.04169
470.59139	0.04126
468.66274	0.04094
466.73408	0.04058
464.80543	0.04023
462.87678	0.04010
460.94812	0.03999
459.01947	0.03950
457.09082	0.03878
455.16216	0.03821
453.23351	0.03791
451.30486	0.03771
449.37620	0.03746
447.44755	0.03716
445.51890	0.03687
443.59025	0.03660
441.66159	0.03631
439.73294	0.03602
437.80429	0.03583
435.87563	0.03569
433.94698	0.03553
432.01833	0.03537
430.08967	0.03517
428.16102	0.03483
426.23237	0.03441
424.30371	0.03405
422.37506	0.03383
420.44641	0.03369
418.51775	0.03347
416.58910	0.03313
414.66045	0.03280
412.73179	0.03257
410.80314	0.03245
408.87449	0.03238
406.94583	0.03230
405.01718	0.03212
403.08853	0.03183
401.15987	0.03154
399.23122	0.03128
