3996.16951	0.05110
3994.24086	0.05091
3992.31221	0.05072
3990.38355	0.05112
3988.45490	0.05186
3986.52625	0.05205
3984.59759	0.05156
3982.66894	0.05122
3980.74029	0.05141
3978.81163	0.05155
3976.88298	0.05120
3974.95433	0.05077
3973.02567	0.05064
3971.09702	0.05046
3969.16837	0.05009
3967.23972	0.05007
3965.31106	0.05044
3963.38241	0.05060
3961.45376	0.05069
3959.52510	0.05114
3957.59645	0.05171
3955.66780	0.05200
3953.73914	0.05195
3951.81049	0.05147
3949.88184	0.05064
3947.95318	0.04989
3946.02453	0.04958
3944.09588	0.04949
3942.16722	0.04944
3940.23857	0.04944
3938.30992	0.04930
3936.38126	0.04915
3934.45261	0.04942
3932.52396	0.04992
3930.59530	0.05009
3928.66665	0.04999
3926.73800	0.04986
3924.80934	0.04948
3922.88069	0.04906
3920.95204	0.04905
3919.02338	0.04931
3917.09473	0.04946
3915.16608	0.04918
3913.23742	0.04866
3911.30877	0.04865
3909.38012	0.04931
3907.45146	0.04975
3905.52281	0.04931
3903.59416	0.04856
3901.66550	0.04844
3899.73685	0.04877
3897.80820	0.04864
3895.87955	0.04803
3893.95089	0.04771
3892.02224	0.04778
3890.09359	0.04776
3888.16493	0.04782
3886.23628	0.04824
3884.30763	0.04852
3882.37897	0.04820
3880.45032	0.04763
3878.52167	0.04737
3876.59301	0.04743
3874.66436	0.04745
3872.73571	0.04747
3870.80705	0.04775
3868.87840	0.04811
3866.94975	0.04819
3865.02109	0.04793
3863.09244	0.04748
3861.16379	0.04692
3859.23513	0.04643
3857.30648	0.04625
3855.37783	0.04638
3853.44917	0.04679
3851.52052	0.04732
3849.59187	0.04753
3847.66321	0.04710
3845.73456	0.04621
3843.80591	0.04532
3841.87725	0.04485
3839.94860	0.04515
3838.01995	0.04570
3836.09129	0.04559
3834.16264	0.04516
3832.23399	0.04514
3830.30534	0.04546
3828.37668	0.04592
3826.44803	0.04625
3824.51938	0.04596
3822.59072	0.04537
3820.66207	0.04518
3818.73342	0.04535
3816.80476	0.04550
3814.87611	0.04546
3812.94746	0.04520
3811.01880	0.04488
3809.09015	0.04464
3807.16150	0.04461
3805.23284	0.04466
3803.30419	0.04436
3801.37554	0.04412
3799.44688	0.04433
3797.51823	0.04423
3795.58958	0.04330
3793.66092	0.04247
3791.73227	0.04267
3789.80362	0.04349
3787.87496	0.04409
3785.94631	0.04418
3784.01766	0.04383
3782.08900	0.04350
3780.16035	0.04368
3778.23170	0.04393
3776.30304	0.04372
3774.37439	0.04355
3772.44574	0.04389
3770.51708	0.04403
3768.58843	0.04365
3766.65978	0.04344
3764.73112	0.04335
3762.80247	0.04295
3760.87382	0.04249
3758.94517	0.04244
3757.01651	0.04281
3755.08786	0.04304
3753.15921	0.04306
3751.23055	0.04303
3749.30190	0.04265
3747.37325	0.04218
3745.44459	0.04222
3743.51594	0.04244
3741.58729	0.04223
3739.65863	0.04168
3737.72998	0.04137
3735.80133	0.04152
3733.87267	0.04152
3731.94402	0.04089
3730.01537	0.04038
3728.08671	0.04088
3726.15806	0.04186
3724.22941	0.04202
3722.30075	0.04129
3720.37210	0.04063
3718.44345	0.04032
3716.51479	0.03997
3714.58614	0.03938
3712.65749	0.03889
3710.72883	0.03916
3708.80018	0.03991
3706.87153	0.04025
3704.94287	0.04025
3703.01422	0.04032
3701.08557	0.04030
3699.15691	0.04000
3697.22826	0.03973
3695.29961	0.04004
3693.37095	0.04075
3691.44230	0.04080
3689.51365	0.03993
3687.58500	0.03928
3685.65634	0.03934
3683.72769	0.03955
3681.79904	0.03976
3679.87038	0.03989
3677.94173	0.03975
3676.01308	0.03949
3674.08442	0.03921
3672.15577	0.03906
3670.22712	0.03939
3668.29846	0.04003
3666.36981	0.04013
3664.44116	0.03944
3662.51250	0.03907
3660.58385	0.03978
3658.65520	0.04070
3656.72654	0.04069
3654.79789	0.03992
3652.86924	0.03971
3650.94058	0.04077
3649.01193	0.04209
3647.08328	0.04257
3645.15462	0.04253
3643.22597	0.04254
3641.29732	0.04273
3639.36866	0.04319
3637.44001	0.04370
3635.51136	0.04401
3633.58270	0.04397
3631.65405	0.04353
3629.72540	0.04322
3627.79674	0.04337
3625.86809	0.04356
3623.93944	0.04386
3622.01079	0.04445
3620.08213	0.04501
3618.15348	0.04561
3616.22483	0.04625
3614.29617	0.04640
3612.36752	0.04631
3610.43887	0.04669
3608.51021	0.04728
3606.58156	0.04741
3604.65291	0.04718
3602.72425	0.04734
3600.79560	0.04822
3598.86695	0.04914
3596.93829	0.04953
3595.00964	0.04986
3593.08099	0.05050
3591.15233	0.05089
3589.22368	0.05065
3587.29503	0.05030
3585.36637	0.05036
3583.43772	0.05093
3581.50907	0.05192
3579.58041	0.05303
3577.65176	0.05380
3575.72311	0.05401
3573.79445	0.05412
3571.86580	0.05457
3569.93715	0.05513
3568.00849	0.05561
3566.07984	0.05612
3564.15119	0.05678
3562.22253	0.05745
3560.29388	0.05812
3558.36523	0.05891
3556.43657	0.05940
3554.50792	0.05920
3552.57927	0.05884
3550.65062	0.05914
3548.72196	0.06007
3546.79331	0.06085
3544.86466	0.06131
3542.93600	0.06190
3541.00735	0.06245
3539.07870	0.06260
3537.15004	0.06259
3535.22139	0.06269
3533.29274	0.06313
3531.36408	0.06389
3529.43543	0.06448
3527.50678	0.06495
3525.57812	0.06585
3523.64947	0.06692
3521.72082	0.06747
3519.79216	0.06755
3517.86351	0.06761
3515.93486	0.06805
3514.00620	0.06878
3512.07755	0.06918
3510.14890	0.06930
3508.22024	0.06974
3506.29159	0.07042
3504.36294	0.07083
3502.43428	0.07077
3500.50563	0.07072
3498.57698	0.07118
3496.64832	0.07172
3494.71967	0.07209
3492.79102	0.07277
3490.86236	0.07357
3488.93371	0.07389
3487.00506	0.07381
3485.07641	0.07393
3483.14775	0.07440
3481.21910	0.07472
3479.29045	0.07477
3477.36179	0.07512
3475.43314	0.07581
3473.50449	0.07631
3471.57583	0.07641
3469.64718	0.07654
3467.71853	0.07695
3465.78987	0.07752
3463.86122	0.07807
3461.93257	0.07839
3460.00391	0.07864
3458.07526	0.07915
3456.14661	0.07979
3454.21795	0.08021
3452.28930	0.08061
3450.36065	0.08121
3448.43199	0.08156
3446.50334	0.08137
3444.57469	0.08101
3442.64603	0.08089
3440.71738	0.08101
3438.78873	0.08137
3436.86007	0.08214
3434.93142	0.08314
3433.00277	0.08392
3431.07411	0.08450
3429.14546	0.08495
3427.21681	0.08494
3425.28815	0.08456
3423.35950	0.08448
3421.43085	0.08483
3419.50219	0.08520
3417.57354	0.08552
3415.64489	0.08616
3413.71624	0.08697
3411.78758	0.08733
3409.85893	0.08751
3407.93028	0.08802
3406.00162	0.08835
3404.07297	0.08813
3402.14432	0.08797
3400.21566	0.08823
3398.28701	0.08868
3396.35836	0.08932
3394.42970	0.09011
3392.50105	0.09075
3390.57240	0.09107
3388.64374	0.09118
3386.71509	0.09109
3384.78644	0.09078
3382.85778	0.09062
3380.92913	0.09099
3379.00048	0.09160
3377.07182	0.09203
3375.14317	0.09245
3373.21452	0.09315
3371.28586	0.09402
3369.35721	0.09479
3367.42856	0.09523
3365.49990	0.09549
3363.57125	0.09602
3361.64260	0.09679
3359.71394	0.09723
3357.78529	0.09740
3355.85664	0.09808
3353.92798	0.09935
3351.99933	0.10048
3350.07068	0.10111
3348.14202	0.10163
3346.21337	0.10242
3344.28472	0.10330
3342.35607	0.10411
3340.42741	0.10488
3338.49876	0.10551
3336.57011	0.10605
3334.64145	0.10653
3332.71280	0.10700
3330.78415	0.10767
3328.85549	0.10856
3326.92684	0.10934
3324.99819	0.10987
3323.06953	0.11025
3321.14088	0.11060
3319.21223	0.11087
3317.28357	0.11112
3315.35492	0.11161
3313.42627	0.11227
3311.49761	0.11279
3309.56896	0.11313
3307.64031	0.11333
3305.71165	0.11332
3303.78300	0.11316
3301.85435	0.11305
3299.92569	0.11315
3297.99704	0.11339
3296.06839	0.11366
3294.13973	0.11386
3292.21108	0.11385
3290.28243	0.11361
3288.35377	0.11341
3286.42512	0.11336
3284.49647	0.11328
3282.56781	0.11326
3280.63916	0.11348
3278.71051	0.11363
3276.78186	0.11348
3274.85320	0.11298
3272.92455	0.11232
3270.99590	0.11184
3269.06724	0.11151
3267.13859	0.11120
3265.20994	0.11103
3263.28128	0.11070
3261.35263	0.10986
3259.42398	0.10892
3257.49532	0.10835
3255.56667	0.10813
3253.63802	0.10801
3251.70936	0.10772
3249.78071	0.10706
3247.85206	0.10614
3245.92340	0.10563
3243.99475	0.10573
3242.06610	0.10584
3240.13744	0.10558
3238.20879	0.10537
3236.28014	0.10525
3234.35148	0.10480
3232.42283	0.10403
3230.49418	0.10335
3228.56552	0.10306
3226.63687	0.10305
3224.70822	0.10295
3222.77956	0.10278
3220.85091	0.10266
3218.92226	0.10248
3216.99360	0.10210
3215.06495	0.10167
3213.13630	0.10136
3211.20764	0.10104
3209.27899	0.10050
3207.35034	0.09997
3205.42169	0.09983
3203.49303	0.10009
3201.56438	0.10044
3199.63573	0.10047
3197.70707	0.09988
3195.77842	0.09884
3193.84977	0.09783
3191.92111	0.09713
3189.99246	0.09684
3188.06381	0.09671
3186.13515	0.09634
3184.20650	0.09572
3182.27785	0.09510
3180.34919	0.09460
3178.42054	0.09405
3176.49189	0.09316
3174.56323	0.09226
3172.63458	0.09189
3170.70593	0.09166
3168.77727	0.09111
3166.84862	0.09050
3164.91997	0.08995
3162.99131	0.08921
3161.06266	0.08839
3159.13401	0.08786
3157.20535	0.08743
3155.27670	0.08680
3153.34805	0.08615
3151.41939	0.08567
3149.49074	0.08532
3147.56209	0.08494
3145.63343	0.08456
3143.70478	0.08423
3141.77613	0.08379
3139.84748	0.08323
3137.91882	0.08281
3135.99017	0.08255
3134.06152	0.08211
3132.13286	0.08146
3130.20421	0.08110
3128.27556	0.08103
3126.34690	0.08078
3124.41825	0.08034
3122.48960	0.07981
3120.56094	0.07931
3118.63229	0.07915
3116.70364	0.07924
3114.77498	0.07930
3112.84633	0.07948
3110.91768	0.07978
3108.98902	0.07981
3107.06037	0.07961
3105.13172	0.07956
3103.20306	0.07967
3101.27441	0.07966
3099.34576	0.07950
3097.41710	0.07929
3095.48845	0.07910
3093.55980	0.07931
3091.63114	0.08007
3089.70249	0.08082
3087.77384	0.08099
3085.84518	0.08070
3083.91653	0.08048
3081.98788	0.08062
3080.05922	0.08093
3078.13057	0.08107
3076.20192	0.08114
3074.27326	0.08122
3072.34461	0.08121
3070.41596	0.08119
3068.48731	0.08120
3066.55865	0.08104
3064.63000	0.08073
3062.70135	0.08052
3060.77269	0.08046
3058.84404	0.08037
3056.91539	0.07996
3054.98673	0.07923
3053.05808	0.07854
3051.12943	0.07811
3049.20077	0.07785
3047.27212	0.07756
3045.34347	0.07699
3043.41481	0.07613
3041.48616	0.07531
3039.55751	0.07475
3037.62885	0.07423
3035.70020	0.07365
3033.77155	0.07335
3031.84289	0.07332
3029.91424	0.07312
3027.98559	0.07252
3026.05693	0.07177
3024.12828	0.07122
3022.19963	0.07078
3020.27097	0.07022
3018.34232	0.06971
3016.41367	0.06951
3014.48501	0.06939
3012.55636	0.06924
3010.62771	0.06914
3008.69905	0.06903
3006.77040	0.06890
3004.84175	0.06882
3002.91309	0.06881
3000.98444	0.06882
2999.05579	0.06877
2997.12714	0.06870
2995.19848	0.06867
2993.26983	0.06872
2991.34118	0.06895
2989.41252	0.06933
2987.48387	0.06968
2985.55522	0.06984
2983.62656	0.07006
2981.69791	0.07066
2979.76926	0.07131
2977.84060	0.07162
2975.91195	0.07173
2973.98330	0.07190
2972.05464	0.07215
2970.12599	0.07228
2968.19734	0.07228
2966.26868	0.07250
2964.34003	0.07290
2962.41138	0.07327
2960.48272	0.07359
2958.55407	0.07380
2956.62542	0.07376
2954.69676	0.07357
2952.76811	0.07351
2950.83946	0.07360
2948.91080	0.07383
2946.98215	0.07425
2945.05350	0.07461
2943.12484	0.07477
2941.19619	0.07497
2939.26754	0.07536
2937.33888	0.07546
2935.41023	0.07501
2933.48158	0.07446
2931.55293	0.07423
2929.62427	0.07422
2927.69562	0.07433
2925.76697	0.07429
2923.83831	0.07396
2921.90966	0.07353
2919.98101	0.07310
2918.05235	0.07253
2916.12370	0.07178
2914.19505	0.07089
2912.26639	0.07022
2910.33774	0.06982
2908.40909	0.06935
2906.48043	0.06885
2904.55178	0.06845
2902.62313	0.06802
2900.69447	0.06750
2898.76582	0.06707
2896.83717	0.06694
2894.90851	0.06699
2892.97986	0.06687
2891.05121	0.06673
2889.12255	0.06680
2887.19390	0.06687
2885.26525	0.06668
2883.33659	0.06638
2881.40794	0.06631
2879.47929	0.06644
2877.55063	0.06646
2875.62198	0.06625
2873.69333	0.06597
2871.76467	0.06570
2869.83602	0.06549
2867.90737	0.06523
2865.97871	0.06473
2864.05006	0.06406
2862.12141	0.06344
2860.19276	0.06295
2858.26410	0.06254
2856.33545	0.06223
2854.40680	0.06202
2852.47814	0.06185
2850.54949	0.06167
2848.62084	0.06130
2846.69218	0.06080
2844.76353	0.06036
2842.83488	0.06000
2840.90622	0.05960
2838.97757	0.05920
2837.04892	0.05892
2835.12026	0.05871
2833.19161	0.05850
2831.26296	0.05828
2829.33430	0.05801
2827.40565	0.05769
2825.47700	0.05740
2823.54834	0.05706
2821.61969	0.05676
2819.69104	0.05672
2817.76238	0.05681
2815.83373	0.05681
2813.90508	0.05669
2811.97642	0.05648
2810.04777	0.05622
2808.11912	0.05599
2806.19046	0.05585
2804.26181	0.05574
2802.33316	0.05560
2800.40450	0.05555
2798.47585	0.05555
2796.54720	0.05530
2794.61855	0.05479
2792.68989	0.05449
2790.76124	0.05453
2788.83259	0.05457
2786.90393	0.05444
2784.97528	0.05416
2783.04663	0.05380
2781.11797	0.05350
2779.18932	0.05335
2777.26067	0.05327
2775.33201	0.05324
2773.40336	0.05314
2771.47471	0.05294
2769.54605	0.05277
2767.61740	0.05261
2765.68875	0.05240
2763.76009	0.05217
2761.83144	0.05204
2759.90279	0.05202
2757.97413	0.05186
2756.04548	0.05152
2754.11683	0.05129
2752.18817	0.05131
2750.25952	0.05138
2748.33087	0.05120
2746.40221	0.05090
2744.47356	0.05076
2742.54491	0.05070
2740.61625	0.05051
2738.68760	0.05029
2736.75895	0.05024
2734.83029	0.05020
2732.90164	0.05004
2730.97299	0.04988
2729.04433	0.04973
2727.11568	0.04957
2725.18703	0.04950
2723.25838	0.04955
2721.32972	0.04958
2719.40107	0.04941
2717.47242	0.04891
2715.54376	0.04828
2713.61511	0.04800
2711.68646	0.04812
2709.75780	0.04828
2707.82915	0.04828
2705.90050	0.04813
2703.97184	0.04791
2702.04319	0.04771
2700.11454	0.04758
2698.18588	0.04751
2696.25723	0.04746
2694.32858	0.04728
2692.39992	0.04695
2690.47127	0.04677
2688.54262	0.04684
2686.61396	0.04689
2684.68531	0.04676
2682.75666	0.04657
2680.82800	0.04644
2678.89935	0.04635
2676.97070	0.04624
2675.04204	0.04616
2673.11339	0.04624
2671.18474	0.04633
2669.25608	0.04622
2667.32743	0.04601
2665.39878	0.04588
2663.47012	0.04587
2661.54147	0.04578
2659.61282	0.04542
2657.68417	0.04492
2655.75551	0.04452
2653.82686	0.04428
2651.89821	0.04402
2649.96955	0.04362
2648.04090	0.04328
2646.11225	0.04316
2644.18359	0.04312
2642.25494	0.04288
2640.32629	0.04261
2638.39763	0.04245
2636.46898	0.04225
2634.54033	0.04196
2632.61167	0.04157
2630.68302	0.04124
2628.75437	0.04108
2626.82571	0.04093
2624.89706	0.04077
2622.96841	0.04066
2621.03975	0.04043
2619.11110	0.04005
2617.18245	0.03974
2615.25379	0.03958
2613.32514	0.03945
2611.39649	0.03929
2609.46783	0.03900
2607.53918	0.03855
2605.61053	0.03814
2603.68187	0.03799
2601.75322	0.03817
2599.82457	0.03847
2597.89591	0.03863
2595.96726	0.03861
2594.03861	0.03855
2592.10995	0.03840
2590.18130	0.03796
2588.25265	0.03732
2586.32400	0.03691
2584.39534	0.03694
2582.46669	0.03694
2580.53804	0.03661
2578.60938	0.03641
2576.68073	0.03658
2574.75208	0.03659
2572.82342	0.03642
2570.89477	0.03655
2568.96612	0.03668
2567.03746	0.03635
2565.10881	0.03580
2563.18016	0.03552
2561.25150	0.03548
2559.32285	0.03534
2557.39420	0.03522
2555.46554	0.03543
2553.53689	0.03578
2551.60824	0.03587
2549.67958	0.03581
2547.75093	0.03565
2545.82228	0.03537
2543.89362	0.03526
2541.96497	0.03536
2540.03632	0.03537
2538.10766	0.03519
2536.17901	0.03484
2534.25036	0.03441
2532.32170	0.03410
2530.39305	0.03397
2528.46440	0.03390
2526.53574	0.03390
2524.60709	0.03390
2522.67844	0.03377
2520.74978	0.03359
2518.82113	0.03347
2516.89248	0.03323
2514.96383	0.03291
2513.03517	0.03288
2511.10652	0.03305
2509.17787	0.03307
2507.24921	0.03310
2505.32056	0.03316
2503.39191	0.03316
2501.46325	0.03320
2499.53460	0.03311
2497.60595	0.03280
2495.67729	0.03262
2493.74864	0.03282
2491.81999	0.03310
2489.89133	0.03306
2487.96268	0.03286
2486.03403	0.03279
2484.10537	0.03288
2482.17672	0.03305
2480.24807	0.03288
2478.31941	0.03237
2476.39076	0.03212
2474.46211	0.03204
2472.53345	0.03175
2470.60480	0.03159
2468.67615	0.03176
2466.74749	0.03185
2464.81884	0.03196
2462.89019	0.03230
2460.96153	0.03236
2459.03288	0.03190
2457.10423	0.03140
2455.17557	0.03117
2453.24692	0.03103
2451.31827	0.03099
2449.38962	0.03116
2447.46096	0.03130
2445.53231	0.03111
2443.60366	0.03071
2441.67500	0.03058
2439.74635	0.03099
2437.81770	0.03152
2435.88904	0.03171
2433.96039	0.03169
2432.03174	0.03148
2430.10308	0.03110
2428.17443	0.03074
2426.24578	0.03053
2424.31712	0.03061
2422.38847	0.03096
2420.45982	0.03105
2418.53116	0.03088
2416.60251	0.03087
2414.67386	0.03091
2412.74520	0.03085
2410.81655	0.03096
2408.88790	0.03136
2406.95924	0.03158
2405.03059	0.03124
2403.10194	0.03073
2401.17328	0.03065
2399.24463	0.03076
2397.31598	0.03065
2395.38732	0.03068
2393.45867	0.03124
2391.53002	0.03187
2389.60136	0.03196
2387.67271	0.03172
2385.74406	0.03162
2383.81540	0.03164
2381.88675	0.03159
2379.95810	0.03156
2378.02945	0.03180
2376.10079	0.03214
2374.17214	0.03215
2372.24349	0.03191
2370.31483	0.03184
2368.38618	0.03203
2366.45753	0.03216
2364.52887	0.03211
2362.60022	0.03203
2360.67157	0.03199
2358.74291	0.03205
2356.81426	0.03222
2354.88561	0.03237
2352.95695	0.03233
2351.02830	0.03208
2349.09965	0.03184
2347.17099	0.03187
2345.24234	0.03207
2343.31369	0.03212
2341.38503	0.03203
2339.45638	0.03199
2337.52773	0.03190
2335.59907	0.03174
2333.67042	0.03166
2331.74177	0.03154
2329.81311	0.03125
2327.88446	0.03084
2325.95581	0.03037
2324.02715	0.03004
2322.09850	0.03002
2320.16985	0.03010
2318.24119	0.02997
2316.31254	0.02960
2314.38389	0.02927
2312.45524	0.02914
2310.52658	0.02913
2308.59793	0.02899
2306.66928	0.02865
2304.74062	0.02824
2302.81197	0.02787
2300.88332	0.02760
2298.95466	0.02741
2297.02601	0.02733
2295.09736	0.02728
2293.16870	0.02704
2291.24005	0.02667
2289.31140	0.02641
2287.38274	0.02597
2285.45409	0.02512
2283.52544	0.02456
2281.59678	0.02476
2279.66813	0.02496
2277.73948	0.02466
2275.81082	0.02436
2273.88217	0.02434
2271.95352	0.02437
2270.02486	0.02436
2268.09621	0.02421
2266.16756	0.02395
2264.23890	0.02402
2262.31025	0.02434
2260.38160	0.02420
2258.45294	0.02352
2256.52429	0.02299
2254.59564	0.02253
2252.66698	0.02179
2250.73833	0.02125
2248.80968	0.02123
2246.88102	0.02119
2244.95237	0.02115
2243.02372	0.02122
2241.09507	0.02101
2239.16641	0.02048
2237.23776	0.02036
2235.30911	0.02092
2233.38045	0.02123
2231.45180	0.02090
2229.52315	0.02066
2227.59449	0.02082
2225.66584	0.02076
2223.73719	0.02045
2221.80853	0.02042
2219.87988	0.02028
2217.95123	0.01958
2216.02257	0.01884
2214.09392	0.01833
2212.16527	0.01777
2210.23661	0.01735
2208.30796	0.01785
2206.37931	0.01863
2204.45065	0.01827
2202.52200	0.01754
2200.59335	0.01745
2198.66469	0.01734
2196.73604	0.01715
2194.80739	0.01720
2192.87873	0.01694
2190.95008	0.01629
2189.02143	0.01583
2187.09277	0.01579
2185.16412	0.01576
2183.23547	0.01542
2181.30681	0.01500
2179.37816	0.01515
2177.44951	0.01595
2175.52085	0.01579
2173.59220	0.01422
2171.66355	0.01330
2169.73490	0.01331
2167.80624	0.01289
2165.87759	0.01155
2163.94894	0.00934
2162.02028	0.00777
2160.09163	0.00872
2158.16298	0.01102
2156.23432	0.01299
2154.30567	0.01443
2152.37702	0.01512
2150.44836	0.01571
2148.51971	0.01655
2146.59106	0.01702
2144.66240	0.01766
2142.73375	0.01852
2140.80510	0.01874
2138.87644	0.01861
2136.94779	0.01881
2135.01914	0.01914
2133.09048	0.01880
2131.16183	0.01821
2129.23318	0.01850
2127.30452	0.01948
2125.37587	0.02036
2123.44722	0.02059
2121.51856	0.02000
2119.58991	0.01953
2117.66126	0.01976
2115.73260	0.02004
2113.80395	0.02001
2111.87530	0.01970
2109.94664	0.01927
2108.01799	0.01924
2106.08934	0.01961
2104.16069	0.01976
2102.23203	0.01940
2100.30338	0.01873
2098.37473	0.01803
2096.44607	0.01810
2094.51742	0.01883
2092.58877	0.01929
2090.66011	0.01914
2088.73146	0.01903
2086.80281	0.01904
2084.87415	0.01893
2082.94550	0.01879
2081.01685	0.01863
2079.08819	0.01790
2077.15954	0.01684
2075.23089	0.01629
2073.30223	0.01610
2071.37358	0.01571
2069.44493	0.01513
2067.51627	0.01475
2065.58762	0.01473
2063.65897	0.01489
2061.73031	0.01518
2059.80166	0.01552
2057.87301	0.01564
2055.94435	0.01565
2054.01570	0.01569
2052.08705	0.01550
2050.15839	0.01513
2048.22974	0.01457
2046.30109	0.01359
2044.37243	0.01247
2042.44378	0.01177
2040.51513	0.01150
2038.58647	0.01148
2036.65782	0.01181
2034.72917	0.01226
2032.80052	0.01207
2030.87186	0.01115
2028.94321	0.01014
2027.01456	0.00983
2025.08590	0.01038
2023.15725	0.01095
2021.22860	0.01128
2019.29994	0.01173
2017.37129	0.01188
2015.44264	0.01186
2013.51398	0.01217
2011.58533	0.01226
2009.65668	0.01181
2007.72802	0.01132
2005.79937	0.01107
2003.87072	0.01137
2001.94206	0.01255
2000.01341	0.01403
1998.08476	0.01461
1996.15610	0.01413
1994.22745	0.01353
1992.29880	0.01350
1990.37014	0.01367
1988.44149	0.01362
1986.51284	0.01348
1984.58418	0.01303
1982.65553	0.01189
1980.72688	0.01031
1978.79822	0.00912
1976.86957	0.00892
1974.94092	0.00916
1973.01226	0.00889
1971.08361	0.00856
1969.15496	0.00923
1967.22631	0.01068
1965.29765	0.01202
1963.36900	0.01304
1961.44035	0.01363
1959.51169	0.01363
1957.58304	0.01354
1955.65439	0.01378
1953.72573	0.01365
1951.79708	0.01302
1949.86843	0.01281
1947.93977	0.01323
1946.01112	0.01376
1944.08247	0.01421
1942.15381	0.01469
1940.22516	0.01519
1938.29651	0.01538
1936.36785	0.01518
1934.43920	0.01518
1932.51055	0.01550
1930.58189	0.01552
1928.65324	0.01505
1926.72459	0.01453
1924.79593	0.01441
1922.86728	0.01487
1920.93863	0.01546
1919.00997	0.01584
1917.08132	0.01618
1915.15267	0.01645
1913.22401	0.01649
1911.29536	0.01643
1909.36671	0.01636
1907.43805	0.01640
1905.50940	0.01653
1903.58075	0.01655
1901.65209	0.01651
1899.72344	0.01644
1897.79479	0.01626
1895.86614	0.01619
1893.93748	0.01629
1892.00883	0.01625
1890.08018	0.01615
1888.15152	0.01625
1886.22287	0.01640
1884.29422	0.01639
1882.36556	0.01631
1880.43691	0.01627
1878.50826	0.01616
1876.57960	0.01596
1874.65095	0.01600
1872.72230	0.01634
1870.79364	0.01653
1868.86499	0.01634
1866.93634	0.01614
1865.00768	0.01618
1863.07903	0.01631
1861.15038	0.01638
1859.22172	0.01638
1857.29307	0.01648
1855.36442	0.01671
1853.43576	0.01679
1851.50711	0.01646
1849.57846	0.01598
1847.64980	0.01576
1845.72115	0.01584
1843.79250	0.01608
1841.86384	0.01622
1839.93519	0.01605
1838.00654	0.01584
1836.07788	0.01581
1834.14923	0.01587
1832.22058	0.01590
1830.29192	0.01585
1828.36327	0.01578
1826.43462	0.01579
1824.50597	0.01573
1822.57731	0.01548
1820.64866	0.01525
1818.72001	0.01528
1816.79135	0.01567
1814.86270	0.01611
1812.93405	0.01618
1811.00539	0.01595
1809.07674	0.01573
1807.14809	0.01567
1805.21943	0.01577
1803.29078	0.01588
1801.36213	0.01581
1799.43347	0.01562
1797.50482	0.01549
1795.57617	0.01541
1793.64751	0.01530
1791.71886	0.01526
1789.79021	0.01533
1787.86155	0.01539
1785.93290	0.01533
1784.00425	0.01521
1782.07559	0.01513
1780.14694	0.01512
1778.21829	0.01509
1776.28963	0.01500
1774.36098	0.01493
1772.43233	0.01501
1770.50367	0.01512
1768.57502	0.01506
1766.64637	0.01491
1764.71771	0.01484
1762.78906	0.01487
1760.86041	0.01493
1758.93176	0.01498
1757.00310	0.01510
1755.07445	0.01522
1753.14580	0.01530
1751.21714	0.01541
1749.28849	0.01564
1747.35984	0.01587
1745.43118	0.01599
1743.50253	0.01614
1741.57388	0.01645
1739.64522	0.01681
1737.71657	0.01708
1735.78792	0.01728
1733.85926	0.01750
1731.93061	0.01772
1730.00196	0.01796
1728.07330	0.01830
1726.14465	0.01871
1724.21600	0.01907
1722.28734	0.01938
1720.35869	0.01967
1718.43004	0.02006
1716.50138	0.02066
1714.57273	0.02138
1712.64408	0.02215
1710.71542	0.02300
1708.78677	0.02403
1706.85812	0.02542
1704.92946	0.02728
1703.00081	0.02943
1701.07216	0.03180
1699.14350	0.03442
1697.21485	0.03722
1695.28620	0.04009
1693.35754	0.04295
1691.42889	0.04574
1689.50024	0.04854
1687.57159	0.05147
1685.64293	0.05462
1683.71428	0.05801
1681.78563	0.06162
1679.85697	0.06549
1677.92832	0.06962
1675.99967	0.07395
1674.07101	0.07846
1672.14236	0.08314
1670.21371	0.08796
1668.28505	0.09276
1666.35640	0.09740
1664.42775	0.10192
1662.49909	0.10633
1660.57044	0.11046
1658.64179	0.11412
1656.71313	0.11726
1654.78448	0.12002
1652.85583	0.12255
1650.92717	0.12473
1648.99852	0.12651
1647.06987	0.12808
1645.14121	0.12960
1643.21256	0.13103
1641.28391	0.13229
1639.35525	0.13338
1637.42660	0.13438
1635.49795	0.13526
1633.56929	0.13584
1631.64064	0.13595
1629.71199	0.13547
1627.78333	0.13418
1625.85468	0.13196
1623.92603	0.12892
1621.99738	0.12523
1620.06872	0.12108
1618.14007	0.11662
1616.21142	0.11208
1614.28276	0.10763
1612.35411	0.10323
1610.42546	0.09886
1608.49680	0.09463
1606.56815	0.09063
1604.63950	0.08692
1602.71084	0.08348
1600.78219	0.08041
1598.85354	0.07778
1596.92488	0.07549
1594.99623	0.07342
1593.06758	0.07164
1591.13892	0.07027
1589.21027	0.06934
1587.28162	0.06871
1585.35296	0.06837
1583.42431	0.06834
1581.49566	0.06867
1579.56700	0.06934
1577.63835	0.07036
1575.70970	0.07180
1573.78104	0.07362
1571.85239	0.07577
1569.92374	0.07823
1567.99508	0.08096
1566.06643	0.08389
1564.13778	0.08693
1562.20912	0.08993
1560.28047	0.09286
1558.35182	0.09579
1556.42316	0.09857
1554.49451	0.10099
1552.56586	0.10295
1550.63721	0.10448
1548.70855	0.10574
1546.77990	0.10684
1544.85125	0.10767
1542.92259	0.10808
1540.99394	0.10817
1539.06529	0.10809
1537.13663	0.10788
1535.20798	0.10746
1533.27933	0.10680
1531.35067	0.10599
1529.42202	0.10512
1527.49337	0.10414
1525.56471	0.10296
1523.63606	0.10161
1521.70741	0.10025
1519.77875	0.09892
1517.85010	0.09748
1515.92145	0.09575
1513.99279	0.09373
1512.06414	0.09147
1510.13549	0.08900
1508.20683	0.08634
1506.27818	0.08357
1504.34953	0.08085
1502.42087	0.07814
1500.49222	0.07540
1498.56357	0.07266
1496.63491	0.07002
1494.70626	0.06750
1492.77761	0.06509
1490.84895	0.06282
1488.92030	0.06079
1486.99165	0.05914
1485.06299	0.05791
1483.13434	0.05706
1481.20569	0.05660
1479.27704	0.05649
1477.34838	0.05673
1475.41973	0.05734
1473.49108	0.05831
1471.56242	0.05953
1469.63377	0.06089
1467.70512	0.06236
1465.77646	0.06393
1463.84781	0.06553
1461.91916	0.06715
1459.99050	0.06884
1458.06185	0.07059
1456.13320	0.07223
1454.20454	0.07353
1452.27589	0.07437
1450.34724	0.07471
1448.41858	0.07456
1446.48993	0.07407
1444.56128	0.07341
1442.63262	0.07262
1440.70397	0.07171
1438.77532	0.07058
1436.84666	0.06917
1434.91801	0.06760
1432.98936	0.06611
1431.06070	0.06481
1429.13205	0.06374
1427.20340	0.06294
1425.27474	0.06247
1423.34609	0.06220
1421.41744	0.06198
1419.48878	0.06175
1417.56013	0.06159
1415.63148	0.06165
1413.70283	0.06193
1411.77417	0.06232
1409.84552	0.06277
1407.91687	0.06331
1405.98821	0.06388
1404.05956	0.06431
1402.13091	0.06445
1400.20225	0.06436
1398.27360	0.06420
1396.34495	0.06401
1394.41629	0.06380
1392.48764	0.06364
1390.55899	0.06347
1388.63033	0.06320
1386.70168	0.06290
1384.77303	0.06260
1382.84437	0.06227
1380.91572	0.06191
1378.98707	0.06149
1377.05841	0.06095
1375.12976	0.06027
1373.20111	0.05948
1371.27245	0.05859
1369.34380	0.05760
1367.41515	0.05661
1365.48649	0.05564
1363.55784	0.05468
1361.62919	0.05386
1359.70053	0.05328
1357.77188	0.05301
1355.84323	0.05304
1353.91457	0.05328
1351.98592	0.05366
1350.05727	0.05422
1348.12861	0.05501
1346.19996	0.05594
1344.27131	0.05688
1342.34266	0.05779
1340.41400	0.05852
1338.48535	0.05900
1336.55670	0.05923
1334.62804	0.05917
1332.69939	0.05871
1330.77074	0.05790
1328.84208	0.05695
1326.91343	0.05608
1324.98478	0.05540
1323.05612	0.05492
1321.12747	0.05457
1319.19882	0.05431
1317.27016	0.05411
1315.34151	0.05389
1313.41286	0.05357
1311.48420	0.05316
1309.55555	0.05271
1307.62690	0.05226
1305.69824	0.05188
1303.76959	0.05169
1301.84094	0.05157
1299.91228	0.05132
1297.98363	0.05105
1296.05498	0.05099
1294.12632	0.05122
1292.19767	0.05165
1290.26902	0.05223
1288.34036	0.05293
1286.41171	0.05363
1284.48306	0.05423
1282.55440	0.05471
1280.62575	0.05505
1278.69710	0.05519
1276.76845	0.05517
1274.83979	0.05511
1272.91114	0.05517
1270.98249	0.05534
1269.05383	0.05554
1267.12518	0.05577
1265.19653	0.05614
1263.26787	0.05668
1261.33922	0.05727
1259.41057	0.05790
1257.48191	0.05865
1255.55326	0.05958
1253.62461	0.06061
1251.69595	0.06167
1249.76730	0.06276
1247.83865	0.06390
1245.90999	0.06503
1243.98134	0.06615
1242.05269	0.06729
1240.12403	0.06830
1238.19538	0.06894
1236.26673	0.06925
1234.33807	0.06936
1232.40942	0.06919
1230.48077	0.06860
1228.55211	0.06762
1226.62346	0.06633
1224.69481	0.06474
1222.76615	0.06300
1220.83750	0.06142
1218.90885	0.06011
1216.98019	0.05901
1215.05154	0.05821
1213.12289	0.05781
1211.19423	0.05775
1209.26558	0.05793
1207.33693	0.05823
1205.40828	0.05855
1203.47962	0.05870
1201.55097	0.05855
1199.62232	0.05814
1197.69366	0.05725
1195.76501	0.05619
1193.83636	0.05509
1191.90770	0.05400
1189.97905	0.05291
1188.05040	0.05186
1186.12174	0.05095
1184.19309	0.05017
1182.26444	0.04958
1180.33578	0.04925
1178.40713	0.04903
1176.47848	0.04878
1174.54982	0.04855
1172.62117	0.04840
1170.69252	0.04829
1168.76386	0.04818
1166.83521	0.04805
1164.90656	0.04795
1162.97790	0.04790
1161.04925	0.04779
1159.12060	0.04748
1157.19194	0.04699
1155.26329	0.04638
1153.33464	0.04558
1151.40598	0.04462
1149.47733	0.04370
1147.54868	0.04292
1145.62002	0.04232
1143.69137	0.04182
1141.76272	0.04132
1139.83406	0.04082
1137.90541	0.04034
1135.97676	0.03992
1134.04811	0.03966
1132.11945	0.03954
1130.19080	0.03942
1128.26215	0.03920
1126.33349	0.03895
1124.40484	0.03881
1122.47619	0.03880
1120.54753	0.03875
1118.61888	0.03859
1116.69023	0.03846
1114.76157	0.03840
1112.83292	0.03831
1110.90427	0.03836
1108.97561	0.03868
1107.04696	0.03901
1105.11831	0.03919
1103.18965	0.03937
1101.26100	0.03965
1099.33235	0.04003
1097.40369	0.04051
1095.47504	0.04097
1093.54639	0.04142
1091.61773	0.04206
1089.68908	0.04296
1087.76043	0.04395
1085.83177	0.04498
1083.90312	0.04602
1081.97447	0.04688
1080.04581	0.04737
1078.11716	0.04744
1076.18851	0.04716
1074.25985	0.04669
1072.33120	0.04621
1070.40255	0.04582
1068.47390	0.04561
1066.54524	0.04557
1064.61659	0.04562
1062.68794	0.04563
1060.75928	0.04546
1058.83063	0.04510
1056.90198	0.04468
1054.97332	0.04423
1053.04467	0.04383
1051.11602	0.04346
1049.18736	0.04304
1047.25871	0.04265
1045.33006	0.04241
1043.40140	0.04235
1041.47275	0.04240
1039.54410	0.04249
1037.61544	0.04263
1035.68679	0.04293
1033.75814	0.04333
1031.82948	0.04352
1029.90083	0.04327
1027.97218	0.04268
1026.04352	0.04189
1024.11487	0.04106
1022.18622	0.04030
1020.25756	0.03962
1018.32891	0.03906
1016.40026	0.03869
1014.47160	0.03836
1012.54295	0.03789
1010.61430	0.03732
1008.68564	0.03676
1006.75699	0.03622
1004.82834	0.03569
1002.89968	0.03515
1000.97103	0.03464
999.04238	0.03411
997.11373	0.03360
995.18507	0.03323
993.25642	0.03296
991.32777	0.03261
989.39911	0.03229
987.47046	0.03218
985.54181	0.03212
983.61315	0.03199
981.68450	0.03188
979.75585	0.03186
977.82719	0.03196
975.89854	0.03208
973.96989	0.03212
972.04123	0.03208
970.11258	0.03192
968.18393	0.03163
966.25527	0.03131
964.32662	0.03094
962.39797	0.03062
960.46931	0.03052
958.54066	0.03048
956.61201	0.03028
954.68335	0.03003
952.75470	0.02991
950.82605	0.02983
948.89739	0.02968
946.96874	0.02961
945.04009	0.02970
943.11143	0.02991
941.18278	0.03010
939.25413	0.03004
937.32547	0.02982
935.39682	0.02975
933.46817	0.02983
931.53952	0.02989
929.61086	0.02990
927.68221	0.02986
925.75356	0.02981
923.82490	0.02976
921.89625	0.02969
919.96760	0.02953
918.03894	0.02929
916.11029	0.02913
914.18164	0.02914
912.25298	0.02912
910.32433	0.02892
908.39568	0.02865
906.46702	0.02843
904.53837	0.02833
902.60972	0.02827
900.68106	0.02816
898.75241	0.02806
896.82376	0.02800
894.89510	0.02792
892.96645	0.02783
891.03780	0.02774
889.10914	0.02764
887.18049	0.02750
885.25184	0.02740
883.32318	0.02745
881.39453	0.02761
879.46588	0.02780
877.53722	0.02798
875.60857	0.02808
873.67992	0.02794
871.75126	0.02761
869.82261	0.02739
867.89396	0.02736
865.96530	0.02731
864.03665	0.02728
862.10800	0.02735
860.17935	0.02734
858.25069	0.02729
856.32204	0.02743
854.39339	0.02768
852.46473	0.02781
850.53608	0.02780
848.60743	0.02769
846.67877	0.02756
844.75012	0.02748
842.82147	0.02739
840.89281	0.02722
838.96416	0.02711
837.03551	0.02718
835.10685	0.02727
833.17820	0.02726
831.24955	0.02726
829.32089	0.02733
827.39224	0.02747
825.46359	0.02764
823.53493	0.02787
821.60628	0.02820
819.67763	0.02851
817.74897	0.02868
815.82032	0.02882
813.89167	0.02894
811.96301	0.02891
810.03436	0.02891
808.10571	0.02913
806.17705	0.02935
804.24840	0.02940
802.31975	0.02951
800.39109	0.02976
798.46244	0.02997
796.53379	0.03013
794.60513	0.03034
792.67648	0.03055
790.74783	0.03076
788.81918	0.03091
786.89052	0.03098
784.96187	0.03108
783.03322	0.03132
781.10456	0.03159
779.17591	0.03170
777.24726	0.03179
775.31860	0.03202
773.38995	0.03237
771.46130	0.03275
769.53264	0.03308
767.60399	0.03331
765.67534	0.03351
763.74668	0.03382
761.81803	0.03413
759.88938	0.03424
757.96072	0.03425
756.03207	0.03450
754.10342	0.03493
752.17476	0.03522
750.24611	0.03543
748.31746	0.03572
746.38880	0.03597
744.46015	0.03619
742.53150	0.03647
740.60284	0.03667
738.67419	0.03669
736.74554	0.03675
734.81688	0.03710
732.88823	0.03765
730.95958	0.03816
729.03092	0.03854
727.10227	0.03888
725.17362	0.03916
723.24497	0.03941
721.31631	0.03965
719.38766	0.03984
717.45901	0.04008
715.53035	0.04028
713.60170	0.04036
711.67305	0.04052
709.74439	0.04090
707.81574	0.04135
705.88709	0.04175
703.95843	0.04210
702.02978	0.04234
700.10113	0.04242
698.17247	0.04245
696.24382	0.04255
694.31517	0.04271
692.38651	0.04288
690.45786	0.04304
688.52921	0.04326
686.60055	0.04354
684.67190	0.04380
682.74325	0.04404
680.81459	0.04429
678.88594	0.04453
676.95729	0.04471
675.02863	0.04484
673.09998	0.04496
671.17133	0.04515
669.24267	0.04538
667.31402	0.04553
665.38537	0.04559
663.45671	0.04569
661.52806	0.04594
659.59941	0.04624
657.67075	0.04641
655.74210	0.04641
653.81345	0.04636
651.88480	0.04642
649.95614	0.04659
648.02749	0.04681
646.09884	0.04697
644.17018	0.04700
642.24153	0.04694
640.31288	0.04694
638.38422	0.04704
636.45557	0.04715
634.52692	0.04723
632.59826	0.04718
630.66961	0.04742
628.74096	0.04884
626.81230	0.04698
624.88365	0.04432
622.95500	0.04277
621.02634	0.04295
619.09769	0.04434
617.16904	0.04689
615.24038	0.04941
613.31173	0.04967
611.38308	0.04786
609.45442	0.04627
607.52577	0.04583
605.59712	0.04573
603.66846	0.04619
601.73981	0.04731
599.81116	0.04817
597.88250	0.04853
595.95385	0.04843
594.02520	0.04803
592.09654	0.04784
590.16789	0.04778
588.23924	0.04750
586.31059	0.04730
584.38193	0.04751
582.45328	0.04791
580.52463	0.04817
578.59597	0.04823
576.66732	0.04817
574.73867	0.04808
572.81001	0.04800
570.88136	0.04787
568.95271	0.04774
567.02405	0.04783
565.09540	0.04812
563.16675	0.04844
561.23809	0.04874
559.30944	0.04889
557.38079	0.04880
555.45213	0.04871
553.52348	0.04886
551.59483	0.04907
549.66617	0.04907
547.73752	0.04887
545.80887	0.04863
543.88021	0.04841
541.95156	0.04821
540.02291	0.04798
538.09425	0.04783
536.16560	0.04784
534.23695	0.04803
532.30829	0.04823
530.37964	0.04812
528.45099	0.04767
526.52233	0.04723
524.59368	0.04700
522.66503	0.04685
520.73637	0.04676
518.80772	0.04674
516.87907	0.04650
514.95042	0.04601
513.02176	0.04572
511.09311	0.04573
509.16446	0.04565
507.23580	0.04534
505.30715	0.04501
503.37850	0.04476
501.44984	0.04450
499.52119	0.04424
497.59254	0.04401
495.66388	0.04378
493.73523	0.04342
491.80658	0.04301
489.87792	0.04271
487.94927	0.04254
486.02062	0.04240
484.09196	0.04222
482.16331	0.04193
480.23466	0.04153
478.30600	0.04123
476.37735	0.04115
474.44870	0.04102
472.52004	0.04062
470.59139	0.04021
468.66274	0.04000
466.73408	0.03993
464.80543	0.03978
462.87678	0.03941
460.94812	0.03889
459.01947	0.03836
457.09082	0.03785
455.16216	0.03745
453.23351	0.03719
451.30486	0.03699
449.37620	0.03679
447.44755	0.03652
445.51890	0.03616
443.59025	0.03584
441.66159	0.03564
439.73294	0.03552
437.80429	0.03543
435.87563	0.03528
433.94698	0.03504
432.01833	0.03477
430.08967	0.03448
428.16102	0.03415
426.23237	0.03385
424.30371	0.03362
422.37506	0.03344
420.44641	0.03328
418.51775	0.03311
416.58910	0.03288
414.66045	0.03259
412.73179	0.03231
410.80314	0.03206
408.87449	0.03186
406.94583	0.03176
405.01718	0.03170
403.08853	0.03160
401.15987	0.03147
399.23122	0.03128
