3997.45528	0.05244
3996.16951	0.05177
3994.88374	0.05097
3993.59798	0.05031
3992.31221	0.05015
3991.02644	0.05047
3989.74067	0.05089
3988.45490	0.05112
3987.16913	0.05113
3985.88336	0.05104
3984.59759	0.05084
3983.31183	0.05050
3982.02606	0.05013
3980.74029	0.05002
3979.45452	0.05038
3978.16875	0.05112
3976.88298	0.05184
3975.59721	0.05208
3974.31144	0.05171
3973.02567	0.05100
3971.73991	0.05035
3970.45414	0.05001
3969.16837	0.05004
3967.88260	0.05035
3966.59683	0.05066
3965.31106	0.05068
3964.02529	0.05037
3962.73952	0.05004
3961.45376	0.04989
3960.16799	0.04983
3958.88222	0.04974
3957.59645	0.04966
3956.31068	0.04963
3955.02491	0.04948
3953.73914	0.04907
3952.45337	0.04860
3951.16760	0.04841
3949.88184	0.04861
3948.59607	0.04899
3947.31030	0.04921
3946.02453	0.04908
3944.73876	0.04868
3943.45299	0.04821
3942.16722	0.04792
3940.88145	0.04797
3939.59569	0.04837
3938.30992	0.04897
3937.02415	0.04953
3935.73838	0.04989
3934.45261	0.05005
3933.16684	0.05004
3931.88107	0.04992
3930.59530	0.04968
3929.30953	0.04929
3928.02377	0.04873
3926.73800	0.04811
3925.45223	0.04765
3924.16646	0.04756
3922.88069	0.04788
3921.59492	0.04842
3920.30915	0.04874
3919.02338	0.04837
3917.73762	0.04724
3916.45185	0.04583
3915.16608	0.04488
3913.88031	0.04478
3912.59454	0.04542
3911.30877	0.04643
3910.02300	0.04743
3908.73723	0.04807
3907.45146	0.04815
3906.16570	0.04777
3904.87993	0.04737
3903.59416	0.04733
3902.30839	0.04766
3901.02262	0.04804
3899.73685	0.04817
3898.45108	0.04795
3897.16531	0.04748
3895.87955	0.04695
3894.59378	0.04654
3893.30801	0.04634
3892.02224	0.04636
3890.73647	0.04649
3889.45070	0.04660
3888.16493	0.04662
3886.87916	0.04651
3885.59339	0.04628
3884.30763	0.04604
3883.02186	0.04599
3881.73609	0.04630
3880.45032	0.04689
3879.16455	0.04748
3877.87878	0.04781
3876.59301	0.04789
3875.30724	0.04789
3874.02148	0.04788
3872.73571	0.04781
3871.44994	0.04769
3870.16417	0.04765
3868.87840	0.04781
3867.59263	0.04812
3866.30686	0.04835
3865.02109	0.04841
3863.73532	0.04846
3862.44956	0.04870
3861.16379	0.04906
3859.87802	0.04916
3858.59225	0.04876
3857.30648	0.04804
3856.02071	0.04738
3854.73494	0.04702
3853.44917	0.04687
3852.16341	0.04680
3850.87764	0.04680
3849.59187	0.04685
3848.30610	0.04687
3847.02033	0.04674
3845.73456	0.04650
3844.44879	0.04623
3843.16302	0.04604
3841.87725	0.04597
3840.59149	0.04609
3839.30572	0.04640
3838.01995	0.04665
3836.73418	0.04649
3835.44841	0.04580
3834.16264	0.04493
3832.87687	0.04448
3831.59110	0.04465
3830.30534	0.04509
3829.01957	0.04520
3827.73380	0.04480
3826.44803	0.04436
3825.16226	0.04454
3823.87649	0.04553
3822.59072	0.04677
3821.30495	0.04740
3820.01918	0.04711
3818.73342	0.04628
3817.44765	0.04541
3816.16188	0.04466
3814.87611	0.04393
3813.59034	0.04330
3812.30457	0.04297
3811.01880	0.04303
3809.73303	0.04330
3808.44726	0.04345
3807.16150	0.04333
3805.87573	0.04309
3804.58996	0.04306
3803.30419	0.04333
3802.01842	0.04373
3800.73265	0.04404
3799.44688	0.04421
3798.16111	0.04422
3796.87535	0.04396
3795.58958	0.04341
3794.30381	0.04280
3793.01804	0.04246
3791.73227	0.04246
3790.44650	0.04247
3789.16073	0.04218
3787.87496	0.04172
3786.58919	0.04148
3785.30343	0.04162
3784.01766	0.04196
3782.73189	0.04227
3781.44612	0.04250
3780.16035	0.04268
3778.87458	0.04280
3777.58881	0.04284
3776.30304	0.04280
3775.01728	0.04269
3773.73151	0.04251
3772.44574	0.04232
3771.15997	0.04228
3769.87420	0.04245
3768.58843	0.04272
3767.30266	0.04288
3766.01689	0.04280
3764.73112	0.04247
3763.44536	0.04194
3762.15959	0.04135
3760.87382	0.04092
3759.58805	0.04090
3758.30228	0.04130
3757.01651	0.04191
3755.73074	0.04243
3754.44497	0.04274
3753.15921	0.04278
3751.87344	0.04258
3750.58767	0.04223
3749.30190	0.04197
3748.01613	0.04207
3746.73036	0.04264
3745.44459	0.04346
3744.15882	0.04412
3742.87305	0.04437
3741.58729	0.04426
3740.30152	0.04404
3739.01575	0.04384
3737.72998	0.04359
3736.44421	0.04314
3735.15844	0.04245
3733.87267	0.04168
3732.58690	0.04113
3731.30114	0.04103
3730.01537	0.04133
3728.72960	0.04167
3727.44383	0.04156
3726.15806	0.04083
3724.87229	0.03979
3723.58652	0.03897
3722.30075	0.03876
3721.01498	0.03917
3719.72922	0.03989
3718.44345	0.04053
3717.15768	0.04080
3715.87191	0.04057
3714.58614	0.04001
3713.30037	0.03937
3712.01460	0.03890
3710.72883	0.03872
3709.44307	0.03881
3708.15730	0.03918
3706.87153	0.03981
3705.58576	0.04065
3704.29999	0.04157
3703.01422	0.04235
3701.72845	0.04276
3700.44268	0.04268
3699.15691	0.04215
3697.87115	0.04140
3696.58538	0.04080
3695.29961	0.04059
3694.01384	0.04074
3692.72807	0.04095
3691.44230	0.04101
3690.15653	0.04100
3688.87076	0.04115
3687.58500	0.04141
3686.29923	0.04152
3685.01346	0.04133
3683.72769	0.04100
3682.44192	0.04081
3681.15615	0.04082
3679.87038	0.04091
3678.58461	0.04094
3677.29884	0.04081
3676.01308	0.04048
3674.72731	0.04011
3673.44154	0.04000
3672.15577	0.04044
3670.87000	0.04142
3669.58423	0.04258
3668.29846	0.04341
3667.01269	0.04364
3665.72693	0.04339
3664.44116	0.04302
3663.15539	0.04285
3661.86962	0.04296
3660.58385	0.04327
3659.29808	0.04361
3658.01231	0.04382
3656.72654	0.04388
3655.44077	0.04390
3654.15501	0.04409
3652.86924	0.04461
3651.58347	0.04535
3650.29770	0.04601
3649.01193	0.04633
3647.72616	0.04639
3646.44039	0.04647
3645.15462	0.04676
3643.86886	0.04717
3642.58309	0.04756
3641.29732	0.04786
3640.01155	0.04814
3638.72578	0.04845
3637.44001	0.04881
3636.15424	0.04912
3634.86847	0.04931
3633.58270	0.04934
3632.29694	0.04942
3631.01117	0.04987
3629.72540	0.05072
3628.43963	0.05165
3627.15386	0.05224
3625.86809	0.05246
3624.58232	0.05259
3623.29655	0.05297
3622.01079	0.05363
3620.72502	0.05434
3619.43925	0.05484
3618.15348	0.05490
3616.86771	0.05456
3615.58194	0.05414
3614.29617	0.05416
3613.01040	0.05496
3611.72463	0.05640
3610.43887	0.05802
3609.15310	0.05938
3607.86733	0.06042
3606.58156	0.06138
3605.29579	0.06237
3604.01002	0.06325
3602.72425	0.06386
3601.43848	0.06425
3600.15272	0.06458
3598.86695	0.06494
3597.58118	0.06544
3596.29541	0.06618
3595.00964	0.06708
3593.72387	0.06785
3592.43810	0.06829
3591.15233	0.06857
3589.86656	0.06894
3588.58080	0.06936
3587.29503	0.06949
3586.00926	0.06918
3584.72349	0.06878
3583.43772	0.06885
3582.15195	0.06965
3580.86618	0.07102
3579.58041	0.07261
3578.29464	0.07409
3577.00888	0.07529
3575.72311	0.07623
3574.43734	0.07703
3573.15157	0.07784
3571.86580	0.07869
3570.58003	0.07944
3569.29426	0.07995
3568.00849	0.08024
3566.72273	0.08054
3565.43696	0.08110
3564.15119	0.08195
3562.86542	0.08282
3561.57965	0.08346
3560.29388	0.08387
3559.00811	0.08436
3557.72234	0.08523
3556.43657	0.08641
3555.15081	0.08744
3553.86504	0.08789
3552.57927	0.08783
3551.29350	0.08778
3550.00773	0.08814
3548.72196	0.08890
3547.43619	0.08978
3546.15042	0.09060
3544.86466	0.09141
3543.57889	0.09225
3542.29312	0.09306
3541.00735	0.09373
3539.72158	0.09428
3538.43581	0.09486
3537.15004	0.09557
3535.86427	0.09642
3534.57850	0.09741
3533.29274	0.09850
3532.00697	0.09960
3530.72120	0.10060
3529.43543	0.10140
3528.14966	0.10202
3526.86389	0.10238
3525.57812	0.10246
3524.29235	0.10238
3523.00659	0.10244
3521.72082	0.10287
3520.43505	0.10359
3519.14928	0.10438
3517.86351	0.10513
3516.57774	0.10592
3515.29197	0.10685
3514.00620	0.10787
3512.72043	0.10881
3511.43467	0.10946
3510.14890	0.10981
3508.86313	0.11001
3507.57736	0.11035
3506.29159	0.11102
3505.00582	0.11200
3503.72005	0.11313
3502.43428	0.11420
3501.14852	0.11504
3499.86275	0.11554
3498.57698	0.11574
3497.29121	0.11581
3496.00544	0.11597
3494.71967	0.11639
3493.43390	0.11703
3492.14813	0.11771
3490.86236	0.11821
3489.57660	0.11851
3488.29083	0.11875
3487.00506	0.11908
3485.71929	0.11957
3484.43352	0.12020
3483.14775	0.12093
3481.86198	0.12169
3480.57621	0.12236
3479.29045	0.12282
3478.00468	0.12310
3476.71891	0.12338
3475.43314	0.12374
3474.14737	0.12409
3472.86160	0.12436
3471.57583	0.12463
3470.29006	0.12509
3469.00429	0.12578
3467.71853	0.12659
3466.43276	0.12730
3465.14699	0.12784
3463.86122	0.12828
3462.57545	0.12880
3461.28968	0.12948
3460.00391	0.13022
3458.71814	0.13088
3457.43238	0.13140
3456.14661	0.13184
3454.86084	0.13225
3453.57507	0.13268
3452.28930	0.13319
3451.00353	0.13380
3449.71776	0.13451
3448.43199	0.13520
3447.14622	0.13573
3445.86046	0.13600
3444.57469	0.13609
3443.28892	0.13623
3442.00315	0.13658
3440.71738	0.13701
3439.43161	0.13733
3438.14584	0.13748
3436.86007	0.13769
3435.57431	0.13815
3434.28854	0.13883
3433.00277	0.13950
3431.71700	0.14004
3430.43123	0.14048
3429.14546	0.14075
3427.85969	0.14076
3426.57392	0.14054
3425.28815	0.14044
3424.00239	0.14085
3422.71662	0.14185
3421.43085	0.14313
3420.14508	0.14425
3418.85931	0.14492
3417.57354	0.14512
3416.28777	0.14514
3415.00200	0.14539
3413.71624	0.14614
3412.43047	0.14722
3411.14470	0.14827
3409.85893	0.14904
3408.57316	0.14955
3407.28739	0.14993
3406.00162	0.15027
3404.71585	0.15071
3403.43008	0.15131
3402.14432	0.15191
3400.85855	0.15226
3399.57278	0.15219
3398.28701	0.15181
3397.00124	0.15149
3395.71547	0.15159
3394.42970	0.15226
3393.14393	0.15330
3391.85817	0.15424
3390.57240	0.15470
3389.28663	0.15470
3388.00086	0.15461
3386.71509	0.15483
3385.42932	0.15550
3384.14355	0.15649
3382.85778	0.15754
3381.57201	0.15847
3380.28625	0.15923
3379.00048	0.15985
3377.71471	0.16030
3376.42894	0.16053
3375.14317	0.16066
3373.85740	0.16091
3372.57163	0.16149
3371.28586	0.16235
3370.00010	0.16330
3368.71433	0.16426
3367.42856	0.16538
3366.14279	0.16676
3364.85702	0.16827
3363.57125	0.16957
3362.28548	0.17049
3360.99971	0.17120
3359.71394	0.17210
3358.42818	0.17335
3357.14241	0.17468
3355.85664	0.17571
3354.57087	0.17637
3353.28510	0.17686
3351.99933	0.17731
3350.71356	0.17768
3349.42779	0.17800
3348.14202	0.17849
3346.85626	0.17934
3345.57049	0.18052
3344.28472	0.18180
3342.99895	0.18298
3341.71318	0.18398
3340.42741	0.18483
3339.14164	0.18562
3337.85587	0.18654
3336.57011	0.18767
3335.28434	0.18896
3333.99857	0.19020
3332.71280	0.19121
3331.42703	0.19193
3330.14126	0.19238
3328.85549	0.19269
3327.56972	0.19304
3326.28395	0.19359
3324.99819	0.19436
3323.71242	0.19521
3322.42665	0.19598
3321.14088	0.19662
3319.85511	0.19711
3318.56934	0.19748
3317.28357	0.19772
3315.99780	0.19784
3314.71204	0.19793
3313.42627	0.19819
3312.14050	0.19882
3310.85473	0.19984
3309.56896	0.20099
3308.28319	0.20191
3306.99742	0.20241
3305.71165	0.20254
3304.42588	0.20249
3303.14012	0.20245
3301.85435	0.20246
3300.56858	0.20248
3299.28281	0.20249
3297.99704	0.20246
3296.71127	0.20244
3295.42550	0.20249
3294.13973	0.20270
3292.85397	0.20307
3291.56820	0.20349
3290.28243	0.20382
3288.99666	0.20398
3287.71089	0.20399
3286.42512	0.20392
3285.13935	0.20381
3283.85358	0.20364
3282.56781	0.20333
3281.28205	0.20282
3279.99628	0.20228
3278.71051	0.20198
3277.42474	0.20206
3276.13897	0.20229
3274.85320	0.20227
3273.56743	0.20178
3272.28166	0.20098
3270.99590	0.20018
3269.71013	0.19955
3268.42436	0.19903
3267.13859	0.19843
3265.85282	0.19760
3264.56705	0.19661
3263.28128	0.19571
3261.99551	0.19515
3260.70974	0.19482
3259.42398	0.19439
3258.13821	0.19369
3256.85244	0.19288
3255.56667	0.19228
3254.28090	0.19200
3252.99513	0.19194
3251.70936	0.19193
3250.42359	0.19190
3249.13783	0.19177
3247.85206	0.19144
3246.56629	0.19082
3245.28052	0.18994
3243.99475	0.18890
3242.70898	0.18783
3241.42321	0.18680
3240.13744	0.18585
3238.85167	0.18502
3237.56591	0.18434
3236.28014	0.18380
3234.99437	0.18336
3233.70860	0.18297
3232.42283	0.18266
3231.13706	0.18237
3229.85129	0.18202
3228.56552	0.18146
3227.27976	0.18065
3225.99399	0.17975
3224.70822	0.17904
3223.42245	0.17880
3222.13668	0.17901
3220.85091	0.17937
3219.56514	0.17950
3218.27937	0.17925
3216.99360	0.17869
3215.70784	0.17797
3214.42207	0.17728
3213.13630	0.17671
3211.85053	0.17623
3210.56476	0.17571
3209.27899	0.17510
3207.99322	0.17457
3206.70745	0.17441
3205.42169	0.17468
3204.13592	0.17510
3202.85015	0.17522
3201.56438	0.17472
3200.27861	0.17359
3198.99284	0.17217
3197.70707	0.17093
3196.42130	0.17017
3195.13553	0.16981
3193.84977	0.16953
3192.56400	0.16899
3191.27823	0.16807
3189.99246	0.16690
3188.70669	0.16568
3187.42092	0.16464
3186.13515	0.16394
3184.84938	0.16359
3183.56362	0.16330
3182.27785	0.16274
3180.99208	0.16186
3179.70631	0.16093
3178.42054	0.16026
3177.13477	0.15978
3175.84900	0.15917
3174.56323	0.15830
3173.27746	0.15732
3171.99170	0.15648
3170.70593	0.15588
3169.42016	0.15537
3168.13439	0.15476
3166.84862	0.15389
3165.56285	0.15283
3164.27708	0.15181
3162.99131	0.15104
3161.70555	0.15055
3160.41978	0.15016
3159.13401	0.14968
3157.84824	0.14898
3156.56247	0.14806
3155.27670	0.14699
3153.99093	0.14585
3152.70516	0.14479
3151.41939	0.14391
3150.13363	0.14326
3148.84786	0.14274
3147.56209	0.14218
3146.27632	0.14144
3144.99055	0.14052
3143.70478	0.13952
3142.41901	0.13851
3141.13324	0.13755
3139.84748	0.13672
3138.56171	0.13614
3137.27594	0.13588
3135.99017	0.13588
3134.70440	0.13599
3133.41863	0.13604
3132.13286	0.13588
3130.84709	0.13539
3129.56132	0.13460
3128.27556	0.13368
3126.98979	0.13284
3125.70402	0.13219
3124.41825	0.13172
3123.13248	0.13147
3121.84671	0.13142
3120.56094	0.13144
3119.27517	0.13141
3117.98940	0.13133
3116.70364	0.13132
3115.41787	0.13139
3114.13210	0.13142
3112.84633	0.13130
3111.56056	0.13107
3110.27479	0.13085
3108.98902	0.13073
3107.70325	0.13068
3106.41749	0.13068
3105.13172	0.13074
3103.84595	0.13089
3102.56018	0.13111
3101.27441	0.13134
3099.98864	0.13152
3098.70287	0.13170
3097.41710	0.13198
3096.13133	0.13236
3094.84557	0.13275
3093.55980	0.13308
3092.27403	0.13331
3090.98826	0.13345
3089.70249	0.13351
3088.41672	0.13351
3087.13095	0.13351
3085.84518	0.13358
3084.55942	0.13377
3083.27365	0.13408
3081.98788	0.13444
3080.70211	0.13474
3079.41634	0.13485
3078.13057	0.13480
3076.84480	0.13472
3075.55903	0.13476
3074.27326	0.13495
3072.98750	0.13512
3071.70173	0.13505
3070.41596	0.13468
3069.13019	0.13416
3067.84442	0.13378
3066.55865	0.13368
3065.27288	0.13375
3063.98711	0.13369
3062.70135	0.13326
3061.41558	0.13250
3060.12981	0.13162
3058.84404	0.13083
3057.55827	0.13013
3056.27250	0.12944
3054.98673	0.12874
3053.70096	0.12807
3052.41519	0.12751
3051.12943	0.12699
3049.84366	0.12636
3048.55789	0.12552
3047.27212	0.12461
3045.98635	0.12384
3044.70058	0.12337
3043.41481	0.12311
3042.12904	0.12285
3040.84328	0.12243
3039.55751	0.12178
3038.27174	0.12085
3036.98597	0.11971
3035.70020	0.11855
3034.41443	0.11760
3033.12866	0.11695
3031.84289	0.11645
3030.55712	0.11592
3029.27136	0.11535
3027.98559	0.11488
3026.69982	0.11455
3025.41405	0.11428
3024.12828	0.11391
3022.84251	0.11339
3021.55674	0.11276
3020.27097	0.11209
3018.98521	0.11143
3017.69944	0.11079
3016.41367	0.11018
3015.12790	0.10961
3013.84213	0.10911
3012.55636	0.10877
3011.27059	0.10859
3009.98482	0.10849
3008.69905	0.10828
3007.41329	0.10792
3006.12752	0.10750
3004.84175	0.10724
3003.55598	0.10723
3002.27021	0.10737
3000.98444	0.10756
2999.69867	0.10781
2998.41290	0.10817
2997.12714	0.10861
2995.84137	0.10899
2994.55560	0.10925
2993.26983	0.10942
2991.98406	0.10953
2990.69829	0.10963
2989.41252	0.10979
2988.12675	0.11013
2986.84098	0.11070
2985.55522	0.11146
2984.26945	0.11230
2982.98368	0.11310
2981.69791	0.11378
2980.41214	0.11433
2979.12637	0.11477
2977.84060	0.11520
2976.55483	0.11567
2975.26907	0.11612
2973.98330	0.11639
2972.69753	0.11642
2971.41176	0.11642
2970.12599	0.11667
2968.84022	0.11727
2967.55445	0.11800
2966.26868	0.11864
2964.98291	0.11913
2963.69715	0.11961
2962.41138	0.12009
2961.12561	0.12046
2959.83984	0.12063
2958.55407	0.12061
2957.26830	0.12049
2955.98253	0.12035
2954.69676	0.12025
2953.41100	0.12018
2952.12523	0.12005
2950.83946	0.11981
2949.55369	0.11959
2948.26792	0.11959
2946.98215	0.11979
2945.69638	0.12001
2944.41061	0.12007
2943.12484	0.11997
2941.83908	0.11988
2940.55331	0.11993
2939.26754	0.12015
2937.98177	0.12040
2936.69600	0.12055
2935.41023	0.12054
2934.12446	0.12051
2932.83869	0.12057
2931.55293	0.12067
2930.26716	0.12063
2928.98139	0.12040
2927.69562	0.12005
2926.40985	0.11969
2925.12408	0.11927
2923.83831	0.11866
2922.55254	0.11781
2921.26677	0.11681
2919.98101	0.11592
2918.69524	0.11531
2917.40947	0.11491
2916.12370	0.11450
2914.83793	0.11387
2913.55216	0.11302
2912.26639	0.11214
2910.98062	0.11139
2909.69486	0.11073
2908.40909	0.11000
2907.12332	0.10917
2905.83755	0.10833
2904.55178	0.10762
2903.26601	0.10708
2901.98024	0.10659
2900.69447	0.10601
2899.40870	0.10528
2898.12294	0.10452
2896.83717	0.10397
2895.55140	0.10373
2894.26563	0.10370
2892.97986	0.10372
2891.69409	0.10365
2890.40832	0.10348
2889.12255	0.10322
2887.83678	0.10293
2886.55102	0.10273
2885.26525	0.10273
2883.97948	0.10288
2882.69371	0.10304
2881.40794	0.10308
2880.12217	0.10302
2878.83640	0.10295
2877.55063	0.10292
2876.26487	0.10293
2874.97910	0.10287
2873.69333	0.10259
2872.40756	0.10201
2871.12179	0.10121
2869.83602	0.10040
2868.55025	0.09972
2867.26448	0.09911
2865.97871	0.09844
2864.69295	0.09767
2863.40718	0.09692
2862.12141	0.09627
2860.83564	0.09575
2859.54987	0.09529
2858.26410	0.09482
2856.97833	0.09435
2855.69256	0.09386
2854.40680	0.09331
2853.12103	0.09266
2851.83526	0.09192
2850.54949	0.09122
2849.26372	0.09065
2847.97795	0.09020
2846.69218	0.08982
2845.40641	0.08946
2844.12064	0.08908
2842.83488	0.08865
2841.54911	0.08817
2840.26334	0.08776
2838.97757	0.08748
2837.69180	0.08723
2836.40603	0.08681
2835.12026	0.08619
2833.83449	0.08563
2832.54873	0.08535
2831.26296	0.08531
2829.97719	0.08527
2828.69142	0.08512
2827.40565	0.08488
2826.11988	0.08458
2824.83411	0.08424
2823.54834	0.08386
2822.26257	0.08344
2820.97681	0.08299
2819.69104	0.08253
2818.40527	0.08210
2817.11950	0.08173
2815.83373	0.08141
2814.54796	0.08113
2813.26219	0.08084
2811.97642	0.08053
2810.69066	0.08022
2809.40489	0.07996
2808.11912	0.07982
2806.83335	0.07976
2805.54758	0.07969
2804.26181	0.07956
2802.97604	0.07939
2801.69027	0.07924
2800.40450	0.07913
2799.11874	0.07898
2797.83297	0.07872
2796.54720	0.07835
2795.26143	0.07795
2793.97566	0.07767
2792.68989	0.07754
2791.40412	0.07748
2790.11835	0.07738
2788.83259	0.07712
2787.54682	0.07670
2786.26105	0.07620
2784.97528	0.07577
2783.68951	0.07556
2782.40374	0.07556
2781.11797	0.07559
2779.83220	0.07544
2778.54643	0.07508
2777.26067	0.07470
2775.97490	0.07452
2774.68913	0.07457
2773.40336	0.07465
2772.11759	0.07458
2770.83182	0.07429
2769.54605	0.07389
2768.26028	0.07352
2766.97452	0.07324
2765.68875	0.07301
2764.40298	0.07280
2763.11721	0.07262
2761.83144	0.07252
2760.54567	0.07247
2759.25990	0.07239
2757.97413	0.07222
2756.68836	0.07195
2755.40260	0.07167
2754.11683	0.07145
2752.83106	0.07129
2751.54529	0.07110
2750.25952	0.07080
2748.97375	0.07044
2747.68798	0.07016
2746.40221	0.07004
2745.11645	0.07000
2743.83068	0.06995
2742.54491	0.06986
2741.25914	0.06973
2739.97337	0.06948
2738.68760	0.06902
2737.40183	0.06840
2736.11606	0.06786
2734.83029	0.06756
2733.54453	0.06750
2732.25876	0.06748
2730.97299	0.06740
2729.68722	0.06724
2728.40145	0.06704
2727.11568	0.06683
2725.82991	0.06663
2724.54414	0.06646
2723.25838	0.06631
2721.97261	0.06617
2720.68684	0.06602
2719.40107	0.06587
2718.11530	0.06569
2716.82953	0.06553
2715.54376	0.06544
2714.25799	0.06540
2712.97222	0.06536
2711.68646	0.06523
2710.40069	0.06500
2709.11492	0.06474
2707.82915	0.06451
2706.54338	0.06436
2705.25761	0.06424
2703.97184	0.06408
2702.68607	0.06386
2701.40031	0.06364
2700.11454	0.06349
2698.82877	0.06338
2697.54300	0.06325
2696.25723	0.06305
2694.97146	0.06283
2693.68569	0.06269
2692.39992	0.06271
2691.11415	0.06286
2689.82839	0.06298
2688.54262	0.06295
2687.25685	0.06277
2685.97108	0.06255
2684.68531	0.06239
2683.39954	0.06228
2682.11377	0.06213
2680.82800	0.06192
2679.54224	0.06176
2678.25647	0.06174
2676.97070	0.06183
2675.68493	0.06190
2674.39916	0.06182
2673.11339	0.06159
2671.82762	0.06132
2670.54185	0.06114
2669.25608	0.06108
2667.97032	0.06108
2666.68455	0.06106
2665.39878	0.06102
2664.11301	0.06109
2662.82724	0.06131
2661.54147	0.06159
2660.25570	0.06173
2658.96993	0.06167
2657.68417	0.06145
2656.39840	0.06115
2655.11263	0.06078
2653.82686	0.06042
2652.54109	0.06017
2651.25532	0.06010
2649.96955	0.06014
2648.68378	0.06008
2647.39801	0.05976
2646.11225	0.05924
2644.82648	0.05872
2643.54071	0.05838
2642.25494	0.05820
2640.96917	0.05803
2639.68340	0.05776
2638.39763	0.05741
2637.11186	0.05707
2635.82609	0.05684
2634.54033	0.05671
2633.25456	0.05659
2631.96879	0.05642
2630.68302	0.05625
2629.39725	0.05612
2628.11148	0.05601
2626.82571	0.05585
2625.53994	0.05557
2624.25418	0.05516
2622.96841	0.05466
2621.68264	0.05425
2620.39687	0.05404
2619.11110	0.05397
2617.82533	0.05382
2616.53956	0.05349
2615.25379	0.05307
2613.96802	0.05278
2612.68226	0.05274
2611.39649	0.05290
2610.11072	0.05309
2608.82495	0.05316
2607.53918	0.05308
2606.25341	0.05292
2604.96764	0.05271
2603.68187	0.05246
2602.39611	0.05219
2601.11034	0.05198
2599.82457	0.05191
2598.53880	0.05190
2597.25303	0.05188
2595.96726	0.05181
2594.68149	0.05168
2593.39572	0.05148
2592.10995	0.05123
2590.82419	0.05098
2589.53842	0.05073
2588.25265	0.05037
2586.96688	0.04978
2585.68111	0.04906
2584.39534	0.04853
2583.10957	0.04840
2581.82380	0.04857
2580.53804	0.04874
2579.25227	0.04877
2577.96650	0.04880
2576.68073	0.04897
2575.39496	0.04920
2574.10919	0.04925
2572.82342	0.04896
2571.53765	0.04846
2570.25188	0.04795
2568.96612	0.04759
2567.68035	0.04739
2566.39458	0.04727
2565.10881	0.04725
2563.82304	0.04742
2562.53727	0.04787
2561.25150	0.04842
2559.96573	0.04869
2558.67997	0.04841
2557.39420	0.04772
2556.10843	0.04699
2554.82266	0.04650
2553.53689	0.04615
2552.25112	0.04574
2550.96535	0.04526
2549.67958	0.04498
2548.39381	0.04501
2547.10805	0.04518
2545.82228	0.04522
2544.53651	0.04506
2543.25074	0.04484
2541.96497	0.04465
2540.67920	0.04450
2539.39343	0.04440
2538.10766	0.04435
2536.82190	0.04435
2535.53613	0.04434
2534.25036	0.04435
2532.96459	0.04438
2531.67882	0.04441
2530.39305	0.04439
2529.10728	0.04434
2527.82151	0.04434
2526.53574	0.04436
2525.24998	0.04430
2523.96421	0.04406
2522.67844	0.04366
2521.39267	0.04329
2520.10690	0.04308
2518.82113	0.04303
2517.53536	0.04308
2516.24959	0.04328
2514.96383	0.04363
2513.67806	0.04397
2512.39229	0.04401
2511.10652	0.04364
2509.82075	0.04307
2508.53498	0.04259
2507.24921	0.04235
2505.96344	0.04230
2504.67767	0.04235
2503.39191	0.04242
2502.10614	0.04245
2500.82037	0.04244
2499.53460	0.04243
2498.24883	0.04243
2496.96306	0.04234
2495.67729	0.04208
2494.39152	0.04175
2493.10576	0.04153
2491.81999	0.04151
2490.53422	0.04159
2489.24845	0.04160
2487.96268	0.04140
2486.67691	0.04104
2485.39114	0.04072
2484.10537	0.04062
2482.81960	0.04073
2481.53384	0.04086
2480.24807	0.04089
2478.96230	0.04089
2477.67653	0.04098
2476.39076	0.04113
2475.10499	0.04119
2473.81922	0.04117
2472.53345	0.04121
2471.24769	0.04138
2469.96192	0.04153
2468.67615	0.04144
2467.39038	0.04111
2466.10461	0.04079
2464.81884	0.04076
2463.53307	0.04096
2462.24730	0.04105
2460.96153	0.04073
2459.67577	0.04008
2458.39000	0.03947
2457.10423	0.03924
2455.81846	0.03947
2454.53269	0.03994
2453.24692	0.04031
2451.96115	0.04042
2450.67538	0.04030
2449.38962	0.04013
2448.10385	0.04004
2446.81808	0.04001
2445.53231	0.03993
2444.24654	0.03974
2442.96077	0.03944
2441.67500	0.03921
2440.38923	0.03920
2439.10346	0.03939
2437.81770	0.03954
2436.53193	0.03945
2435.24616	0.03919
2433.96039	0.03898
2432.67462	0.03895
2431.38885	0.03902
2430.10308	0.03910
2428.81731	0.03914
2427.53155	0.03914
2426.24578	0.03911
2424.96001	0.03907
2423.67424	0.03903
2422.38847	0.03905
2421.10270	0.03916
2419.81693	0.03935
2418.53116	0.03956
2417.24539	0.03969
2415.95963	0.03969
2414.67386	0.03955
2413.38809	0.03930
2412.10232	0.03896
2410.81655	0.03854
2409.53078	0.03811
2408.24501	0.03778
2406.95924	0.03764
2405.67347	0.03770
2404.38771	0.03788
2403.10194	0.03811
2401.81617	0.03834
2400.53040	0.03854
2399.24463	0.03849
2397.95886	0.03837
2396.67309	0.03822
2395.38732	0.03813
2394.10156	0.03813
2392.81579	0.03816
2391.53002	0.03812
2390.24425	0.03797
2388.95848	0.03777
2387.67271	0.03756
2386.38694	0.03744
2385.10117	0.03754
2383.81540	0.03789
2382.52964	0.03838
2381.24387	0.03875
2379.95810	0.03885
2378.67233	0.03873
2377.38656	0.03859
2376.10079	0.03858
2374.81502	0.03870
2373.52925	0.03884
2372.24349	0.03895
2370.95772	0.03903
2369.67195	0.03910
2368.38618	0.03916
2367.10041	0.03923
2365.81464	0.03939
2364.52887	0.03966
2363.24310	0.03994
2361.95733	0.04012
2360.67157	0.04017
2359.38580	0.04010
2358.10003	0.03995
2356.81426	0.03973
2355.52849	0.03945
2354.24272	0.03915
2352.95695	0.03882
2351.67118	0.03847
2350.38542	0.03822
2349.09965	0.03821
2347.81388	0.03847
2346.52811	0.03890
2345.24234	0.03933
2343.95657	0.03965
2342.67080	0.03987
2341.38503	0.03996
2340.09926	0.03993
2338.81350	0.03974
2337.52773	0.03943
2336.24196	0.03908
2334.95619	0.03880
2333.67042	0.03856
2332.38465	0.03831
2331.09888	0.03797
2329.81311	0.03763
2328.52735	0.03749
2327.24158	0.03773
2325.95581	0.03833
2324.67004	0.03906
2323.38427	0.03962
2322.09850	0.03984
2320.81273	0.03981
2319.52696	0.03971
2318.24119	0.03966
2316.95543	0.03964
2315.66966	0.03955
2314.38389	0.03931
2313.09812	0.03893
2311.81235	0.03853
2310.52658	0.03824
2309.24081	0.03809
2307.95504	0.03799
2306.66928	0.03780
2305.38351	0.03748
2304.09774	0.03712
2302.81197	0.03680
2301.52620	0.03643
2300.24043	0.03587
2298.95466	0.03513
2297.66889	0.03444
2296.38312	0.03409
2295.09736	0.03411
2293.81159	0.03430
2292.52582	0.03439
2291.24005	0.03431
2289.95428	0.03419
2288.66851	0.03414
2287.38274	0.03420
2286.09697	0.03423
2284.81121	0.03408
2283.52544	0.03372
2282.23967	0.03332
2280.95390	0.03313
2279.66813	0.03327
2278.38236	0.03360
2277.09659	0.03387
2275.81082	0.03388
2274.52505	0.03355
2273.23929	0.03299
2271.95352	0.03242
2270.66775	0.03195
2269.38198	0.03146
2268.09621	0.03079
2266.81044	0.02991
2265.52467	0.02903
2264.23890	0.02841
2262.95314	0.02824
2261.66737	0.02851
2260.38160	0.02904
2259.09583	0.02954
2257.81006	0.02976
2256.52429	0.02964
2255.23852	0.02931
2253.95275	0.02883
2252.66698	0.02818
2251.38122	0.02749
2250.09545	0.02727
2248.80968	0.02792
2247.52391	0.02846
2246.23814	0.02914
2244.95237	0.02956
2243.66660	0.02946
2242.38083	0.02894
2241.09507	0.02832
2239.80930	0.02799
2238.52353	0.02805
2237.23776	0.02827
2235.95199	0.02831
2234.66622	0.02808
2233.38045	0.02780
2232.09468	0.02777
2230.80891	0.02801
2229.52315	0.02827
2228.23738	0.02835
2226.95161	0.02825
2225.66584	0.02807
2224.38007	0.02779
2223.09430	0.02737
2221.80853	0.02689
2220.52276	0.02649
2219.23700	0.02631
2217.95123	0.02631
2216.66546	0.02628
2215.37969	0.02600
2214.09392	0.02547
2212.80815	0.02492
2211.52238	0.02456
2210.23661	0.02442
2208.95084	0.02432
2207.66508	0.02411
2206.37931	0.02392
2205.09354	0.02403
2203.80777	0.02452
2202.52200	0.02485
2201.23623	0.02441
2199.95046	0.02326
2198.66469	0.02215
2197.37893	0.02177
2196.09316	0.02218
2194.80739	0.02300
2193.52162	0.02376
2192.23585	0.02403
2190.95008	0.02352
2189.66431	0.02235
2188.37854	0.02105
2187.09277	0.02015
2185.80701	0.01977
2184.52124	0.01962
2183.23547	0.01946
2181.94970	0.01956
2180.66393	0.02045
2179.37816	0.02199
2178.09239	0.02323
2176.80662	0.02322
2175.52085	0.02196
2174.23509	0.02027
2172.94932	0.01904
2171.66355	0.01853
2170.37778	0.01834
2169.09201	0.01789
2167.80624	0.01691
2166.52047	0.01540
2165.23470	0.01355
2163.94894	0.01184
2162.66317	0.01097
2161.37740	0.01126
2160.09163	0.01225
2158.80586	0.01315
2157.52009	0.01372
2156.23432	0.01431
2154.94855	0.01526
2153.66278	0.01667
2152.37702	0.01826
2151.09125	0.01958
2149.80548	0.02034
2148.51971	0.02069
2147.23394	0.02094
2145.94817	0.02118
2144.66240	0.02130
2143.37663	0.02118
2142.09087	0.02075
2140.80510	0.02018
2139.51933	0.01986
2138.23356	0.02002
2136.94779	0.02049
2135.66202	0.02087
2134.37625	0.02106
2133.09048	0.02124
2131.80471	0.02157
2130.51895	0.02204
2129.23318	0.02255
2127.94741	0.02309
2126.66164	0.02372
2125.37587	0.02445
2124.09010	0.02511
2122.80433	0.02552
2121.51856	0.02568
2120.23280	0.02585
2118.94703	0.02621
2117.66126	0.02673
2116.37549	0.02716
2115.08972	0.02725
2113.80395	0.02687
2112.51818	0.02614
2111.23241	0.02535
2109.94664	0.02484
2108.66088	0.02481
2107.37511	0.02518
2106.08934	0.02567
2104.80357	0.02589
2103.51780	0.02573
2102.23203	0.02540
2100.94626	0.02513
2099.66049	0.02463
2098.37473	0.02409
2097.08896	0.02350
2095.80319	0.02304
2094.51742	0.02300
2093.23165	0.02337
2091.94588	0.02382
2090.66011	0.02405
2089.37434	0.02402
2088.08857	0.02394
2086.80281	0.02393
2085.51704	0.02386
2084.23127	0.02354
2082.94550	0.02299
2081.65973	0.02250
2080.37396	0.02239
2079.08819	0.02270
2077.80242	0.02309
2076.51666	0.02312
2075.23089	0.02259
2073.94512	0.02171
2072.65935	0.02089
2071.37358	0.02035
2070.08781	0.02009
2068.80204	0.01999
2067.51627	0.02013
2066.23050	0.02059
2064.94474	0.02127
2063.65897	0.02178
2062.37320	0.02174
2061.08743	0.02112
2059.80166	0.02018
2058.51589	0.01928
2057.23012	0.01864
2055.94435	0.01835
2054.65859	0.01839
2053.37282	0.01854
2052.08705	0.01853
2050.80128	0.01820
2049.51551	0.01759
2048.22974	0.01692
2046.94397	0.01639
2045.65820	0.01621
2044.37243	0.01646
2043.08667	0.01692
2041.80090	0.01710
2040.51513	0.01669
2039.22936	0.01592
2037.94359	0.01546
2036.65782	0.01577
2035.37205	0.01670
2034.08628	0.01759
2032.80052	0.01778
2031.51475	0.01717
2030.22898	0.01633
2028.94321	0.01598
2027.65744	0.01646
2026.37167	0.01763
2025.08590	0.01907
2023.80013	0.02022
2022.51436	0.02040
2021.22860	0.01915
2019.94283	0.01687
2018.65706	0.01474
2017.37129	0.01379
2016.08552	0.01410
2014.79975	0.01491
2013.51398	0.01554
2012.22821	0.01582
2010.94245	0.01586
2009.65668	0.01571
2008.37091	0.01542
2007.08514	0.01521
2005.79937	0.01538
2004.51360	0.01599
2003.22783	0.01677
2001.94206	0.01732
2000.65629	0.01734
1999.37053	0.01684
1998.08476	0.01612
1996.79899	0.01565
1995.51322	0.01579
1994.22745	0.01660
1992.94168	0.01783
1991.65591	0.01894
1990.37014	0.01936
1989.08438	0.01877
1987.79861	0.01738
1986.51284	0.01588
1985.22707	0.01494
1983.94130	0.01472
1982.65553	0.01478
1981.36976	0.01455
1980.08399	0.01397
1978.79822	0.01346
1977.51246	0.01342
1976.22669	0.01390
1974.94092	0.01470
1973.65515	0.01560
1972.36938	0.01645
1971.08361	0.01701
1969.79784	0.01709
1968.51207	0.01673
1967.22631	0.01624
1965.94054	0.01595
1964.65477	0.01600
1963.36900	0.01624
1962.08323	0.01639
1960.79746	0.01620
1959.51169	0.01568
1958.22592	0.01510
1956.94015	0.01487
1955.65439	0.01520
1954.36862	0.01599
1953.08285	0.01689
1951.79708	0.01753
1950.51131	0.01773
1949.22554	0.01756
1947.93977	0.01724
1946.65400	0.01704
1945.36823	0.01710
1944.08247	0.01741
1942.79670	0.01787
1941.51093	0.01830
1940.22516	0.01854
1938.93939	0.01859
1937.65362	0.01866
1936.36785	0.01890
1935.08208	0.01922
1933.79632	0.01934
1932.51055	0.01909
1931.22478	0.01861
1929.93901	0.01824
1928.65324	0.01819
1927.36747	0.01846
1926.08170	0.01882
1924.79593	0.01904
1923.51016	0.01907
1922.22440	0.01906
1920.93863	0.01921
1919.65286	0.01957
1918.36709	0.01996
1917.08132	0.02021
1915.79555	0.02025
1914.50978	0.02014
1913.22401	0.01994
1911.93825	0.01976
1910.65248	0.01964
1909.36671	0.01955
1908.08094	0.01941
1906.79517	0.01918
1905.50940	0.01897
1904.22363	0.01890
1902.93786	0.01900
1901.65209	0.01924
1900.36633	0.01950
1899.08056	0.01973
1897.79479	0.01986
1896.50902	0.01984
1895.22325	0.01972
1893.93748	0.01960
1892.65171	0.01958
1891.36594	0.01965
1890.08018	0.01976
1888.79441	0.01984
1887.50864	0.01990
1886.22287	0.01997
1884.93710	0.02010
1883.65133	0.02020
1882.36556	0.02016
1881.07979	0.01990
1879.79402	0.01954
1878.50826	0.01929
1877.22249	0.01934
1875.93672	0.01964
1874.65095	0.01998
1873.36518	0.02020
1872.07941	0.02027
1870.79364	0.02026
1869.50787	0.02021
1868.22211	0.02011
1866.93634	0.01999
1865.65057	0.01985
1864.36480	0.01969
1863.07903	0.01952
1861.79326	0.01941
1860.50749	0.01941
1859.22172	0.01949
1857.93595	0.01956
1856.65019	0.01958
1855.36442	0.01959
1854.07865	0.01960
1852.79288	0.01959
1851.50711	0.01953
1850.22134	0.01945
1848.93557	0.01942
1847.64980	0.01941
1846.36404	0.01940
1845.07827	0.01940
1843.79250	0.01941
1842.50673	0.01948
1841.22096	0.01959
1839.93519	0.01973
1838.64942	0.01978
1837.36365	0.01969
1836.07788	0.01948
1834.79212	0.01931
1833.50635	0.01931
1832.22058	0.01947
1830.93481	0.01969
1829.64904	0.01984
1828.36327	0.01987
1827.07750	0.01979
1825.79173	0.01966
1824.50597	0.01948
1823.22020	0.01926
1821.93443	0.01902
1820.64866	0.01881
1819.36289	0.01870
1818.07712	0.01873
1816.79135	0.01887
1815.50558	0.01909
1814.21981	0.01934
1812.93405	0.01953
1811.64828	0.01958
1810.36251	0.01949
1809.07674	0.01934
1807.79097	0.01922
1806.50520	0.01918
1805.21943	0.01920
1803.93366	0.01924
1802.64790	0.01926
1801.36213	0.01926
1800.07636	0.01928
1798.79059	0.01934
1797.50482	0.01942
1796.21905	0.01951
1794.93328	0.01961
1793.64751	0.01968
1792.36174	0.01969
1791.07598	0.01960
1789.79021	0.01942
1788.50444	0.01923
1787.21867	0.01910
1785.93290	0.01907
1784.64713	0.01912
1783.36136	0.01918
1782.07559	0.01920
1780.78983	0.01915
1779.50406	0.01908
1778.21829	0.01905
1776.93252	0.01911
1775.64675	0.01926
1774.36098	0.01942
1773.07521	0.01954
1771.78944	0.01960
1770.50367	0.01962
1769.21791	0.01962
1767.93214	0.01960
1766.64637	0.01956
1765.36060	0.01957
1764.07483	0.01964
1762.78906	0.01974
1761.50329	0.01982
1760.21752	0.01984
1758.93176	0.01983
1757.64599	0.01980
1756.36022	0.01982
1755.07445	0.01995
1753.78868	0.02022
1752.50291	0.02061
1751.21714	0.02097
1749.93137	0.02124
1748.64560	0.02141
1747.35984	0.02155
1746.07407	0.02172
1744.78830	0.02193
1743.50253	0.02217
1742.21676	0.02247
1740.93099	0.02283
1739.64522	0.02326
1738.35945	0.02376
1737.07369	0.02433
1735.78792	0.02486
1734.50215	0.02528
1733.21638	0.02557
1731.93061	0.02581
1730.64484	0.02608
1729.35907	0.02638
1728.07330	0.02669
1726.78753	0.02701
1725.50177	0.02739
1724.21600	0.02783
1722.93023	0.02829
1721.64446	0.02875
1720.35869	0.02929
1719.07292	0.02994
1717.78715	0.03066
1716.50138	0.03138
1715.21561	0.03208
1713.92985	0.03286
1712.64408	0.03384
1711.35831	0.03510
1710.07254	0.03663
1708.78677	0.03837
1707.50100	0.04027
1706.21523	0.04230
1704.92946	0.04447
1703.64370	0.04683
1702.35793	0.04940
1701.07216	0.05216
1699.78639	0.05502
1698.50062	0.05793
1697.21485	0.06092
1695.92908	0.06397
1694.64331	0.06703
1693.35754	0.07005
1692.07178	0.07300
1690.78601	0.07594
1689.50024	0.07892
1688.21447	0.08197
1686.92870	0.08516
1685.64293	0.08851
1684.35716	0.09196
1683.07139	0.09541
1681.78563	0.09885
1680.49986	0.10239
1679.21409	0.10612
1677.92832	0.11005
1676.64255	0.11413
1675.35678	0.11826
1674.07101	0.12241
1672.78524	0.12662
1671.49947	0.13095
1670.21371	0.13544
1668.92794	0.13999
1667.64217	0.14447
1666.35640	0.14881
1665.07063	0.15306
1663.78486	0.15725
1662.49909	0.16137
1661.21332	0.16537
1659.92756	0.16919
1658.64179	0.17278
1657.35602	0.17616
1656.07025	0.17942
1654.78448	0.18264
1653.49871	0.18581
1652.21294	0.18873
1650.92717	0.19126
1649.64140	0.19345
1648.35564	0.19549
1647.06987	0.19749
1645.78410	0.19945
1644.49833	0.20131
1643.21256	0.20307
1641.92679	0.20477
1640.64102	0.20644
1639.35525	0.20807
1638.06949	0.20967
1636.78372	0.21118
1635.49795	0.21252
1634.21218	0.21363
1632.92641	0.21445
1631.64064	0.21497
1630.35487	0.21514
1629.06910	0.21485
1627.78333	0.21405
1626.49757	0.21275
1625.21180	0.21100
1623.92603	0.20885
1622.64026	0.20629
1621.35449	0.20330
1620.06872	0.19991
1618.78295	0.19621
1617.49718	0.19228
1616.21142	0.18818
1614.92565	0.18398
1613.63988	0.17973
1612.35411	0.17546
1611.06834	0.17118
1609.78257	0.16687
1608.49680	0.16256
1607.21103	0.15833
1605.92526	0.15424
1604.63950	0.15033
1603.35373	0.14657
1602.06796	0.14298
1600.78219	0.13958
1599.49642	0.13640
1598.21065	0.13345
1596.92488	0.13072
1595.63911	0.12821
1594.35335	0.12591
1593.06758	0.12384
1591.78181	0.12202
1590.49604	0.12050
1589.21027	0.11928
1587.92450	0.11832
1586.63873	0.11760
1585.35296	0.11709
1584.06719	0.11680
1582.78143	0.11673
1581.49566	0.11687
1580.20989	0.11726
1578.92412	0.11798
1577.63835	0.11904
1576.35258	0.12040
1575.06681	0.12196
1573.78104	0.12364
1572.49528	0.12545
1571.20951	0.12740
1569.92374	0.12952
1568.63797	0.13184
1567.35220	0.13433
1566.06643	0.13697
1564.78066	0.13972
1563.49489	0.14251
1562.20912	0.14535
1560.92336	0.14826
1559.63759	0.15118
1558.35182	0.15398
1557.06605	0.15654
1555.78028	0.15885
1554.49451	0.16095
1553.20874	0.16291
1551.92297	0.16475
1550.63721	0.16646
1549.35144	0.16802
1548.06567	0.16938
1546.77990	0.17058
1545.49413	0.17165
1544.20836	0.17263
1542.92259	0.17351
1541.63682	0.17426
1540.35105	0.17487
1539.06529	0.17530
1537.77952	0.17552
1536.49375	0.17552
1535.20798	0.17537
1533.92221	0.17515
1532.63644	0.17484
1531.35067	0.17445
1530.06490	0.17399
1528.77914	0.17346
1527.49337	0.17287
1526.20760	0.17220
1524.92183	0.17144
1523.63606	0.17062
1522.35029	0.16973
1521.06452	0.16874
1519.77875	0.16762
1518.49298	0.16638
1517.20722	0.16502
1515.92145	0.16350
1514.63568	0.16172
1513.34991	0.15968
1512.06414	0.15742
1510.77837	0.15501
1509.49260	0.15249
1508.20683	0.14987
1506.92107	0.14710
1505.63530	0.14417
1504.34953	0.14107
1503.06376	0.13789
1501.77799	0.13471
1500.49222	0.13160
1499.20645	0.12855
1497.92068	0.12548
1496.63491	0.12238
1495.34915	0.11925
1494.06338	0.11618
1492.77761	0.11319
1491.49184	0.11033
1490.20607	0.10763
1488.92030	0.10514
1487.63453	0.10294
1486.34876	0.10105
1485.06299	0.09946
1483.77723	0.09816
1482.49146	0.09717
1481.20569	0.09652
1479.91992	0.09622
1478.63415	0.09626
1477.34838	0.09658
1476.06261	0.09717
1474.77684	0.09804
1473.49108	0.09917
1472.20531	0.10050
1470.91954	0.10191
1469.63377	0.10332
1468.34800	0.10470
1467.06223	0.10611
1465.77646	0.10760
1464.49069	0.10924
1463.20492	0.11102
1461.91916	0.11290
1460.63339	0.11483
1459.34762	0.11679
1458.06185	0.11873
1456.77608	0.12056
1455.49031	0.12218
1454.20454	0.12353
1452.91877	0.12460
1451.63301	0.12542
1450.34724	0.12598
1449.06147	0.12626
1447.77570	0.12623
1446.48993	0.12591
1445.20416	0.12535
1443.91839	0.12460
1442.63262	0.12371
1441.34685	0.12275
1440.06109	0.12176
1438.77532	0.12071
1437.48955	0.11953
1436.20378	0.11818
1434.91801	0.11666
1433.63224	0.11503
1432.34647	0.11337
1431.06070	0.11178
1429.77494	0.11037
1428.48917	0.10917
1427.20340	0.10818
1425.91763	0.10736
1424.63186	0.10673
1423.34609	0.10628
1422.06032	0.10602
1420.77455	0.10591
1419.48878	0.10589
1418.20302	0.10588
1416.91725	0.10586
1415.63148	0.10587
1414.34571	0.10597
1413.05994	0.10620
1411.77417	0.10655
1410.48840	0.10695
1409.20263	0.10736
1407.91687	0.10775
1406.63110	0.10811
1405.34533	0.10846
1404.05956	0.10880
1402.77379	0.10912
1401.48802	0.10939
1400.20225	0.10952
1398.91648	0.10949
1397.63071	0.10932
1396.34495	0.10909
1395.05918	0.10885
1393.77341	0.10860
1392.48764	0.10831
1391.20187	0.10802
1389.91610	0.10771
1388.63033	0.10739
1387.34456	0.10701
1386.05880	0.10657
1384.77303	0.10607
1383.48726	0.10557
1382.20149	0.10509
1380.91572	0.10463
1379.62995	0.10415
1378.34418	0.10363
1377.05841	0.10302
1375.77264	0.10233
1374.48688	0.10155
1373.20111	0.10069
1371.91534	0.09971
1370.62957	0.09861
1369.34380	0.09741
1368.05803	0.09616
1366.77226	0.09492
1365.48649	0.09372
1364.20073	0.09261
1362.91496	0.09163
1361.62919	0.09077
1360.34342	0.09003
1359.05765	0.08943
1357.77188	0.08901
1356.48611	0.08879
1355.20034	0.08879
1353.91457	0.08900
1352.62881	0.08938
1351.34304	0.08991
1350.05727	0.09057
1348.77150	0.09134
1347.48573	0.09220
1346.19996	0.09312
1344.91419	0.09409
1343.62842	0.09509
1342.34266	0.09607
1341.05689	0.09696
1339.77112	0.09770
1338.48535	0.09824
1337.19958	0.09856
1335.91381	0.09865
1334.62804	0.09848
1333.34227	0.09806
1332.05650	0.09744
1330.77074	0.09670
1329.48497	0.09593
1328.19920	0.09517
1326.91343	0.09441
1325.62766	0.09366
1324.34189	0.09296
1323.05612	0.09233
1321.77035	0.09182
1320.48459	0.09142
1319.19882	0.09108
1317.91305	0.09078
1316.62728	0.09050
1315.34151	0.09023
1314.05574	0.08993
1312.76997	0.08956
1311.48420	0.08912
1310.19843	0.08862
1308.91267	0.08807
1307.62690	0.08752
1306.34113	0.08701
1305.05536	0.08660
1303.76959	0.08629
1302.48382	0.08605
1301.19805	0.08582
1299.91228	0.08557
1298.62652	0.08531
1297.34075	0.08508
1296.05498	0.08491
1294.76921	0.08487
1293.48344	0.08501
1292.19767	0.08533
1290.91190	0.08578
1289.62613	0.08630
1288.34036	0.08688
1287.05460	0.08749
1285.76883	0.08816
1284.48306	0.08884
1283.19729	0.08948
1281.91152	0.09001
1280.62575	0.09039
1279.33998	0.09062
1278.05421	0.09076
1276.76845	0.09084
1275.48268	0.09091
1274.19691	0.09100
1272.91114	0.09112
1271.62537	0.09130
1270.33960	0.09154
1269.05383	0.09182
1267.76806	0.09216
1266.48229	0.09259
1265.19653	0.09310
1263.91076	0.09367
1262.62499	0.09428
1261.33922	0.09490
1260.05345	0.09557
1258.76768	0.09627
1257.48191	0.09700
1256.19614	0.09773
1254.91037	0.09852
1253.62461	0.09939
1252.33884	0.10034
1251.05307	0.10135
1249.76730	0.10241
1248.48153	0.10350
1247.19576	0.10461
1245.90999	0.10572
1244.62422	0.10684
1243.33846	0.10796
1242.05269	0.10905
1240.76692	0.11006
1239.48115	0.11088
1238.19538	0.11147
1236.90961	0.11184
1235.62384	0.11205
1234.33807	0.11211
1233.05230	0.11199
1231.76654	0.11167
1230.48077	0.11112
1229.19500	0.11031
1227.90923	0.10927
1226.62346	0.10804
1225.33769	0.10667
1224.05192	0.10523
1222.76615	0.10377
1221.48039	0.10232
1220.19462	0.10091
1218.90885	0.09952
1217.62308	0.09820
1216.33731	0.09701
1215.05154	0.09607
1213.76577	0.09544
1212.48000	0.09510
1211.19423	0.09499
1209.90847	0.09504
1208.62270	0.09523
1207.33693	0.09551
1206.05116	0.09582
1204.76539	0.09608
1203.47962	0.09621
1202.19385	0.09615
1200.90808	0.09588
1199.62232	0.09537
1198.33655	0.09456
1197.05078	0.09355
1195.76501	0.09241
1194.47924	0.09121
1193.19347	0.08999
1191.90770	0.08876
1190.62193	0.08754
1189.33616	0.08638
1188.05040	0.08529
1186.76463	0.08430
1185.47886	0.08341
1184.19309	0.08258
1182.90732	0.08183
1181.62155	0.08118
1180.33578	0.08066
1179.05001	0.08027
1177.76425	0.07994
1176.47848	0.07962
1175.19271	0.07928
1173.90694	0.07897
1172.62117	0.07873
1171.33540	0.07857
1170.04963	0.07849
1168.76386	0.07848
1167.47809	0.07850
1166.19233	0.07854
1164.90656	0.07859
1163.62079	0.07862
1162.33502	0.07861
1161.04925	0.07851
1159.76348	0.07829
1158.47771	0.07789
1157.19194	0.07730
1155.90618	0.07656
1154.62041	0.07576
1153.33464	0.07494
1152.04887	0.07410
1150.76310	0.07321
1149.47733	0.07225
1148.19156	0.07125
1146.90579	0.07029
1145.62002	0.06946
1144.33426	0.06880
1143.04849	0.06822
1141.76272	0.06763
1140.47695	0.06701
1139.19118	0.06637
1137.90541	0.06578
1136.61964	0.06529
1135.33387	0.06495
1134.04811	0.06473
1132.76234	0.06457
1131.47657	0.06439
1130.19080	0.06414
1128.90503	0.06385
1127.61926	0.06356
1126.33349	0.06333
1125.04772	0.06319
1123.76195	0.06313
1122.47619	0.06311
1121.19042	0.06309
1119.90465	0.06304
1118.61888	0.06298
1117.33311	0.06297
1116.04734	0.06305
1114.76157	0.06322
1113.47580	0.06342
1112.19004	0.06360
1110.90427	0.06373
1109.61850	0.06387
1108.33273	0.06405
1107.04696	0.06430
1105.76119	0.06463
1104.47542	0.06500
1103.18965	0.06539
1101.90388	0.06577
1100.61812	0.06612
1099.33235	0.06650
1098.04658	0.06694
1096.76081	0.06742
1095.47504	0.06794
1094.18927	0.06849
1092.90350	0.06912
1091.61773	0.06986
1090.33197	0.07074
1089.04620	0.07177
1087.76043	0.07292
1086.47466	0.07415
1085.18889	0.07538
1083.90312	0.07648
1082.61735	0.07728
1081.33158	0.07775
1080.04581	0.07793
1078.76005	0.07791
1077.47428	0.07771
1076.18851	0.07734
1074.90274	0.07686
1073.61697	0.07636
1072.33120	0.07595
1071.04543	0.07568
1069.75966	0.07552
1068.47390	0.07540
1067.18813	0.07529
1065.90236	0.07519
1064.61659	0.07509
1063.33082	0.07497
1062.04505	0.07479
1060.75928	0.07451
1059.47351	0.07416
1058.18774	0.07380
1056.90198	0.07346
1055.61621	0.07312
1054.33044	0.07275
1053.04467	0.07236
1051.75890	0.07196
1050.47313	0.07156
1049.18736	0.07117
1047.90159	0.07085
1046.61583	0.07064
1045.33006	0.07050
1044.04429	0.07037
1042.75852	0.07024
1041.47275	0.07018
1040.18698	0.07029
1038.90121	0.07061
1037.61544	0.07109
1036.32967	0.07162
1035.04391	0.07213
1033.75814	0.07257
1032.47237	0.07291
1031.18660	0.07307
1029.90083	0.07299
1028.61506	0.07265
1027.32929	0.07204
1026.04352	0.07125
1024.75775	0.07036
1023.47199	0.06948
1022.18622	0.06867
1020.90045	0.06793
1019.61468	0.06728
1018.32891	0.06672
1017.04314	0.06624
1015.75737	0.06579
1014.47160	0.06530
1013.18584	0.06471
1011.90007	0.06403
1010.61430	0.06331
1009.32853	0.06261
1008.04276	0.06197
1006.75699	0.06138
1005.47122	0.06078
1004.18545	0.06014
1002.89968	0.05946
1001.61392	0.05880
1000.32815	0.05816
999.04238	0.05754
997.75661	0.05694
996.47084	0.05641
995.18507	0.05596
993.89930	0.05556
992.61353	0.05515
991.32777	0.05469
990.04200	0.05421
988.75623	0.05379
987.47046	0.05344
986.18469	0.05316
984.89892	0.05289
983.61315	0.05262
982.32738	0.05241
981.04161	0.05233
979.75585	0.05243
978.47008	0.05264
977.18431	0.05288
975.89854	0.05304
974.61277	0.05309
973.32700	0.05300
972.04123	0.05278
970.75546	0.05244
969.46970	0.05201
968.18393	0.05154
966.89816	0.05105
965.61239	0.05054
964.32662	0.05004
963.04085	0.04960
961.75508	0.04929
960.46931	0.04908
959.18354	0.04889
957.89778	0.04868
956.61201	0.04845
955.32624	0.04825
954.04047	0.04805
952.75470	0.04784
951.46893	0.04762
950.18316	0.04745
948.89739	0.04737
947.61163	0.04734
946.32586	0.04730
945.04009	0.04722
943.75432	0.04716
942.46855	0.04714
941.18278	0.04718
939.89701	0.04725
938.61124	0.04732
937.32547	0.04736
936.03971	0.04735
934.75394	0.04728
933.46817	0.04716
932.18240	0.04701
930.89663	0.04683
929.61086	0.04665
928.32509	0.04656
927.03932	0.04661
925.75356	0.04675
924.46779	0.04684
923.18202	0.04678
921.89625	0.04658
920.61048	0.04632
919.32471	0.04607
918.03894	0.04587
916.75317	0.04566
915.46740	0.04542
914.18164	0.04512
912.89587	0.04479
911.61010	0.04450
910.32433	0.04429
909.03856	0.04420
907.75279	0.04421
906.46702	0.04425
905.18125	0.04425
903.89549	0.04418
902.60972	0.04407
901.32395	0.04394
900.03818	0.04381
898.75241	0.04367
897.46664	0.04352
896.18087	0.04333
894.89510	0.04315
893.60933	0.04301
892.32357	0.04294
891.03780	0.04292
889.75203	0.04292
888.46626	0.04290
887.18049	0.04286
885.89472	0.04282
884.60895	0.04279
883.32318	0.04278
882.03742	0.04273
880.75165	0.04264
879.46588	0.04260
878.18011	0.04270
876.89434	0.04295
875.60857	0.04322
874.32280	0.04337
873.03703	0.04333
871.75126	0.04314
870.46550	0.04291
869.17973	0.04273
867.89396	0.04263
866.60819	0.04261
865.32242	0.04265
864.03665	0.04268
862.75088	0.04270
861.46511	0.04268
860.17935	0.04265
858.89358	0.04264
857.60781	0.04264
856.32204	0.04266
855.03627	0.04268
853.75050	0.04270
852.46473	0.04270
851.17896	0.04270
849.89319	0.04269
848.60743	0.04265
847.32166	0.04255
846.03589	0.04238
844.75012	0.04220
843.46435	0.04207
842.17858	0.04199
840.89281	0.04195
839.60704	0.04191
838.32128	0.04188
837.03551	0.04189
835.74974	0.04194
834.46397	0.04201
833.17820	0.04209
831.89243	0.04221
830.60666	0.04234
829.32089	0.04247
828.03512	0.04256
826.74936	0.04266
825.46359	0.04282
824.17782	0.04305
822.89205	0.04331
821.60628	0.04358
820.32051	0.04386
819.03474	0.04414
817.74897	0.04443
816.46321	0.04468
815.17744	0.04490
813.89167	0.04506
812.60590	0.04518
811.32013	0.04529
810.03436	0.04546
808.74859	0.04567
807.46282	0.04593
806.17705	0.04618
804.89129	0.04639
803.60552	0.04651
802.31975	0.04657
801.03398	0.04661
799.74821	0.04667
798.46244	0.04678
797.17667	0.04692
795.89090	0.04709
794.60513	0.04728
793.31937	0.04751
792.03360	0.04779
790.74783	0.04805
789.46206	0.04821
788.17629	0.04827
786.89052	0.04829
785.60475	0.04834
784.31898	0.04842
783.03322	0.04851
781.74745	0.04859
780.46168	0.04870
779.17591	0.04885
777.89014	0.04908
776.60437	0.04935
775.31860	0.04963
774.03283	0.04993
772.74706	0.05031
771.46130	0.05070
770.17553	0.05101
768.88976	0.05119
767.60399	0.05131
766.31822	0.05147
765.03245	0.05171
763.74668	0.05199
762.46091	0.05223
761.17515	0.05239
759.88938	0.05247
758.60361	0.05253
757.31784	0.05270
756.03207	0.05302
754.74630	0.05342
753.46053	0.05374
752.17476	0.05392
750.88899	0.05399
749.60323	0.05406
748.31746	0.05421
747.03169	0.05444
745.74592	0.05473
744.46015	0.05504
743.17438	0.05532
741.88861	0.05552
740.60284	0.05564
739.31708	0.05581
738.03131	0.05614
736.74554	0.05666
735.45977	0.05721
734.17400	0.05767
732.88823	0.05799
731.60246	0.05826
730.31669	0.05851
729.03092	0.05873
727.74516	0.05888
726.45939	0.05896
725.17362	0.05907
723.88785	0.05911
722.60208	0.05960
721.31631	0.06026
720.03054	0.06082
718.74477	0.06129
717.45901	0.06172
716.17324	0.06206
714.88747	0.06226
713.60170	0.06227
712.31593	0.06217
711.03016	0.06210
709.74439	0.06219
708.45862	0.06245
707.17285	0.06285
705.88709	0.06329
704.60132	0.06369
703.31555	0.06402
702.02978	0.06427
700.74401	0.06448
699.45824	0.06470
698.17247	0.06495
696.88670	0.06519
695.60094	0.06541
694.31517	0.06556
693.02940	0.06566
691.74363	0.06573
690.45786	0.06582
689.17209	0.06595
687.88632	0.06608
686.60055	0.06618
685.31478	0.06621
684.02902	0.06620
682.74325	0.06621
681.45748	0.06630
680.17171	0.06650
678.88594	0.06679
677.60017	0.06710
676.31440	0.06736
675.02863	0.06752
673.74287	0.06762
672.45710	0.06773
671.17133	0.06793
669.88556	0.06822
668.59979	0.06852
667.31402	0.06875
666.02825	0.06890
664.74248	0.06901
663.45671	0.06914
662.17095	0.06927
660.88518	0.06944
659.59941	0.06965
658.31364	0.06990
657.02787	0.07015
655.74210	0.07034
654.45633	0.07046
653.17056	0.07051
651.88480	0.07056
650.59903	0.07062
649.31326	0.07069
648.02749	0.07076
646.74172	0.07080
645.45595	0.07085
644.17018	0.07092
642.88441	0.07103
641.59864	0.07111
640.31288	0.07112
639.02711	0.07104
637.74134	0.07093
636.45557	0.07087
635.16980	0.07091
633.88403	0.07102
632.59826	0.07111
631.31249	0.07104
630.02673	0.07066
628.74096	0.07003
627.45519	0.06984
626.16942	0.06906
624.88365	0.06788
623.59788	0.06666
622.31211	0.06558
621.02634	0.06502
619.74057	0.06560
618.45481	0.06752
617.16904	0.07012
615.88327	0.07242
614.59750	0.07363
613.31173	0.07322
612.02596	0.07111
610.74019	0.06821
609.45442	0.06623
608.16866	0.06610
606.88289	0.06701
605.59712	0.06775
604.31135	0.06811
603.02558	0.06862
601.73981	0.06955
600.45404	0.07063
599.16827	0.07155
597.88250	0.07219
596.59674	0.07257
595.31097	0.07274
594.02520	0.07275
592.73943	0.07271
591.45366	0.07271
590.16789	0.07276
588.88212	0.07285
587.59635	0.07288
586.31059	0.07279
585.02482	0.07260
583.73905	0.07244
582.45328	0.07243
581.16751	0.07259
579.88174	0.07280
578.59597	0.07297
577.31020	0.07307
576.02443	0.07314
574.73867	0.07319
573.45290	0.07318
572.16713	0.07309
570.88136	0.07301
569.59559	0.07303
568.30982	0.07320
567.02405	0.07345
565.73828	0.07363
564.45251	0.07369
563.16675	0.07371
561.88098	0.07379
560.59521	0.07394
559.30944	0.07408
558.02367	0.07411
556.73790	0.07408
555.45213	0.07408
554.16636	0.07416
552.88060	0.07432
551.59483	0.07450
550.30906	0.07466
549.02329	0.07473
547.73752	0.07469
546.45175	0.07457
545.16598	0.07441
543.88021	0.07428
542.59444	0.07422
541.30868	0.07420
540.02291	0.07420
538.73714	0.07416
537.45137	0.07411
536.16560	0.07411
534.87983	0.07419
533.59406	0.07431
532.30829	0.07436
531.02253	0.07429
529.73676	0.07413
528.45099	0.07401
527.16522	0.07398
525.87945	0.07399
524.59368	0.07392
523.30791	0.07369
522.02214	0.07336
520.73637	0.07305
519.45061	0.07283
518.16484	0.07264
516.87907	0.07248
515.59330	0.07235
514.30753	0.07226
513.02176	0.07216
511.73599	0.07200
510.45022	0.07183
509.16446	0.07172
507.87869	0.07168
506.59292	0.07171
505.30715	0.07176
504.02138	0.07174
502.73561	0.07153
501.44984	0.07109
500.16407	0.07052
498.87830	0.07000
497.59254	0.06964
496.30677	0.06941
495.02100	0.06923
493.73523	0.06906
492.44946	0.06885
491.16369	0.06855
489.87792	0.06814
488.59215	0.06767
487.30639	0.06725
486.02062	0.06698
484.73485	0.06688
483.44908	0.06694
482.16331	0.06705
480.87754	0.06710
479.59177	0.06704
478.30600	0.06688
477.02023	0.06668
475.73447	0.06646
474.44870	0.06623
473.16293	0.06594
471.87716	0.06554
470.59139	0.06506
469.30562	0.06459
468.01985	0.06428
466.73408	0.06419
465.44832	0.06418
464.16255	0.06407
462.87678	0.06376
461.59101	0.06335
460.30524	0.06299
459.01947	0.06278
457.73370	0.06269
456.44793	0.06262
455.16216	0.06244
453.87640	0.06211
452.59063	0.06170
451.30486	0.06134
450.01909	0.06107
448.73332	0.06081
447.44755	0.06051
446.16178	0.06018
444.87601	0.05990
443.59025	0.05965
442.30448	0.05939
441.01871	0.05907
439.73294	0.05872
438.44717	0.05836
437.16140	0.05804
435.87563	0.05775
434.58986	0.05751
433.30409	0.05735
432.01833	0.05724
430.73256	0.05712
429.44679	0.05692
428.16102	0.05663
426.87525	0.05628
425.58948	0.05595
424.30371	0.05566
423.01794	0.05541
421.73218	0.05517
420.44641	0.05490
419.16064	0.05465
417.87487	0.05444
416.58910	0.05427
415.30333	0.05408
414.01756	0.05384
412.73179	0.05357
411.44602	0.05334
410.16026	0.05317
408.87449	0.05302
407.58872	0.05285
406.30295	0.05261
405.01718	0.05234
403.73141	0.05210
402.44564	0.05195
401.15987	0.05188
399.87411	0.05185
