3996.16951	0.06284
3994.24086	0.06293
3992.31221	0.06259
3990.38355	0.06217
3988.45490	0.06185
3986.52625	0.06147
3984.59759	0.06112
3982.66894	0.06118
3980.74029	0.06163
3978.81163	0.06189
3976.88298	0.06157
3974.95433	0.06117
3973.02567	0.06122
3971.09702	0.06144
3969.16837	0.06140
3967.23972	0.06132
3965.31106	0.06144
3963.38241	0.06157
3961.45376	0.06146
3959.52510	0.06140
3957.59645	0.06162
3955.66780	0.06191
3953.73914	0.06190
3951.81049	0.06149
3949.88184	0.06088
3947.95318	0.06034
3946.02453	0.06021
3944.09588	0.06045
3942.16722	0.06081
3940.23857	0.06096
3938.30992	0.06044
3936.38126	0.05967
3934.45261	0.05940
3932.52396	0.05943
3930.59530	0.05928
3928.66665	0.05912
3926.73800	0.05912
3924.80934	0.05895
3922.88069	0.05862
3920.95204	0.05850
3919.02338	0.05861
3917.09473	0.05869
3915.16608	0.05869
3913.23742	0.05867
3911.30877	0.05869
3909.38012	0.05868
3907.45146	0.05860
3905.52281	0.05840
3903.59416	0.05829
3901.66550	0.05838
3899.73685	0.05827
3897.80820	0.05787
3895.87955	0.05753
3893.95089	0.05736
3892.02224	0.05704
3890.09359	0.05678
3888.16493	0.05691
3886.23628	0.05755
3884.30763	0.05853
3882.37897	0.05871
3880.45032	0.05819
3878.52167	0.05808
3876.59301	0.05815
3874.66436	0.05802
3872.73571	0.05783
3870.80705	0.05760
3868.87840	0.05788
3866.94975	0.05819
3865.02109	0.05789
3863.09244	0.05750
3861.16379	0.05703
3859.23513	0.05674
3857.30648	0.05685
3855.37783	0.05673
3853.44917	0.05668
3851.52052	0.05707
3849.59187	0.05706
3847.66321	0.05658
3845.73456	0.05582
3843.80591	0.05513
3841.87725	0.05513
3839.94860	0.05545
3838.01995	0.05548
3836.09129	0.05541
3834.16264	0.05515
3832.23399	0.05485
3830.30534	0.05491
3828.37668	0.05519
3826.44803	0.05516
3824.51938	0.05452
3822.59072	0.05391
3820.66207	0.05461
3818.73342	0.05560
3816.80476	0.05519
3814.87611	0.05467
3812.94746	0.05447
3811.01880	0.05408
3809.09015	0.05367
3807.16150	0.05341
3805.23284	0.05358
3803.30419	0.05326
3801.37554	0.05289
3799.44688	0.05340
3797.51823	0.05328
3795.58958	0.05235
3793.66092	0.05196
3791.73227	0.05260
3789.80362	0.05350
3787.87496	0.05386
3785.94631	0.05367
3784.01766	0.05304
3782.08900	0.05226
3780.16035	0.05191
3778.23170	0.05203
3776.30304	0.05190
3774.37439	0.05176
3772.44574	0.05214
3770.51708	0.05240
3768.58843	0.05233
3766.65978	0.05214
3764.73112	0.05191
3762.80247	0.05176
3760.87382	0.05168
3758.94517	0.05199
3757.01651	0.05252
3755.08786	0.05264
3753.15921	0.05220
3751.23055	0.05201
3749.30190	0.05199
3747.37325	0.05166
3745.44459	0.05070
3743.51594	0.05049
3741.58729	0.05079
3739.65863	0.05057
3737.72998	0.05053
3735.80133	0.05084
3733.87267	0.05076
3731.94402	0.04993
3730.01537	0.04926
3728.08671	0.04892
3726.15806	0.04887
3724.22941	0.04898
3722.30075	0.04892
3720.37210	0.04873
3718.44345	0.04879
3716.51479	0.04925
3714.58614	0.04913
3712.65749	0.04800
3710.72883	0.04733
3708.80018	0.04760
3706.87153	0.04807
3704.94287	0.04844
3703.01422	0.04859
3701.08557	0.04836
3699.15691	0.04793
3697.22826	0.04763
3695.29961	0.04776
3693.37095	0.04815
3691.44230	0.04817
3689.51365	0.04739
3687.58500	0.04673
3685.65634	0.04686
3683.72769	0.04728
3681.79904	0.04777
3679.87038	0.04802
3677.94173	0.04791
3676.01308	0.04745
3674.08442	0.04721
3672.15577	0.04706
3670.22712	0.04727
3668.29846	0.04777
3666.36981	0.04758
3664.44116	0.04735
3662.51250	0.04783
3660.58385	0.04852
3658.65520	0.04888
3656.72654	0.04913
3654.79789	0.04954
3652.86924	0.04958
3650.94058	0.04936
3649.01193	0.04962
3647.08328	0.05027
3645.15462	0.05100
3643.22597	0.05161
3641.29732	0.05197
3639.36866	0.05216
3637.44001	0.05221
3635.51136	0.05223
3633.58270	0.05240
3631.65405	0.05259
3629.72540	0.05271
3627.79674	0.05309
3625.86809	0.05297
3623.93944	0.05248
3622.01079	0.05285
3620.08213	0.05386
3618.15348	0.05488
3616.22483	0.05550
3614.29617	0.05585
3612.36752	0.05646
3610.43887	0.05701
3608.51021	0.05711
3606.58156	0.05710
3604.65291	0.05715
3602.72425	0.05738
3600.79560	0.05810
3598.86695	0.05920
3596.93829	0.05991
3595.00964	0.06003
3593.08099	0.06037
3591.15233	0.06104
3589.22368	0.06132
3587.29503	0.06149
3585.36637	0.06227
3583.43772	0.06319
3581.50907	0.06363
3579.58041	0.06382
3577.65176	0.06423
3575.72311	0.06489
3573.79445	0.06565
3571.86580	0.06645
3569.93715	0.06718
3568.00849	0.06789
3566.07984	0.06864
3564.15119	0.06906
3562.22253	0.06913
3560.29388	0.06928
3558.36523	0.06982
3556.43657	0.07064
3554.50792	0.07132
3552.57927	0.07187
3550.65062	0.07280
3548.72196	0.07395
3546.79331	0.07450
3544.86466	0.07430
3542.93600	0.07432
3541.00735	0.07504
3539.07870	0.07577
3537.15004	0.07617
3535.22139	0.07662
3533.29274	0.07730
3531.36408	0.07798
3529.43543	0.07843
3527.50678	0.07898
3525.57812	0.07996
3523.64947	0.08086
3521.72082	0.08124
3519.79216	0.08141
3517.86351	0.08191
3515.93486	0.08284
3514.00620	0.08370
3512.07755	0.08430
3510.14890	0.08495
3508.22024	0.08574
3506.29159	0.08650
3504.36294	0.08710
3502.43428	0.08735
3500.50563	0.08729
3498.57698	0.08732
3496.64832	0.08765
3494.71967	0.08824
3492.79102	0.08926
3490.86236	0.09059
3488.93371	0.09143
3487.00506	0.09143
3485.07641	0.09129
3483.14775	0.09148
3481.21910	0.09163
3479.29045	0.09166
3477.36179	0.09198
3475.43314	0.09271
3473.50449	0.09345
3471.57583	0.09377
3469.64718	0.09378
3467.71853	0.09385
3465.78987	0.09436
3463.86122	0.09525
3461.93257	0.09604
3460.00391	0.09647
3458.07526	0.09676
3456.14661	0.09712
3454.21795	0.09750
3452.28930	0.09790
3450.36065	0.09850
3448.43199	0.09922
3446.50334	0.09960
3444.57469	0.09953
3442.64603	0.09959
3440.71738	0.10001
3438.78873	0.10032
3436.86007	0.10052
3434.93142	0.10108
3433.00277	0.10215
3431.07411	0.10332
3429.14546	0.10407
3427.21681	0.10424
3425.28815	0.10433
3423.35950	0.10480
3421.43085	0.10535
3419.50219	0.10554
3417.57354	0.10569
3415.64489	0.10637
3413.71624	0.10722
3411.78758	0.10767
3409.85893	0.10795
3407.93028	0.10820
3406.00162	0.10826
3404.07297	0.10840
3402.14432	0.10889
3400.21566	0.10962
3398.28701	0.11027
3396.35836	0.11079
3394.42970	0.11117
3392.50105	0.11113
3390.57240	0.11085
3388.64374	0.11112
3386.71509	0.11193
3384.78644	0.11253
3382.85778	0.11281
3380.92913	0.11311
3379.00048	0.11350
3377.07182	0.11400
3375.14317	0.11472
3373.21452	0.11557
3371.28586	0.11644
3369.35721	0.11736
3367.42856	0.11806
3365.49990	0.11847
3363.57125	0.11912
3361.64260	0.11992
3359.71394	0.12035
3357.78529	0.12075
3355.85664	0.12182
3353.92798	0.12337
3351.99933	0.12479
3350.07068	0.12581
3348.14202	0.12659
3346.21337	0.12736
3344.28472	0.12817
3342.35607	0.12909
3340.42741	0.13005
3338.49876	0.13082
3336.57011	0.13154
3334.64145	0.13236
3332.71280	0.13314
3330.78415	0.13389
3328.85549	0.13471
3326.92684	0.13557
3324.99819	0.13636
3323.06953	0.13698
3321.14088	0.13748
3319.21223	0.13792
3317.28357	0.13814
3315.35492	0.13834
3313.42627	0.13889
3311.49761	0.13960
3309.56896	0.14001
3307.64031	0.14007
3305.71165	0.14008
3303.78300	0.14018
3301.85435	0.14034
3299.92569	0.14064
3297.99704	0.14094
3296.06839	0.14090
3294.13973	0.14058
3292.21108	0.14035
3290.28243	0.14039
3288.35377	0.14052
3286.42512	0.14050
3284.49647	0.14039
3282.56781	0.14046
3280.63916	0.14060
3278.71051	0.14021
3276.78186	0.13929
3274.85320	0.13845
3272.92455	0.13787
3270.99590	0.13737
3269.06724	0.13692
3267.13859	0.13660
3265.20994	0.13622
3263.28128	0.13565
3261.35263	0.13509
3259.42398	0.13465
3257.49532	0.13411
3255.56667	0.13346
3253.63802	0.13288
3251.70936	0.13220
3249.78071	0.13120
3247.85206	0.13021
3245.92340	0.12972
3243.99475	0.12964
3242.06610	0.12945
3240.13744	0.12898
3238.20879	0.12854
3236.28014	0.12827
3234.35148	0.12784
3232.42283	0.12709
3230.49418	0.12636
3228.56552	0.12600
3226.63687	0.12588
3224.70822	0.12559
3222.77956	0.12522
3220.85091	0.12491
3218.92226	0.12455
3216.99360	0.12415
3215.06495	0.12381
3213.13630	0.12358
3211.20764	0.12332
3209.27899	0.12285
3207.35034	0.12224
3205.42169	0.12172
3203.49303	0.12141
3201.56438	0.12113
3199.63573	0.12060
3197.70707	0.11990
3195.77842	0.11915
3193.84977	0.11822
3191.92111	0.11732
3189.99246	0.11687
3188.06381	0.11682
3186.13515	0.11661
3184.20650	0.11592
3182.27785	0.11496
3180.34919	0.11419
3178.42054	0.11355
3176.49189	0.11257
3174.56323	0.11148
3172.63458	0.11078
3170.70593	0.11028
3168.77727	0.10977
3166.84862	0.10918
3164.91997	0.10842
3162.99131	0.10763
3161.06266	0.10710
3159.13401	0.10676
3157.20535	0.10614
3155.27670	0.10503
3153.34805	0.10394
3151.41939	0.10321
3149.49074	0.10245
3147.56209	0.10151
3145.63343	0.10084
3143.70478	0.10040
3141.77613	0.09979
3139.84748	0.09914
3137.91882	0.09866
3135.99017	0.09820
3134.06152	0.09772
3132.13286	0.09743
3130.20421	0.09733
3128.27556	0.09712
3126.34690	0.09656
3124.41825	0.09582
3122.48960	0.09509
3120.56094	0.09464
3118.63229	0.09467
3116.70364	0.09484
3114.77498	0.09470
3112.84633	0.09445
3110.91768	0.09455
3108.98902	0.09484
3107.06037	0.09510
3105.13172	0.09541
3103.20306	0.09557
3101.27441	0.09538
3099.34576	0.09521
3097.41710	0.09535
3095.48845	0.09556
3093.55980	0.09572
3091.63114	0.09604
3089.70249	0.09657
3087.77384	0.09699
3085.84518	0.09708
3083.91653	0.09704
3081.98788	0.09710
3080.05922	0.09725
3078.13057	0.09744
3076.20192	0.09757
3074.27326	0.09748
3072.34461	0.09730
3070.41596	0.09719
3068.48731	0.09695
3066.55865	0.09648
3064.63000	0.09596
3062.70135	0.09550
3060.77269	0.09515
3058.84404	0.09491
3056.91539	0.09472
3054.98673	0.09438
3053.05808	0.09380
3051.12943	0.09314
3049.20077	0.09260
3047.27212	0.09207
3045.34347	0.09137
3043.41481	0.09067
3041.48616	0.09017
3039.55751	0.08969
3037.62885	0.08901
3035.70020	0.08825
3033.77155	0.08752
3031.84289	0.08686
3029.91424	0.08640
3027.98559	0.08607
3026.05693	0.08557
3024.12828	0.08496
3022.19963	0.08442
3020.27097	0.08393
3018.34232	0.08338
3016.41367	0.08283
3014.48501	0.08243
3012.55636	0.08221
3010.62771	0.08211
3008.69905	0.08204
3006.77040	0.08191
3004.84175	0.08180
3002.91309	0.08182
3000.98444	0.08184
2999.05579	0.08166
2997.12714	0.08139
2995.19848	0.08145
2993.26983	0.08181
2991.34118	0.08215
2989.41252	0.08247
2987.48387	0.08282
2985.55522	0.08319
2983.62656	0.08373
2981.69791	0.08452
2979.76926	0.08529
2977.84060	0.08571
2975.91195	0.08590
2973.98330	0.08615
2972.05464	0.08643
2970.12599	0.08660
2968.19734	0.08680
2966.26868	0.08718
2964.34003	0.08762
2962.41138	0.08803
2960.48272	0.08843
2958.55407	0.08884
2956.62542	0.08909
2954.69676	0.08900
2952.76811	0.08867
2950.83946	0.08847
2948.91080	0.08859
2946.98215	0.08885
2945.05350	0.08901
2943.12484	0.08909
2941.19619	0.08942
2939.26754	0.08997
2937.33888	0.09026
2935.41023	0.09014
2933.48158	0.08992
2931.55293	0.08980
2929.62427	0.08969
2927.69562	0.08958
2925.76697	0.08943
2923.83831	0.08915
2921.90966	0.08869
2919.98101	0.08808
2918.05235	0.08743
2916.12370	0.08675
2914.19505	0.08587
2912.26639	0.08489
2910.33774	0.08394
2908.40909	0.08301
2906.48043	0.08228
2904.55178	0.08172
2902.62313	0.08108
2900.69447	0.08047
2898.76582	0.08004
2896.83717	0.07966
2894.90851	0.07927
2892.97986	0.07896
2891.05121	0.07875
2889.12255	0.07874
2887.19390	0.07893
2885.26525	0.07909
2883.33659	0.07898
2881.40794	0.07873
2879.47929	0.07865
2877.55063	0.07866
2875.62198	0.07850
2873.69333	0.07825
2871.76467	0.07798
2869.83602	0.07761
2867.90737	0.07705
2865.97871	0.07636
2864.05006	0.07575
2862.12141	0.07530
2860.19276	0.07492
2858.26410	0.07453
2856.33545	0.07420
2854.40680	0.07407
2852.47814	0.07396
2850.54949	0.07355
2848.62084	0.07283
2846.69218	0.07212
2844.76353	0.07157
2842.83488	0.07100
2840.90622	0.07036
2838.97757	0.06981
2837.04892	0.06934
2835.12026	0.06896
2833.19161	0.06870
2831.26296	0.06850
2829.33430	0.06825
2827.40565	0.06783
2825.47700	0.06730
2823.54834	0.06687
2821.61969	0.06665
2819.69104	0.06655
2817.76238	0.06640
2815.83373	0.06610
2813.90508	0.06575
2811.97642	0.06553
2810.04777	0.06548
2808.11912	0.06536
2806.19046	0.06509
2804.26181	0.06492
2802.33316	0.06490
2800.40450	0.06488
2798.47585	0.06474
2796.54720	0.06439
2794.61855	0.06386
2792.68989	0.06337
2790.76124	0.06301
2788.83259	0.06282
2786.90393	0.06280
2784.97528	0.06261
2783.04663	0.06219
2781.11797	0.06189
2779.18932	0.06186
2777.26067	0.06191
2775.33201	0.06183
2773.40336	0.06149
2771.47471	0.06104
2769.54605	0.06070
2767.61740	0.06053
2765.68875	0.06042
2763.76009	0.06032
2761.83144	0.06024
2759.90279	0.06016
2757.97413	0.05996
2756.04548	0.05959
2754.11683	0.05920
2752.18817	0.05901
2750.25952	0.05898
2748.33087	0.05892
2746.40221	0.05890
2744.47356	0.05885
2742.54491	0.05863
2740.61625	0.05829
2738.68760	0.05801
2736.75895	0.05789
2734.83029	0.05784
2732.90164	0.05773
2730.97299	0.05750
2729.04433	0.05715
2727.11568	0.05689
2725.18703	0.05686
2723.25838	0.05689
2721.32972	0.05689
2719.40107	0.05676
2717.47242	0.05638
2715.54376	0.05591
2713.61511	0.05565
2711.68646	0.05555
2709.75780	0.05549
2707.82915	0.05549
2705.90050	0.05544
2703.97184	0.05516
2702.04319	0.05481
2700.11454	0.05472
2698.18588	0.05480
2696.25723	0.05476
2694.32858	0.05445
2692.39992	0.05405
2690.47127	0.05383
2688.54262	0.05374
2686.61396	0.05369
2684.68531	0.05362
2682.75666	0.05349
2680.82800	0.05342
2678.89935	0.05345
2676.97070	0.05336
2675.04204	0.05317
2673.11339	0.05307
2671.18474	0.05303
2669.25608	0.05289
2667.32743	0.05273
2665.39878	0.05266
2663.47012	0.05265
2661.54147	0.05250
2659.61282	0.05207
2657.68417	0.05153
2655.75551	0.05105
2653.82686	0.05070
2651.89821	0.05050
2649.96955	0.05023
2648.04090	0.04992
2646.11225	0.04978
2644.18359	0.04955
2642.25494	0.04908
2640.32629	0.04878
2638.39763	0.04872
2636.46898	0.04849
2634.54033	0.04807
2632.61167	0.04770
2630.68302	0.04757
2628.75437	0.04759
2626.82571	0.04752
2624.89706	0.04735
2622.96841	0.04711
2621.03975	0.04667
2619.11110	0.04609
2617.18245	0.04569
2615.25379	0.04561
2613.32514	0.04568
2611.39649	0.04554
2609.46783	0.04494
2607.53918	0.04414
2605.61053	0.04358
2603.68187	0.04345
2601.75322	0.04373
2599.82457	0.04412
2597.89591	0.04408
2595.96726	0.04366
2594.03861	0.04338
2592.10995	0.04337
2590.18130	0.04331
2588.25265	0.04302
2586.32400	0.04274
2584.39534	0.04267
2582.46669	0.04259
2580.53804	0.04238
2578.60938	0.04213
2576.68073	0.04201
2574.75208	0.04203
2572.82342	0.04195
2570.89477	0.04162
2568.96612	0.04111
2567.03746	0.04073
2565.10881	0.04063
2563.18016	0.04067
2561.25150	0.04063
2559.32285	0.04048
2557.39420	0.04053
2555.46554	0.04089
2553.53689	0.04107
2551.60824	0.04054
2549.67958	0.03975
2547.75093	0.03948
2545.82228	0.03984
2543.89362	0.04032
2541.96497	0.04042
2540.03632	0.04019
2538.10766	0.04005
2536.17901	0.03996
2534.25036	0.03968
2532.32170	0.03926
2530.39305	0.03888
2528.46440	0.03869
2526.53574	0.03839
2524.60709	0.03774
2522.67844	0.03732
2520.74978	0.03747
2518.82113	0.03773
2516.89248	0.03790
2514.96383	0.03801
2513.03517	0.03805
2511.10652	0.03813
2509.17787	0.03826
2507.24921	0.03816
2505.32056	0.03785
2503.39191	0.03783
2501.46325	0.03796
2499.53460	0.03774
2497.60595	0.03738
2495.67729	0.03723
2493.74864	0.03724
2491.81999	0.03715
2489.89133	0.03675
2487.96268	0.03642
2486.03403	0.03653
2484.10537	0.03675
2482.17672	0.03679
2480.24807	0.03671
2478.31941	0.03657
2476.39076	0.03644
2474.46211	0.03622
2472.53345	0.03591
2470.60480	0.03586
2468.67615	0.03609
2466.74749	0.03617
2464.81884	0.03617
2462.89019	0.03636
2460.96153	0.03641
2459.03288	0.03605
2457.10423	0.03566
2455.17557	0.03544
2453.24692	0.03509
2451.31827	0.03466
2449.38962	0.03454
2447.46096	0.03462
2445.53231	0.03459
2443.60366	0.03472
2441.67500	0.03514
2439.74635	0.03558
2437.81770	0.03569
2435.88904	0.03538
2433.96039	0.03496
2432.03174	0.03484
2430.10308	0.03496
2428.17443	0.03494
2426.24578	0.03464
2424.31712	0.03449
2422.38847	0.03464
2420.45982	0.03469
2418.53116	0.03476
2416.60251	0.03501
2414.67386	0.03499
2412.74520	0.03476
2410.81655	0.03484
2408.88790	0.03521
2406.95924	0.03538
2405.03059	0.03506
2403.10194	0.03462
2401.17328	0.03459
2399.24463	0.03468
2397.31598	0.03459
2395.38732	0.03464
2393.45867	0.03506
2391.53002	0.03543
2389.60136	0.03551
2387.67271	0.03546
2385.74406	0.03542
2383.81540	0.03540
2381.88675	0.03537
2379.95810	0.03531
2378.02945	0.03528
2376.10079	0.03536
2374.17214	0.03539
2372.24349	0.03533
2370.31483	0.03537
2368.38618	0.03550
2366.45753	0.03547
2364.52887	0.03531
2362.60022	0.03523
2360.67157	0.03541
2358.74291	0.03550
2356.81426	0.03576
2354.88561	0.03573
2352.95695	0.03556
2351.02830	0.03549
2349.09965	0.03548
2347.17099	0.03562
2345.24234	0.03583
2343.31369	0.03579
2341.38503	0.03553
2339.45638	0.03541
2337.52773	0.03535
2335.59907	0.03544
2333.67042	0.03559
2331.74177	0.03551
2329.81311	0.03518
2327.88446	0.03480
2325.95581	0.03443
2324.02715	0.03411
2322.09850	0.03394
2320.16985	0.03385
2318.24119	0.03366
2316.31254	0.03321
2314.38389	0.03273
2312.45524	0.03251
2310.52658	0.03242
2308.59793	0.03223
2306.66928	0.03202
2304.74062	0.03182
2302.81197	0.03160
2300.88332	0.03134
2298.95466	0.03097
2297.02601	0.03050
2295.09736	0.03013
2293.16870	0.02993
2291.24005	0.02971
2289.31140	0.02930
2287.38274	0.02882
2285.45409	0.02855
2283.52544	0.02850
2281.59678	0.02840
2279.66813	0.02809
2277.73948	0.02771
2275.81082	0.02758
2273.88217	0.02775
2271.95352	0.02793
2270.02486	0.02779
2268.09621	0.02731
2266.16756	0.02677
2264.23890	0.02661
2262.31025	0.02678
2260.38160	0.02673
2258.45294	0.02632
2256.52429	0.02598
2254.59564	0.02571
2252.66698	0.02505
2250.73833	0.02426
2248.80968	0.02405
2246.88102	0.02451
2244.95237	0.02487
2243.02372	0.02471
2241.09507	0.02430
2239.16641	0.02387
2237.23776	0.02325
2235.30911	0.02279
2233.38045	0.02335
2231.45180	0.02433
2229.52315	0.02442
2227.59449	0.02383
2225.66584	0.02334
2223.73719	0.02311
2221.80853	0.02286
2219.87988	0.02228
2217.95123	0.02176
2216.02257	0.02140
2214.09392	0.02076
2212.16527	0.02024
2210.23661	0.02014
2208.30796	0.02017
2206.37931	0.02007
2204.45065	0.01946
2202.52200	0.01877
2200.59335	0.01892
2198.66469	0.01937
2196.73604	0.01928
2194.80739	0.01900
2192.87873	0.01872
2190.95008	0.01825
2189.02143	0.01757
2187.09277	0.01711
2185.16412	0.01714
2183.23547	0.01711
2181.30681	0.01706
2179.37816	0.01740
2177.44951	0.01752
2175.52085	0.01661
2173.59220	0.01508
2171.66355	0.01414
2169.73490	0.01390
2167.80624	0.01373
2165.87759	0.01360
2163.94894	0.01348
2162.02028	0.01293
2160.09163	0.01200
2158.16298	0.01209
2156.23432	0.01388
2154.30567	0.01550
2152.37702	0.01583
2150.44836	0.01629
2148.51971	0.01751
2146.59106	0.01812
2144.66240	0.01802
2142.73375	0.01854
2140.80510	0.01989
2138.87644	0.02115
2136.94779	0.02140
2135.01914	0.02065
2133.09048	0.02009
2131.16183	0.02070
2129.23318	0.02199
2127.30452	0.02275
2125.37587	0.02285
2123.44722	0.02291
2121.51856	0.02285
2119.58991	0.02267
2117.66126	0.02264
2115.73260	0.02249
2113.80395	0.02228
2111.87530	0.02241
2109.94664	0.02251
2108.01799	0.02220
2106.08934	0.02182
2104.16069	0.02164
2102.23203	0.02134
2100.30338	0.02078
2098.37473	0.02042
2096.44607	0.02066
2094.51742	0.02123
2092.58877	0.02142
2090.66011	0.02110
2088.73146	0.02072
2086.80281	0.02038
2084.87415	0.02026
2082.94550	0.02043
2081.01685	0.02020
2079.08819	0.01903
2077.15954	0.01786
2075.23089	0.01794
2073.30223	0.01902
2071.37358	0.01965
2069.44493	0.01899
2067.51627	0.01780
2065.58762	0.01713
2063.65897	0.01710
2061.73031	0.01749
2059.80166	0.01787
2057.87301	0.01776
2055.94435	0.01752
2054.01570	0.01759
2052.08705	0.01757
2050.15839	0.01723
2048.22974	0.01681
2046.30109	0.01651
2044.37243	0.01619
2042.44378	0.01542
2040.51513	0.01416
2038.58647	0.01301
2036.65782	0.01277
2034.72917	0.01353
2032.80052	0.01415
2030.87186	0.01382
2028.94321	0.01312
2027.01456	0.01271
2025.08590	0.01249
2023.15725	0.01215
2021.22860	0.01198
2019.29994	0.01244
2017.37129	0.01334
2015.44264	0.01420
2013.51398	0.01506
2011.58533	0.01570
2009.65668	0.01512
2007.72802	0.01340
2005.79937	0.01207
2003.87072	0.01212
2001.94206	0.01324
2000.01341	0.01434
1998.08476	0.01454
1996.15610	0.01407
1994.22745	0.01400
1992.29880	0.01487
1990.37014	0.01573
1988.44149	0.01557
1986.51284	0.01487
1984.58418	0.01442
1982.65553	0.01397
1980.72688	0.01283
1978.79822	0.01140
1976.86957	0.01101
1974.94092	0.01161
1973.01226	0.01205
1971.08361	0.01217
1969.15496	0.01235
1967.22631	0.01273
1965.29765	0.01339
1963.36900	0.01429
1961.44035	0.01521
1959.51169	0.01571
1957.58304	0.01563
1955.65439	0.01553
1953.72573	0.01542
1951.79708	0.01521
1949.86843	0.01536
1947.93977	0.01574
1946.01112	0.01590
1944.08247	0.01598
1942.15381	0.01626
1940.22516	0.01667
1938.29651	0.01686
1936.36785	0.01665
1934.43920	0.01640
1932.51055	0.01642
1930.58189	0.01649
1928.65324	0.01636
1926.72459	0.01622
1924.79593	0.01649
1922.86728	0.01720
1920.93863	0.01783
1919.00997	0.01796
1917.08132	0.01795
1915.15267	0.01806
1913.22401	0.01816
1911.29536	0.01814
1909.36671	0.01800
1907.43805	0.01802
1905.50940	0.01822
1903.58075	0.01822
1901.65209	0.01798
1899.72344	0.01775
1897.79479	0.01762
1895.86614	0.01766
1893.93748	0.01787
1892.00883	0.01812
1890.08018	0.01829
1888.15152	0.01830
1886.22287	0.01807
1884.29422	0.01781
1882.36556	0.01771
1880.43691	0.01778
1878.50826	0.01791
1876.57960	0.01793
1874.65095	0.01782
1872.72230	0.01777
1870.79364	0.01764
1868.86499	0.01743
1866.93634	0.01753
1865.00768	0.01793
1863.07903	0.01821
1861.15038	0.01825
1859.22172	0.01824
1857.29307	0.01831
1855.36442	0.01840
1853.43576	0.01822
1851.50711	0.01769
1849.57846	0.01718
1847.64980	0.01708
1845.72115	0.01718
1843.79250	0.01739
1841.86384	0.01774
1839.93519	0.01790
1838.00654	0.01782
1836.07788	0.01770
1834.14923	0.01758
1832.22058	0.01748
1830.29192	0.01751
1828.36327	0.01770
1826.43462	0.01772
1824.50597	0.01755
1822.57731	0.01743
1820.64866	0.01744
1818.72001	0.01759
1816.79135	0.01772
1814.86270	0.01770
1812.93405	0.01754
1811.00539	0.01737
1809.07674	0.01718
1807.14809	0.01700
1805.21943	0.01703
1803.29078	0.01719
1801.36213	0.01726
1799.43347	0.01714
1797.50482	0.01697
1795.57617	0.01698
1793.64751	0.01704
1791.71886	0.01705
1789.79021	0.01711
1787.86155	0.01709
1785.93290	0.01697
1784.00425	0.01694
1782.07559	0.01700
1780.14694	0.01699
1778.21829	0.01692
1776.28963	0.01685
1774.36098	0.01682
1772.43233	0.01683
1770.50367	0.01699
1768.57502	0.01703
1766.64637	0.01700
1764.71771	0.01700
1762.78906	0.01695
1760.86041	0.01693
1758.93176	0.01696
1757.00310	0.01707
1755.07445	0.01734
1753.14580	0.01746
1751.21714	0.01747
1749.28849	0.01772
1747.35984	0.01808
1745.43118	0.01842
1743.50253	0.01878
1741.57388	0.01921
1739.64522	0.01963
1737.71657	0.02007
1735.78792	0.02035
1733.85926	0.02070
1731.93061	0.02127
1730.00196	0.02164
1728.07330	0.02197
1726.14465	0.02247
1724.21600	0.02299
1722.28734	0.02346
1720.35869	0.02383
1718.43004	0.02423
1716.50138	0.02506
1714.57273	0.02610
1712.64408	0.02703
1710.71542	0.02807
1708.78677	0.02948
1706.85812	0.03131
1704.92946	0.03361
1703.00081	0.03628
1701.07216	0.03912
1699.14350	0.04256
1697.21485	0.04610
1695.28620	0.04952
1693.35754	0.05323
1691.42889	0.05678
1689.50024	0.06033
1687.57159	0.06402
1685.64293	0.06773
1683.71428	0.07192
1681.78563	0.07661
1679.85697	0.08146
1677.92832	0.08667
1675.99967	0.09205
1674.07101	0.09762
1672.14236	0.10338
1670.21371	0.10923
1668.28505	0.11520
1666.35640	0.12103
1664.42775	0.12661
1662.49909	0.13209
1660.57044	0.13729
1658.64179	0.14188
1656.71313	0.14585
1654.78448	0.14905
1652.85583	0.15185
1650.92717	0.15460
1648.99852	0.15665
1647.06987	0.15820
1645.14121	0.15985
1643.21256	0.16144
1641.28391	0.16279
1639.35525	0.16397
1637.42660	0.16485
1635.49795	0.16548
1633.56929	0.16590
1631.64064	0.16557
1629.71199	0.16419
1627.78333	0.16177
1625.85468	0.15823
1623.92603	0.15357
1621.99738	0.14824
1620.06872	0.14257
1618.14007	0.13655
1616.21142	0.13057
1614.28276	0.12487
1612.35411	0.11918
1610.42546	0.11365
1608.49680	0.10844
1606.56815	0.10353
1604.63950	0.09900
1602.71084	0.09496
1600.78219	0.09145
1598.85354	0.08839
1596.92488	0.08569
1594.99623	0.08340
1593.06758	0.08155
1591.13892	0.08018
1589.21027	0.07924
1587.28162	0.07869
1585.35296	0.07849
1583.42431	0.07867
1581.49566	0.07930
1579.56700	0.08039
1577.63835	0.08172
1575.70970	0.08350
1573.78104	0.08600
1571.85239	0.08877
1569.92374	0.09181
1567.99508	0.09523
1566.06643	0.09880
1564.13778	0.10251
1562.20912	0.10621
1560.28047	0.10964
1558.35182	0.11316
1556.42316	0.11656
1554.49451	0.11921
1552.56586	0.12134
1550.63721	0.12313
1548.70855	0.12466
1546.77990	0.12585
1544.85125	0.12659
1542.92259	0.12692
1540.99394	0.12679
1539.06529	0.12648
1537.13663	0.12609
1535.20798	0.12522
1533.27933	0.12404
1531.35067	0.12288
1529.42202	0.12156
1527.49337	0.12003
1525.56471	0.11837
1523.63606	0.11656
1521.70741	0.11461
1519.77875	0.11276
1517.85010	0.11071
1515.92145	0.10836
1513.99279	0.10579
1512.06414	0.10291
1510.13549	0.09980
1508.20683	0.09636
1506.27818	0.09281
1504.34953	0.08950
1502.42087	0.08610
1500.49222	0.08266
1498.56357	0.07942
1496.63491	0.07633
1494.70626	0.07340
1492.77761	0.07059
1490.84895	0.06801
1488.92030	0.06587
1486.99165	0.06418
1485.06299	0.06294
1483.13434	0.06216
1481.20569	0.06183
1479.27704	0.06199
1477.34838	0.06261
1475.41973	0.06363
1473.49108	0.06498
1471.56242	0.06667
1469.63377	0.06858
1467.70512	0.07050
1465.77646	0.07244
1463.84781	0.07453
1461.91916	0.07671
1459.99050	0.07878
1458.06185	0.08063
1456.13320	0.08240
1454.20454	0.08391
1452.27589	0.08473
1450.34724	0.08491
1448.41858	0.08451
1446.48993	0.08378
1444.56128	0.08289
1442.63262	0.08183
1440.70397	0.08068
1438.77532	0.07928
1436.84666	0.07754
1434.91801	0.07574
1432.98936	0.07393
1431.06070	0.07227
1429.13205	0.07103
1427.20340	0.07020
1425.27474	0.06963
1423.34609	0.06930
1421.41744	0.06909
1419.48878	0.06888
1417.56013	0.06882
1415.63148	0.06891
1413.70283	0.06912
1411.77417	0.06946
1409.84552	0.06993
1407.91687	0.07054
1405.98821	0.07116
1404.05956	0.07163
1402.13091	0.07179
1400.20225	0.07161
1398.27360	0.07132
1396.34495	0.07104
1394.41629	0.07071
1392.48764	0.07042
1390.55899	0.07010
1388.63033	0.06967
1386.70168	0.06920
1384.77303	0.06881
1382.84437	0.06842
1380.91572	0.06796
1378.98707	0.06738
1377.05841	0.06670
1375.12976	0.06591
1373.20111	0.06500
1371.27245	0.06397
1369.34380	0.06284
1367.41515	0.06172
1365.48649	0.06062
1363.55784	0.05959
1361.62919	0.05872
1359.70053	0.05804
1357.77188	0.05763
1355.84323	0.05767
1353.91457	0.05811
1351.98592	0.05873
1350.05727	0.05945
1348.12861	0.06035
1346.19996	0.06144
1344.27131	0.06259
1342.34266	0.06366
1340.41400	0.06450
1338.48535	0.06505
1336.55670	0.06525
1334.62804	0.06504
1332.69939	0.06442
1330.77074	0.06346
1328.84208	0.06238
1326.91343	0.06143
1324.98478	0.06069
1323.05612	0.06018
1321.12747	0.05980
1319.19882	0.05950
1317.27016	0.05926
1315.34151	0.05900
1313.41286	0.05860
1311.48420	0.05810
1309.55555	0.05762
1307.62690	0.05719
1305.69824	0.05681
1303.76959	0.05650
1301.84094	0.05620
1299.91228	0.05590
1297.98363	0.05571
1296.05498	0.05576
1294.12632	0.05609
1292.19767	0.05662
1290.26902	0.05727
1288.34036	0.05803
1286.41171	0.05887
1284.48306	0.05964
1282.55440	0.06027
1280.62575	0.06068
1278.69710	0.06088
1276.76845	0.06096
1274.83979	0.06098
1272.91114	0.06099
1270.98249	0.06109
1269.05383	0.06132
1267.12518	0.06168
1265.19653	0.06221
1263.26787	0.06287
1261.33922	0.06363
1259.41057	0.06452
1257.48191	0.06547
1255.55326	0.06648
1253.62461	0.06763
1251.69595	0.06885
1249.76730	0.07013
1247.83865	0.07148
1245.90999	0.07284
1243.98134	0.07412
1242.05269	0.07529
1240.12403	0.07629
1238.19538	0.07695
1236.26673	0.07724
1234.33807	0.07719
1232.40942	0.07670
1230.48077	0.07570
1228.55211	0.07433
1226.62346	0.07268
1224.69481	0.07080
1222.76615	0.06885
1220.83750	0.06701
1218.90885	0.06541
1216.98019	0.06411
1215.05154	0.06325
1213.12289	0.06288
1211.19423	0.06293
1209.26558	0.06326
1207.33693	0.06370
1205.40828	0.06403
1203.47962	0.06406
1201.55097	0.06375
1199.62232	0.06305
1197.69366	0.06189
1195.76501	0.06048
1193.83636	0.05903
1191.90770	0.05767
1189.97905	0.05644
1188.05040	0.05538
1186.12174	0.05446
1184.19309	0.05361
1182.26444	0.05290
1180.33578	0.05244
1178.40713	0.05212
1176.47848	0.05189
1174.54982	0.05175
1172.62117	0.05164
1170.69252	0.05156
1168.76386	0.05153
1166.83521	0.05153
1164.90656	0.05158
1162.97790	0.05167
1161.04925	0.05152
1159.12060	0.05097
1157.19194	0.05017
1155.26329	0.04933
1153.33464	0.04845
1151.40598	0.04751
1149.47733	0.04655
1147.54868	0.04572
1145.62002	0.04506
1143.69137	0.04446
1141.76272	0.04384
1139.83406	0.04323
1137.90541	0.04268
1135.97676	0.04232
1134.04811	0.04219
1132.11945	0.04222
1130.19080	0.04229
1128.26215	0.04233
1126.33349	0.04229
1124.40484	0.04219
1122.47619	0.04206
1120.54753	0.04192
1118.61888	0.04183
1116.69023	0.04184
1114.76157	0.04188
1112.83292	0.04191
1110.90427	0.04213
1108.97561	0.04260
1107.04696	0.04310
1105.11831	0.04342
1103.18965	0.04369
1101.26100	0.04408
1099.33235	0.04461
1097.40369	0.04518
1095.47504	0.04573
1093.54639	0.04632
1091.61773	0.04714
1089.68908	0.04821
1087.76043	0.04942
1085.83177	0.05062
1083.90312	0.05167
1081.97447	0.05241
1080.04581	0.05275
1078.11716	0.05269
1076.18851	0.05231
1074.25985	0.05176
1072.33120	0.05121
1070.40255	0.05084
1068.47390	0.05074
1066.54524	0.05083
1064.61659	0.05089
1062.68794	0.05082
1060.75928	0.05060
1058.83063	0.05030
1056.90198	0.04993
1054.97332	0.04943
1053.04467	0.04888
1051.11602	0.04836
1049.18736	0.04790
1047.25871	0.04747
1045.33006	0.04709
1043.40140	0.04682
1041.47275	0.04679
1039.54410	0.04705
1037.61544	0.04747
1035.68679	0.04791
1033.75814	0.04826
1031.82948	0.04833
1029.90083	0.04799
1027.97218	0.04727
1026.04352	0.04634
1024.11487	0.04539
1022.18622	0.04452
1020.25756	0.04375
1018.32891	0.04313
1016.40026	0.04268
1014.47160	0.04224
1012.54295	0.04164
1010.61430	0.04093
1008.68564	0.04020
1006.75699	0.03951
1004.82834	0.03892
1002.89968	0.03842
1000.97103	0.03797
999.04238	0.03755
997.11373	0.03711
995.18507	0.03670
993.25642	0.03631
991.32777	0.03586
989.39911	0.03544
987.47046	0.03520
985.54181	0.03511
983.61315	0.03503
981.68450	0.03492
979.75585	0.03487
977.82719	0.03500
975.89854	0.03519
973.96989	0.03524
972.04123	0.03511
970.11258	0.03487
968.18393	0.03465
966.25527	0.03452
964.32662	0.03431
962.39797	0.03387
960.46931	0.03339
958.54066	0.03306
956.61201	0.03282
954.68335	0.03261
952.75470	0.03248
950.82605	0.03240
948.89739	0.03233
946.96874	0.03224
945.04009	0.03210
943.11143	0.03207
941.18278	0.03223
939.25413	0.03233
937.32547	0.03220
935.39682	0.03207
933.46817	0.03209
931.53952	0.03210
929.61086	0.03196
927.68221	0.03181
925.75356	0.03181
923.82490	0.03183
921.89625	0.03170
919.96760	0.03144
918.03894	0.03121
916.11029	0.03104
914.18164	0.03094
912.25298	0.03092
910.32433	0.03076
908.39568	0.03041
906.46702	0.03014
904.53837	0.03000
902.60972	0.02983
900.68106	0.02963
898.75241	0.02952
896.82376	0.02954
894.89510	0.02955
892.96645	0.02944
891.03780	0.02932
889.10914	0.02921
887.18049	0.02905
885.25184	0.02885
883.32318	0.02872
881.39453	0.02879
879.46588	0.02912
877.53722	0.02951
875.60857	0.02964
873.67992	0.02944
871.75126	0.02909
869.82261	0.02892
867.89396	0.02901
865.96530	0.02909
864.03665	0.02898
862.10800	0.02879
860.17935	0.02865
858.25069	0.02862
856.32204	0.02870
854.39339	0.02881
852.46473	0.02895
850.53608	0.02907
848.60743	0.02903
846.67877	0.02887
844.75012	0.02876
842.82147	0.02870
840.89281	0.02858
838.96416	0.02852
837.03551	0.02859
835.10685	0.02865
833.17820	0.02862
831.24955	0.02865
829.32089	0.02880
827.39224	0.02896
825.46359	0.02911
823.53493	0.02930
821.60628	0.02961
819.67763	0.03002
817.74897	0.03040
815.82032	0.03064
813.89167	0.03064
811.96301	0.03052
810.03436	0.03051
808.10571	0.03069
806.17705	0.03100
804.24840	0.03131
802.31975	0.03153
800.39109	0.03167
798.46244	0.03180
796.53379	0.03200
794.60513	0.03230
792.67648	0.03256
790.74783	0.03272
788.81918	0.03290
786.89052	0.03315
784.96187	0.03337
783.03322	0.03357
781.10456	0.03377
779.17591	0.03396
777.24726	0.03413
775.31860	0.03430
773.38995	0.03460
771.46130	0.03509
769.53264	0.03556
767.60399	0.03587
765.67534	0.03610
763.74668	0.03629
761.81803	0.03644
759.88938	0.03666
757.96072	0.03697
756.03207	0.03736
754.10342	0.03779
752.17476	0.03819
750.24611	0.03849
748.31746	0.03871
746.38880	0.03902
744.46015	0.03942
742.53150	0.03974
740.60284	0.03992
738.67419	0.04009
736.74554	0.04032
734.81688	0.04050
732.88823	0.04060
730.95958	0.04085
729.03092	0.04133
727.10227	0.04176
725.17362	0.04203
723.24497	0.04233
721.31631	0.04271
719.38766	0.04310
717.45901	0.04348
715.53035	0.04374
713.60170	0.04386
711.67305	0.04401
709.74439	0.04435
707.81574	0.04483
705.88709	0.04530
703.95843	0.04568
702.02978	0.04592
700.10113	0.04606
698.17247	0.04626
696.24382	0.04651
694.31517	0.04667
692.38651	0.04674
690.45786	0.04682
688.52921	0.04703
686.60055	0.04734
684.67190	0.04764
682.74325	0.04789
680.81459	0.04815
678.88594	0.04840
676.95729	0.04864
675.02863	0.04884
673.09998	0.04902
671.17133	0.04922
669.24267	0.04943
667.31402	0.04955
665.38537	0.04968
663.45671	0.04988
661.52806	0.05005
659.59941	0.05015
657.67075	0.05027
655.74210	0.05040
653.81345	0.05049
651.88480	0.05064
649.95614	0.05089
648.02749	0.05106
646.09884	0.05103
644.17018	0.05090
642.24153	0.05082
640.31288	0.05083
638.38422	0.05094
636.45557	0.05111
634.52692	0.05127
632.59826	0.05125
630.66961	0.05114
628.74096	0.05124
626.81230	0.05040
624.88365	0.04934
622.95500	0.04899
621.02634	0.04973
619.09769	0.05085
617.16904	0.05239
615.24038	0.05464
613.31173	0.05594
611.38308	0.05488
609.45442	0.05324
607.52577	0.05289
605.59712	0.05262
603.66846	0.05226
601.73981	0.05257
599.81116	0.05279
597.88250	0.05241
595.95385	0.05183
594.02520	0.05138
592.09654	0.05128
590.16789	0.05152
588.23924	0.05168
586.31059	0.05157
584.38193	0.05151
582.45328	0.05166
580.52463	0.05188
578.59597	0.05203
576.66732	0.05202
574.73867	0.05196
572.81001	0.05207
570.88136	0.05231
568.95271	0.05264
567.02405	0.05310
565.09540	0.05334
563.16675	0.05320
561.23809	0.05302
559.30944	0.05295
557.38079	0.05290
555.45213	0.05280
553.52348	0.05263
551.59483	0.05254
549.66617	0.05249
547.73752	0.05238
545.80887	0.05225
543.88021	0.05206
541.95156	0.05179
540.02291	0.05161
538.09425	0.05153
536.16560	0.05135
534.23695	0.05118
532.30829	0.05126
530.37964	0.05138
528.45099	0.05123
526.52233	0.05087
524.59368	0.05049
522.66503	0.05013
520.73637	0.04991
518.80772	0.04983
516.87907	0.04956
514.95042	0.04908
513.02176	0.04869
511.09311	0.04843
509.16446	0.04826
507.23580	0.04817
505.30715	0.04791
503.37850	0.04739
501.44984	0.04696
499.52119	0.04679
497.59254	0.04657
495.66388	0.04611
493.73523	0.04570
491.80658	0.04544
489.87792	0.04507
487.94927	0.04459
486.02062	0.04423
484.09196	0.04395
482.16331	0.04355
480.23466	0.04310
478.30600	0.04282
476.37735	0.04269
474.44870	0.04250
472.52004	0.04213
470.59139	0.04166
468.66274	0.04124
466.73408	0.04096
464.80543	0.04080
462.87678	0.04055
460.94812	0.04012
459.01947	0.03961
457.09082	0.03921
455.16216	0.03886
453.23351	0.03841
451.30486	0.03798
449.37620	0.03770
447.44755	0.03748
445.51890	0.03718
443.59025	0.03685
441.66159	0.03658
439.73294	0.03636
437.80429	0.03615
435.87563	0.03592
433.94698	0.03569
432.01833	0.03551
430.08967	0.03534
428.16102	0.03506
426.23237	0.03463
424.30371	0.03421
422.37506	0.03392
420.44641	0.03373
418.51775	0.03356
416.58910	0.03335
414.66045	0.03310
412.73179	0.03297
410.80314	0.03287
408.87449	0.03268
406.94583	0.03244
405.01718	0.03221
403.08853	0.03201
401.15987	0.03188
399.23122	0.03168
