3996.16951	0.05578
3994.24086	0.05591
3992.31220	0.05563
3990.38355	0.05512
3988.45490	0.05514
3986.52624	0.05565
3984.59759	0.05583
3982.66894	0.05556
3980.74028	0.05566
3978.81163	0.05622
3976.88298	0.05640
3974.95432	0.05584
3973.02567	0.05508
3971.09702	0.05473
3969.16836	0.05494
3967.23971	0.05529
3965.31106	0.05514
3963.38240	0.05450
3961.45375	0.05385
3959.52510	0.05352
3957.59645	0.05351
3955.66779	0.05360
3953.73914	0.05347
3951.81049	0.05318
3949.88183	0.05308
3947.95318	0.05329
3946.02453	0.05356
3944.09587	0.05366
3942.16722	0.05383
3940.23857	0.05422
3938.30991	0.05448
3936.38126	0.05447
3934.45261	0.05412
3932.52395	0.05334
3930.59530	0.05291
3928.66665	0.05324
3926.73799	0.05335
3924.80934	0.05282
3922.88069	0.05243
3920.95203	0.05256
3919.02338	0.05303
3917.09473	0.05333
3915.16607	0.05325
3913.23742	0.05294
3911.30877	0.05244
3909.38011	0.05195
3907.45146	0.05183
3905.52281	0.05185
3903.59415	0.05173
3901.66550	0.05160
3899.73685	0.05166
3897.80819	0.05205
3895.87954	0.05226
3893.95089	0.05196
3892.02224	0.05173
3890.09358	0.05199
3888.16493	0.05176
3886.23628	0.05079
3884.30762	0.05045
3882.37897	0.05057
3880.45032	0.05057
3878.52166	0.05091
3876.59301	0.05135
3874.66436	0.05171
3872.73570	0.05199
3870.80705	0.05157
3868.87840	0.05103
3866.94974	0.05094
3865.02109	0.05105
3863.09244	0.05123
3861.16378	0.05104
3859.23513	0.05077
3857.30648	0.05068
3855.37782	0.05005
3853.44917	0.04938
3851.52052	0.04965
3849.59186	0.04995
3847.66321	0.04965
3845.73456	0.04905
3843.80590	0.04880
3841.87725	0.04917
3839.94860	0.04942
3838.01994	0.04933
3836.09129	0.04955
3834.16264	0.04969
3832.23398	0.04954
3830.30533	0.04944
3828.37668	0.04926
3826.44803	0.04880
3824.51937	0.04813
3822.59072	0.04747
3820.66207	0.04773
3818.73341	0.04857
3816.80476	0.04860
3814.87611	0.04854
3812.94745	0.04878
3811.01880	0.04897
3809.09015	0.04883
3807.16149	0.04834
3805.23284	0.04813
3803.30419	0.04779
3801.37553	0.04767
3799.44688	0.04832
3797.51823	0.04836
3795.58957	0.04787
3793.66092	0.04747
3791.73227	0.04721
3789.80361	0.04728
3787.87496	0.04746
3785.94631	0.04750
3784.01765	0.04747
3782.08900	0.04726
3780.16035	0.04683
3778.23169	0.04681
3776.30304	0.04721
3774.37439	0.04747
3772.44573	0.04730
3770.51708	0.04650
3768.58843	0.04565
3766.65977	0.04535
3764.73112	0.04564
3762.80247	0.04608
3760.87381	0.04611
3758.94516	0.04594
3757.01651	0.04572
3755.08786	0.04553
3753.15920	0.04541
3751.23055	0.04552
3749.30190	0.04569
3747.37324	0.04559
3745.44459	0.04491
3743.51594	0.04503
3741.58728	0.04572
3739.65863	0.04562
3737.72998	0.04495
3735.80132	0.04442
3733.87267	0.04445
3731.94402	0.04459
3730.01536	0.04469
3728.08671	0.04447
3726.15806	0.04428
3724.22940	0.04429
3722.30075	0.04421
3720.37210	0.04405
3718.44344	0.04378
3716.51479	0.04389
3714.58614	0.04420
3712.65748	0.04404
3710.72883	0.04367
3708.80018	0.04349
3706.87152	0.04350
3704.94287	0.04331
3703.01422	0.04280
3701.08556	0.04253
3699.15691	0.04267
3697.22826	0.04275
3695.29960	0.04268
3693.37095	0.04255
3691.44230	0.04253
3689.51365	0.04253
3687.58499	0.04283
3685.65634	0.04327
3683.72769	0.04313
3681.79903	0.04313
3679.87038	0.04357
3677.94173	0.04338
3676.01307	0.04235
3674.08442	0.04198
3672.15577	0.04216
3670.22711	0.04261
3668.29846	0.04371
3666.36981	0.04460
3664.44115	0.04480
3662.51250	0.04458
3660.58385	0.04431
3658.65519	0.04427
3656.72654	0.04473
3654.79789	0.04579
3652.86923	0.04645
3650.94058	0.04639
3649.01193	0.04659
3647.08327	0.04720
3645.15462	0.04786
3643.22597	0.04845
3641.29731	0.04856
3639.36866	0.04822
3637.44001	0.04818
3635.51135	0.04859
3633.58270	0.04916
3631.65405	0.04994
3629.72539	0.05063
3627.79674	0.05154
3625.86809	0.05204
3623.93943	0.05181
3622.01078	0.05177
3620.08213	0.05220
3618.15348	0.05258
3616.22482	0.05283
3614.29617	0.05335
3612.36752	0.05425
3610.43886	0.05499
3608.51021	0.05552
3606.58156	0.05606
3604.65290	0.05634
3602.72425	0.05653
3600.79560	0.05705
3598.86694	0.05764
3596.93829	0.05791
3595.00964	0.05819
3593.08098	0.05889
3591.15233	0.05962
3589.22368	0.05993
3587.29502	0.06029
3585.36637	0.06129
3583.43772	0.06244
3581.50906	0.06313
3579.58041	0.06353
3577.65176	0.06424
3575.72310	0.06537
3573.79445	0.06653
3571.86580	0.06727
3569.93714	0.06761
3568.00849	0.06809
3566.07984	0.06909
3564.15118	0.07021
3562.22253	0.07113
3560.29388	0.07179
3558.36522	0.07225
3556.43657	0.07269
3554.50792	0.07324
3552.57927	0.07395
3550.65061	0.07490
3548.72196	0.07591
3546.79331	0.07683
3544.86465	0.07780
3542.93600	0.07871
3541.00735	0.07940
3539.07869	0.08022
3537.15004	0.08125
3535.22139	0.08215
3533.29273	0.08297
3531.36408	0.08370
3529.43543	0.08418
3527.50677	0.08469
3525.57812	0.08539
3523.64947	0.08596
3521.72081	0.08644
3519.79216	0.08692
3517.86351	0.08734
3515.93485	0.08783
3514.00620	0.08842
3512.07755	0.08892
3510.14889	0.08960
3508.22024	0.09046
3506.29159	0.09100
3504.36293	0.09135
3502.43428	0.09212
3500.50563	0.09314
3498.57697	0.09389
3496.64832	0.09424
3494.71967	0.09451
3492.79101	0.09503
3490.86236	0.09572
3488.93371	0.09623
3487.00506	0.09644
3485.07640	0.09649
3483.14775	0.09666
3481.21910	0.09724
3479.29044	0.09805
3477.36179	0.09882
3475.43314	0.09970
3473.50448	0.10073
3471.57583	0.10142
3469.64718	0.10162
3467.71852	0.10178
3465.78987	0.10219
3463.86122	0.10272
3461.93256	0.10343
3460.00391	0.10444
3458.07526	0.10523
3456.14660	0.10531
3454.21795	0.10513
3452.28930	0.10530
3450.36064	0.10567
3448.43199	0.10626
3446.50334	0.10723
3444.57468	0.10804
3442.64603	0.10832
3440.71738	0.10844
3438.78872	0.10875
3436.86007	0.10939
3434.93142	0.11031
3433.00276	0.11121
3431.07411	0.11184
3429.14546	0.11206
3427.21680	0.11214
3425.28815	0.11258
3423.35950	0.11341
3421.43084	0.11401
3419.50219	0.11420
3417.57354	0.11464
3415.64489	0.11563
3413.71623	0.11651
3411.78758	0.11683
3409.85893	0.11701
3407.93027	0.11744
3406.00162	0.11789
3404.07297	0.11807
3402.14431	0.11802
3400.21566	0.11809
3398.28701	0.11869
3396.35835	0.11977
3394.42970	0.12077
3392.50105	0.12126
3390.57239	0.12140
3388.64374	0.12135
3386.71509	0.12145
3384.78643	0.12198
3382.85778	0.12261
3380.92913	0.12311
3379.00047	0.12378
3377.07182	0.12456
3375.14317	0.12533
3373.21451	0.12624
3371.28586	0.12713
3369.35721	0.12780
3367.42855	0.12841
3365.49990	0.12922
3363.57125	0.13035
3361.64259	0.13161
3359.71394	0.13276
3357.78529	0.13372
3355.85663	0.13438
3353.92798	0.13488
3351.99933	0.13569
3350.07068	0.13714
3348.14202	0.13893
3346.21337	0.14039
3344.28472	0.14123
3342.35606	0.14197
3340.42741	0.14311
3338.49876	0.14433
3336.57010	0.14526
3334.64145	0.14602
3332.71280	0.14678
3330.78414	0.14747
3328.85549	0.14822
3326.92684	0.14913
3324.99818	0.14996
3323.06953	0.15066
3321.14088	0.15133
3319.21222	0.15171
3317.28357	0.15181
3315.35492	0.15222
3313.42626	0.15311
3311.49761	0.15386
3309.56896	0.15428
3307.64030	0.15468
3305.71165	0.15507
3303.78300	0.15541
3301.85434	0.15571
3299.92569	0.15573
3297.99704	0.15545
3296.06838	0.15530
3294.13973	0.15568
3292.21108	0.15645
3290.28242	0.15683
3288.35377	0.15668
3286.42512	0.15649
3284.49646	0.15627
3282.56781	0.15599
3280.63916	0.15574
3278.71051	0.15534
3276.78185	0.15483
3274.85320	0.15450
3272.92455	0.15429
3270.99589	0.15378
3269.06724	0.15289
3267.13859	0.15208
3265.20993	0.15149
3263.28128	0.15094
3261.35263	0.15051
3259.42397	0.15023
3257.49532	0.14998
3255.56667	0.14970
3253.63801	0.14933
3251.70936	0.14873
3249.78071	0.14779
3247.85205	0.14670
3245.92340	0.14582
3243.99475	0.14518
3242.06609	0.14463
3240.13744	0.14423
3238.20879	0.14411
3236.28013	0.14429
3234.35148	0.14418
3232.42283	0.14331
3230.49417	0.14209
3228.56552	0.14135
3226.63687	0.14128
3224.70821	0.14135
3222.77956	0.14110
3220.85091	0.14067
3218.92225	0.14028
3216.99360	0.13975
3215.06495	0.13896
3213.13630	0.13833
3211.20764	0.13816
3209.27899	0.13811
3207.35034	0.13782
3205.42168	0.13731
3203.49303	0.13649
3201.56438	0.13542
3199.63572	0.13447
3197.70707	0.13381
3195.77842	0.13327
3193.84976	0.13282
3191.92111	0.13248
3189.99246	0.13203
3188.06380	0.13134
3186.13515	0.13041
3184.20650	0.12940
3182.27784	0.12860
3180.34919	0.12819
3178.42054	0.12790
3176.49188	0.12722
3174.56323	0.12617
3172.63458	0.12515
3170.70592	0.12402
3168.77727	0.12275
3166.84862	0.12191
3164.91996	0.12163
3162.99131	0.12140
3161.06266	0.12100
3159.13400	0.12028
3157.20535	0.11918
3155.27670	0.11798
3153.34804	0.11695
3151.41939	0.11601
3149.49074	0.11501
3147.56209	0.11407
3145.63343	0.11329
3143.70478	0.11263
3141.77613	0.11215
3139.84747	0.11182
3137.91882	0.11143
3135.99017	0.11089
3134.06151	0.11013
3132.13286	0.10932
3130.20421	0.10872
3128.27555	0.10834
3126.34690	0.10804
3124.41825	0.10772
3122.48959	0.10728
3120.56094	0.10685
3118.63229	0.10654
3116.70363	0.10632
3114.77498	0.10621
3112.84633	0.10611
3110.91767	0.10601
3108.98902	0.10605
3107.06037	0.10611
3105.13171	0.10608
3103.20306	0.10612
3101.27441	0.10636
3099.34575	0.10670
3097.41710	0.10695
3095.48845	0.10717
3093.55979	0.10748
3091.63114	0.10777
3089.70249	0.10790
3087.77383	0.10810
3085.84518	0.10848
3083.91653	0.10880
3081.98787	0.10890
3080.05922	0.10895
3078.13057	0.10899
3076.20192	0.10908
3074.27326	0.10933
3072.34461	0.10941
3070.41596	0.10915
3068.48730	0.10880
3066.55865	0.10851
3064.63000	0.10832
3062.70134	0.10805
3060.77269	0.10738
3058.84404	0.10644
3056.91538	0.10582
3054.98673	0.10570
3053.05808	0.10564
3051.12942	0.10523
3049.20077	0.10443
3047.27212	0.10349
3045.34346	0.10263
3043.41481	0.10173
3041.48616	0.10082
3039.55750	0.10013
3037.62885	0.09957
3035.70020	0.09889
3033.77154	0.09806
3031.84289	0.09718
3029.91424	0.09633
3027.98558	0.09559
3026.05693	0.09506
3024.12828	0.09476
3022.19962	0.09434
3020.27097	0.09360
3018.34232	0.09289
3016.41366	0.09250
3014.48501	0.09233
3012.55636	0.09207
3010.62771	0.09148
3008.69905	0.09068
3006.77040	0.09014
3004.84175	0.09014
3002.91309	0.09040
3000.98444	0.09059
2999.05579	0.09062
2997.12713	0.09064
2995.19848	0.09079
2993.26983	0.09116
2991.34117	0.09176
2989.41252	0.09235
2987.48387	0.09269
2985.55521	0.09283
2983.62656	0.09304
2981.69791	0.09338
2979.76925	0.09373
2977.84060	0.09396
2975.91195	0.09418
2973.98329	0.09464
2972.05464	0.09520
2970.12599	0.09563
2968.19733	0.09580
2966.26868	0.09569
2964.34003	0.09563
2962.41137	0.09584
2960.48272	0.09622
2958.55407	0.09663
2956.62541	0.09690
2954.69676	0.09711
2952.76811	0.09744
2950.83945	0.09762
2948.91080	0.09751
2946.98215	0.09727
2945.05349	0.09699
2943.12484	0.09700
2941.19619	0.09729
2939.26754	0.09745
2937.33888	0.09748
2935.41023	0.09758
2933.48158	0.09765
2931.55292	0.09745
2929.62427	0.09699
2927.69562	0.09652
2925.76696	0.09605
2923.83831	0.09534
2921.90966	0.09455
2919.98100	0.09387
2918.05235	0.09323
2916.12370	0.09263
2914.19504	0.09220
2912.26639	0.09180
2910.33774	0.09117
2908.40908	0.09037
2906.48043	0.08963
2904.55178	0.08899
2902.62312	0.08837
2900.69447	0.08786
2898.76582	0.08743
2896.83716	0.08694
2894.90851	0.08646
2892.97986	0.08611
2891.05120	0.08592
2889.12255	0.08592
2887.19390	0.08608
2885.26524	0.08635
2883.33659	0.08669
2881.40794	0.08693
2879.47928	0.08692
2877.55063	0.08676
2875.62198	0.08655
2873.69333	0.08620
2871.76467	0.08575
2869.83602	0.08526
2867.90737	0.08456
2865.97871	0.08359
2864.05006	0.08252
2862.12141	0.08142
2860.19275	0.08042
2858.26410	0.07978
2856.33545	0.07944
2854.40679	0.07906
2852.47814	0.07848
2850.54949	0.07790
2848.62083	0.07759
2846.69218	0.07740
2844.76353	0.07712
2842.83487	0.07674
2840.90622	0.07639
2838.97757	0.07609
2837.04891	0.07581
2835.12026	0.07543
2833.19161	0.07502
2831.26295	0.07478
2829.33430	0.07454
2827.40565	0.07424
2825.47699	0.07395
2823.54834	0.07350
2821.61969	0.07290
2819.69103	0.07251
2817.76238	0.07234
2815.83373	0.07211
2813.90507	0.07178
2811.97642	0.07150
2810.04777	0.07144
2808.11912	0.07150
2806.19046	0.07142
2804.26181	0.07113
2802.33316	0.07076
2800.40450	0.07043
2798.47585	0.07020
2796.54720	0.06999
2794.61854	0.06974
2792.68989	0.06955
2790.76124	0.06943
2788.83258	0.06938
2786.90393	0.06940
2784.97528	0.06921
2783.04662	0.06867
2781.11797	0.06808
2779.18932	0.06774
2777.26066	0.06762
2775.33201	0.06745
2773.40336	0.06713
2771.47470	0.06669
2769.54605	0.06627
2767.61740	0.06597
2765.68874	0.06581
2763.76009	0.06575
2761.83144	0.06577
2759.90278	0.06577
2757.97413	0.06548
2756.04548	0.06497
2754.11682	0.06465
2752.18817	0.06457
2750.25952	0.06442
2748.33086	0.06420
2746.40221	0.06404
2744.47356	0.06386
2742.54490	0.06357
2740.61625	0.06319
2738.68760	0.06284
2736.75895	0.06261
2734.83029	0.06247
2732.90164	0.06234
2730.97299	0.06219
2729.04433	0.06210
2727.11568	0.06203
2725.18703	0.06191
2723.25837	0.06158
2721.32972	0.06116
2719.40107	0.06083
2717.47241	0.06060
2715.54376	0.06046
2713.61511	0.06029
2711.68645	0.06003
2709.75780	0.05983
2707.82915	0.05973
2705.90049	0.05962
2703.97184	0.05950
2702.04319	0.05944
2700.11453	0.05939
2698.18588	0.05926
2696.25723	0.05906
2694.32857	0.05890
2692.39992	0.05878
2690.47127	0.05864
2688.54261	0.05846
2686.61396	0.05830
2684.68531	0.05828
2682.75665	0.05827
2680.82800	0.05804
2678.89935	0.05759
2676.97069	0.05729
2675.04204	0.05733
2673.11339	0.05750
2671.18474	0.05764
2669.25608	0.05768
2667.32743	0.05765
2665.39878	0.05749
2663.47012	0.05717
2661.54147	0.05687
2659.61282	0.05673
2657.68416	0.05667
2655.75551	0.05652
2653.82686	0.05618
2651.89820	0.05573
2649.96955	0.05540
2648.04090	0.05528
2646.11224	0.05519
2644.18359	0.05490
2642.25494	0.05443
2640.32628	0.05396
2638.39763	0.05363
2636.46898	0.05345
2634.54032	0.05332
2632.61167	0.05318
2630.68302	0.05300
2628.75436	0.05273
2626.82571	0.05231
2624.89706	0.05177
2622.96840	0.05117
2621.03975	0.05059
2619.11110	0.05029
2617.18244	0.05050
2615.25379	0.05090
2613.32514	0.05088
2611.39648	0.05041
2609.46783	0.04993
2607.53918	0.04953
2605.61052	0.04910
2603.68187	0.04879
2601.75322	0.04866
2599.82457	0.04845
2597.89591	0.04813
2595.96726	0.04787
2594.03861	0.04756
2592.10995	0.04716
2590.18130	0.04710
2588.25265	0.04740
2586.32399	0.04748
2584.39534	0.04707
2582.46669	0.04648
2580.53803	0.04610
2578.60938	0.04606
2576.68073	0.04610
2574.75207	0.04611
2572.82342	0.04627
2570.89477	0.04649
2568.96611	0.04640
2567.03746	0.04587
2565.10881	0.04517
2563.18015	0.04477
2561.25150	0.04473
2559.32285	0.04448
2557.39419	0.04389
2555.46554	0.04362
2553.53689	0.04381
2551.60823	0.04391
2549.67958	0.04381
2547.75093	0.04367
2545.82227	0.04348
2543.89362	0.04335
2541.96497	0.04320
2540.03631	0.04300
2538.10766	0.04317
2536.17901	0.04360
2534.25036	0.04378
2532.32170	0.04358
2530.39305	0.04311
2528.46440	0.04255
2526.53574	0.04220
2524.60709	0.04206
2522.67844	0.04195
2520.74978	0.04191
2518.82113	0.04184
2516.89248	0.04171
2514.96382	0.04186
2513.03517	0.04215
2511.10652	0.04183
2509.17786	0.04105
2507.24921	0.04077
2505.32056	0.04108
2503.39190	0.04124
2501.46325	0.04098
2499.53460	0.04070
2497.60594	0.04077
2495.67729	0.04097
2493.74864	0.04089
2491.81998	0.04046
2489.89133	0.03999
2487.96268	0.04000
2486.03402	0.04042
2484.10537	0.04046
2482.17672	0.03983
2480.24806	0.03929
2478.31941	0.03940
2476.39076	0.03974
2474.46210	0.03987
2472.53345	0.03971
2470.60480	0.03934
2468.67615	0.03920
2466.74749	0.03932
2464.81884	0.03925
2462.89019	0.03902
2460.96153	0.03892
2459.03288	0.03890
2457.10423	0.03895
2455.17557	0.03902
2453.24692	0.03897
2451.31827	0.03892
2449.38961	0.03887
2447.46096	0.03877
2445.53231	0.03878
2443.60365	0.03883
2441.67500	0.03863
2439.74635	0.03819
2437.81769	0.03786
2435.88904	0.03798
2433.96039	0.03818
2432.03173	0.03780
2430.10308	0.03734
2428.17443	0.03755
2426.24577	0.03801
2424.31712	0.03810
2422.38847	0.03791
2420.45981	0.03772
2418.53116	0.03766
2416.60251	0.03772
2414.67385	0.03786
2412.74520	0.03803
2410.81655	0.03811
2408.88789	0.03797
2406.95924	0.03769
2405.03059	0.03769
2403.10193	0.03802
2401.17328	0.03817
2399.24463	0.03798
2397.31598	0.03785
2395.38732	0.03780
2393.45867	0.03772
2391.53002	0.03757
2389.60136	0.03746
2387.67271	0.03744
2385.74406	0.03736
2383.81540	0.03731
2381.88675	0.03750
2379.95810	0.03784
2378.02944	0.03811
2376.10079	0.03815
2374.17214	0.03797
2372.24348	0.03788
2370.31483	0.03853
2368.38618	0.03733
2366.45752	0.03767
2364.52887	0.03773
2362.60022	0.03882
2360.67156	0.03767
2358.74291	0.03958
2356.81426	0.03790
2354.88560	0.03870
2352.95695	0.03936
2351.02830	0.03857
2349.09964	0.03856
2347.17099	0.03837
2345.24234	0.03760
2343.31368	0.03745
2341.38503	0.03877
2339.45638	0.03951
2337.52772	0.03905
2335.59907	0.03765
2333.67042	0.03644
2331.74177	0.03601
2329.81311	0.03606
2327.88446	0.03619
2325.95581	0.03674
2324.02715	0.03709
2322.09850	0.03715
2320.16985	0.03684
2318.24119	0.03660
2316.31254	0.03632
2314.38389	0.03604
2312.45523	0.03572
2310.52658	0.03545
2308.59793	0.03538
2306.66927	0.03548
2304.74062	0.03559
2302.81197	0.03555
2300.88331	0.03540
2298.95466	0.03502
2297.02601	0.03468
2295.09735	0.03446
2293.16870	0.03422
2291.24005	0.03374
2289.31139	0.03322
2287.38274	0.03277
2285.45409	0.03241
2283.52543	0.03205
2281.59678	0.03159
2279.66813	0.03123
2277.73947	0.03106
2275.81082	0.03083
2273.88217	0.03046
2271.95351	0.03018
2270.02486	0.03022
2268.09621	0.03035
2266.16755	0.03016
2264.23890	0.02953
2262.31025	0.02874
2260.38160	0.02816
2258.45294	0.02806
2256.52429	0.02824
2254.59564	0.02825
2252.66698	0.02797
2250.73833	0.02775
2248.80968	0.02783
2246.88102	0.02755
2244.95237	0.02710
2243.02372	0.02656
2241.09506	0.02626
2239.16641	0.02636
2237.23776	0.02609
2235.30910	0.02511
2233.38045	0.02444
2231.45180	0.02478
2229.52314	0.02542
2227.59449	0.02573
2225.66584	0.02610
2223.73718	0.02646
2221.80853	0.02621
2219.87988	0.02581
2217.95122	0.02612
2216.02257	0.02669
2214.09392	0.02644
2212.16526	0.02588
2210.23661	0.02614
2208.30796	0.02625
2206.37930	0.02519
2204.45065	0.02407
2202.52200	0.02365
2200.59334	0.02350
2198.66469	0.02327
2196.73604	0.02274
2194.80739	0.02205
2192.87873	0.02157
2190.95008	0.02162
2189.02143	0.02219
2187.09277	0.02270
2185.16412	0.02211
2183.23547	0.02046
2181.30681	0.01963
2179.37816	0.02021
2177.44951	0.02069
2175.52085	0.02064
2173.59220	0.02091
2171.66355	0.02142
2169.73489	0.02128
2167.80624	0.02056
2165.87759	0.01966
2163.94893	0.01811
2162.02028	0.01621
2160.09163	0.01570
2158.16297	0.01677
2156.23432	0.01777
2154.30567	0.01853
2152.37701	0.01908
2150.44836	0.01892
2148.51971	0.01905
2146.59105	0.02022
2144.66240	0.02142
2142.73375	0.02174
2140.80509	0.02158
2138.87644	0.02135
2136.94779	0.02098
2135.01913	0.02100
2133.09048	0.02169
2131.16183	0.02240
2129.23318	0.02297
2127.30452	0.02367
2125.37587	0.02434
2123.44722	0.02474
2121.51856	0.02503
2119.58991	0.02530
2117.66126	0.02528
2115.73260	0.02496
2113.80395	0.02492
2111.87530	0.02519
2109.94664	0.02504
2108.01799	0.02438
2106.08934	0.02383
2104.16068	0.02364
2102.23203	0.02359
2100.30338	0.02356
2098.37472	0.02346
2096.44607	0.02346
2094.51742	0.02366
2092.58876	0.02393
2090.66011	0.02399
2088.73146	0.02392
2086.80280	0.02395
2084.87415	0.02395
2082.94550	0.02354
2081.01684	0.02289
2079.08819	0.02249
2077.15954	0.02231
2075.23088	0.02214
2073.30223	0.02193
2071.37358	0.02138
2069.44492	0.02054
2067.51627	0.01987
2065.58762	0.01949
2063.65896	0.01973
2061.73031	0.02069
2059.80166	0.02121
2057.87301	0.02048
2055.94435	0.01941
2054.01570	0.01902
2052.08705	0.01902
2050.15839	0.01872
2048.22974	0.01811
2046.30109	0.01741
2044.37243	0.01686
2042.44378	0.01644
2040.51513	0.01575
2038.58647	0.01511
2036.65782	0.01519
2034.72917	0.01542
2032.80051	0.01472
2030.87186	0.01372
2028.94321	0.01388
2027.01455	0.01519
2025.08590	0.01663
2023.15725	0.01725
2021.22859	0.01672
2019.29994	0.01559
2017.37129	0.01460
2015.44263	0.01394
2013.51398	0.01394
2011.58533	0.01476
2009.65667	0.01532
2007.72802	0.01486
2005.79937	0.01455
2003.87071	0.01525
2001.94206	0.01600
2000.01341	0.01629
1998.08475	0.01687
1996.15610	0.01773
1994.22745	0.01777
1992.29880	0.01695
1990.37014	0.01691
1988.44149	0.01803
1986.51284	0.01867
1984.58418	0.01794
1982.65553	0.01648
1980.72688	0.01513
1978.79822	0.01443
1976.86957	0.01475
1974.94092	0.01549
1973.01226	0.01566
1971.08361	0.01550
1969.15496	0.01548
1967.22630	0.01579
1965.29765	0.01684
1963.36900	0.01797
1961.44034	0.01795
1959.51169	0.01703
1957.58304	0.01636
1955.65438	0.01619
1953.72573	0.01648
1951.79708	0.01699
1949.86842	0.01700
1947.93977	0.01671
1946.01112	0.01676
1944.08246	0.01708
1942.15381	0.01751
1940.22516	0.01773
1938.29650	0.01745
1936.36785	0.01723
1934.43920	0.01760
1932.51054	0.01836
1930.58189	0.01905
1928.65324	0.01928
1926.72458	0.01906
1924.79593	0.01885
1922.86728	0.01891
1920.93863	0.01913
1919.00997	0.01937
1917.08132	0.01949
1915.15267	0.01931
1913.22401	0.01881
1911.29536	0.01838
1909.36671	0.01842
1907.43805	0.01877
1905.50940	0.01892
1903.58075	0.01899
1901.65209	0.01925
1899.72344	0.01937
1897.79479	0.01926
1895.86613	0.01930
1893.93748	0.01957
1892.00883	0.01970
1890.08017	0.01959
1888.15152	0.01955
1886.22287	0.01959
1884.29421	0.01952
1882.36556	0.01933
1880.43691	0.01915
1878.50825	0.01905
1876.57960	0.01891
1874.65095	0.01871
1872.72229	0.01876
1870.79364	0.01900
1868.86499	0.01909
1866.93633	0.01900
1865.00768	0.01901
1863.07903	0.01916
1861.15037	0.01921
1859.22172	0.01922
1857.29307	0.01938
1855.36442	0.01954
1853.43576	0.01950
1851.50711	0.01929
1849.57846	0.01912
1847.64980	0.01912
1845.72115	0.01910
1843.79250	0.01903
1841.86384	0.01899
1839.93519	0.01886
1838.00654	0.01877
1836.07788	0.01890
1834.14923	0.01906
1832.22058	0.01899
1830.29192	0.01873
1828.36327	0.01854
1826.43462	0.01826
1824.50596	0.01797
1822.57731	0.01799
1820.64866	0.01812
1818.72000	0.01810
1816.79135	0.01805
1814.86270	0.01820
1812.93404	0.01850
1811.00539	0.01874
1809.07674	0.01882
1807.14808	0.01877
1805.21943	0.01859
1803.29078	0.01823
1801.36212	0.01793
1799.43347	0.01796
1797.50482	0.01810
1795.57616	0.01804
1793.64751	0.01784
1791.71886	0.01783
1789.79021	0.01797
1787.86155	0.01797
1785.93290	0.01790
1784.00425	0.01786
1782.07559	0.01780
1780.14694	0.01774
1778.21829	0.01773
1776.28963	0.01767
1774.36098	0.01751
1772.43233	0.01742
1770.50367	0.01748
1768.57502	0.01743
1766.64637	0.01739
1764.71771	0.01737
1762.78906	0.01728
1760.86041	0.01741
1758.93175	0.01763
1757.00310	0.01769
1755.07445	0.01774
1753.14579	0.01769
1751.21714	0.01764
1749.28849	0.01786
1747.35983	0.01822
1745.43118	0.01853
1743.50253	0.01882
1741.57387	0.01915
1739.64522	0.01952
1737.71657	0.01994
1735.78791	0.02010
1733.85926	0.02031
1731.93061	0.02097
1730.00195	0.02157
1728.07330	0.02190
1726.14465	0.02218
1724.21599	0.02249
1722.28734	0.02297
1720.35869	0.02351
1718.43004	0.02398
1716.50138	0.02486
1714.57273	0.02619
1712.64408	0.02759
1710.71542	0.02902
1708.78677	0.03064
1706.85812	0.03265
1704.92946	0.03516
1703.00081	0.03802
1701.07216	0.04099
1699.14350	0.04450
1697.21485	0.04813
1695.28620	0.05179
1693.35754	0.05579
1691.42889	0.05957
1689.50024	0.06335
1687.57158	0.06730
1685.64293	0.07122
1683.71428	0.07571
1681.78562	0.08077
1679.85697	0.08570
1677.92832	0.09063
1675.99966	0.09579
1674.07101	0.10141
1672.14236	0.10718
1670.21370	0.11289
1668.28505	0.11882
1666.35640	0.12480
1664.42774	0.13049
1662.49909	0.13604
1660.57044	0.14137
1658.64178	0.14609
1656.71313	0.15009
1654.78448	0.15336
1652.85583	0.15666
1650.92717	0.16030
1648.99852	0.16312
1647.06987	0.16517
1645.14121	0.16734
1643.21256	0.16956
1641.28391	0.17149
1639.35525	0.17321
1637.42660	0.17473
1635.49795	0.17612
1633.56929	0.17733
1631.64064	0.17774
1629.71199	0.17716
1627.78333	0.17567
1625.85468	0.17311
1623.92603	0.16948
1621.99737	0.16521
1620.06872	0.16038
1618.14007	0.15482
1616.21141	0.14905
1614.28276	0.14352
1612.35411	0.13793
1610.42545	0.13230
1608.49680	0.12683
1606.56815	0.12170
1604.63949	0.11693
1602.71084	0.11245
1600.78219	0.10832
1598.85353	0.10461
1596.92488	0.10134
1594.99623	0.09856
1593.06757	0.09626
1591.13892	0.09436
1589.21027	0.09289
1587.28161	0.09193
1585.35296	0.09143
1583.42431	0.09133
1581.49566	0.09169
1579.56700	0.09248
1577.63835	0.09353
1575.70970	0.09514
1573.78104	0.09753
1571.85239	0.10018
1569.92374	0.10312
1567.99508	0.10650
1566.06643	0.11004
1564.13778	0.11369
1562.20912	0.11725
1560.28047	0.12049
1558.35182	0.12401
1556.42316	0.12768
1554.49451	0.13076
1552.56586	0.13342
1550.63720	0.13569
1548.70855	0.13752
1546.77990	0.13893
1544.85124	0.13994
1542.92259	0.14053
1540.99394	0.14072
1539.06528	0.14094
1537.13663	0.14121
1535.20798	0.14097
1533.27932	0.14034
1531.35067	0.13962
1529.42202	0.13861
1527.49336	0.13741
1525.56471	0.13621
1523.63606	0.13484
1521.70740	0.13317
1519.77875	0.13154
1517.85010	0.12975
1515.92145	0.12761
1513.99279	0.12513
1512.06414	0.12229
1510.13549	0.11909
1508.20683	0.11537
1506.27818	0.11156
1504.34953	0.10817
1502.42087	0.10474
1500.49222	0.10111
1498.56357	0.09744
1496.63491	0.09377
1494.70626	0.09027
1492.77761	0.08686
1490.84895	0.08357
1488.92030	0.08073
1486.99165	0.07847
1485.06299	0.07676
1483.13434	0.07557
1481.20569	0.07486
1479.27703	0.07464
1477.34838	0.07488
1475.41973	0.07554
1473.49107	0.07662
1471.56242	0.07826
1469.63377	0.08020
1467.70511	0.08206
1465.77646	0.08388
1463.84781	0.08597
1461.91915	0.08827
1459.99050	0.09051
1458.06185	0.09264
1456.13319	0.09484
1454.20454	0.09679
1452.27589	0.09784
1450.34724	0.09812
1448.41858	0.09795
1446.48993	0.09751
1444.56128	0.09676
1442.63262	0.09574
1440.70397	0.09458
1438.77532	0.09310
1436.84666	0.09129
1434.91801	0.08942
1432.98936	0.08750
1431.06070	0.08566
1429.13205	0.08417
1427.20340	0.08308
1425.27474	0.08229
1423.34609	0.08180
1421.41744	0.08143
1419.48878	0.08118
1417.56013	0.08131
1415.63148	0.08160
1413.70282	0.08186
1411.77417	0.08217
1409.84552	0.08263
1407.91686	0.08324
1405.98821	0.08387
1404.05956	0.08441
1402.13090	0.08473
1400.20225	0.08475
1398.27360	0.08455
1396.34494	0.08417
1394.41629	0.08375
1392.48764	0.08346
1390.55898	0.08316
1388.63033	0.08274
1386.70168	0.08232
1384.77302	0.08191
1382.84437	0.08141
1380.91572	0.08086
1378.98707	0.08024
1377.05841	0.07946
1375.12976	0.07847
1373.20111	0.07734
1371.27245	0.07611
1369.34380	0.07479
1367.41515	0.07344
1365.48649	0.07205
1363.55784	0.07076
1361.62919	0.06978
1359.70053	0.06912
1357.77188	0.06874
1355.84323	0.06866
1353.91457	0.06889
1351.98592	0.06941
1350.05727	0.07027
1348.12861	0.07137
1346.19996	0.07256
1344.27131	0.07374
1342.34265	0.07482
1340.41400	0.07572
1338.48535	0.07639
1336.55669	0.07670
1334.62804	0.07658
1332.69939	0.07604
1330.77073	0.07510
1328.84208	0.07392
1326.91343	0.07276
1324.98477	0.07182
1323.05612	0.07120
1321.12747	0.07081
1319.19881	0.07046
1317.27016	0.07010
1315.34151	0.06970
1313.41286	0.06920
1311.48420	0.06860
1309.55555	0.06801
1307.62690	0.06756
1305.69824	0.06724
1303.76959	0.06689
1301.84094	0.06649
1299.91228	0.06616
1297.98363	0.06599
1296.05498	0.06596
1294.12632	0.06608
1292.19767	0.06641
1290.26902	0.06703
1288.34036	0.06784
1286.41171	0.06873
1284.48306	0.06953
1282.55440	0.07011
1280.62575	0.07039
1278.69710	0.07041
1276.76844	0.07031
1274.83979	0.07024
1272.91114	0.07027
1270.98248	0.07033
1269.05383	0.07047
1267.12518	0.07086
1265.19652	0.07153
1263.26787	0.07232
1261.33922	0.07316
1259.41056	0.07408
1257.48191	0.07510
1255.55326	0.07619
1253.62460	0.07734
1251.69595	0.07867
1249.76730	0.08015
1247.83864	0.08161
1245.90999	0.08302
1243.98134	0.08445
1242.05269	0.08585
1240.12403	0.08701
1238.19538	0.08787
1236.26673	0.08841
1234.33807	0.08850
1232.40942	0.08807
1230.48077	0.08724
1228.55211	0.08607
1226.62346	0.08456
1224.69481	0.08273
1222.76615	0.08075
1220.83750	0.07881
1218.90885	0.07711
1216.98019	0.07572
1215.05154	0.07466
1213.12289	0.07402
1211.19423	0.07386
1209.26558	0.07409
1207.33693	0.07447
1205.40827	0.07481
1203.47962	0.07491
1201.55097	0.07462
1199.62231	0.07395
1197.69366	0.07285
1195.76501	0.07157
1193.83635	0.07027
1191.90770	0.06882
1189.97905	0.06725
1188.05039	0.06588
1186.12174	0.06486
1184.19309	0.06398
1182.26443	0.06313
1180.33578	0.06243
1178.40713	0.06191
1176.47848	0.06150
1174.54982	0.06121
1172.62117	0.06105
1170.69252	0.06092
1168.76386	0.06073
1166.83521	0.06055
1164.90656	0.06049
1162.97790	0.06051
1161.04925	0.06034
1159.12060	0.05984
1157.19194	0.05913
1155.26329	0.05824
1153.33464	0.05719
1151.40598	0.05608
1149.47733	0.05496
1147.54868	0.05386
1145.62002	0.05295
1143.69137	0.05225
1141.76272	0.05165
1139.83406	0.05100
1137.90541	0.05031
1135.97676	0.04967
1134.04810	0.04917
1132.11945	0.04887
1130.19080	0.04870
1128.26214	0.04856
1126.33349	0.04839
1124.40484	0.04817
1122.47618	0.04790
1120.54753	0.04765
1118.61888	0.04746
1116.69022	0.04736
1114.76157	0.04736
1112.83292	0.04744
1110.90427	0.04763
1108.97561	0.04789
1107.04696	0.04817
1105.11831	0.04846
1103.18965	0.04882
1101.26100	0.04924
1099.33235	0.04971
1097.40369	0.05022
1095.47504	0.05083
1093.54639	0.05169
1091.61773	0.05284
1089.68908	0.05415
1087.76043	0.05553
1085.83177	0.05694
1083.90312	0.05821
1081.97447	0.05913
1080.04581	0.05961
1078.11716	0.05961
1076.18851	0.05924
1074.25985	0.05869
1072.33120	0.05811
1070.40255	0.05766
1068.47389	0.05740
1066.54524	0.05726
1064.61659	0.05715
1062.68793	0.05698
1060.75928	0.05669
1058.83063	0.05628
1056.90197	0.05578
1054.97332	0.05524
1053.04467	0.05471
1051.11601	0.05415
1049.18736	0.05362
1047.25871	0.05320
1045.33005	0.05295
1043.40140	0.05281
1041.47275	0.05269
1039.54410	0.05268
1037.61544	0.05295
1035.68679	0.05342
1033.75814	0.05390
1031.82948	0.05413
1029.90083	0.05386
1027.97218	0.05307
1026.04352	0.05202
1024.11487	0.05093
1022.18622	0.04997
1020.25756	0.04916
1018.32891	0.04845
1016.40026	0.04782
1014.47160	0.04723
1012.54295	0.04663
1010.61430	0.04601
1008.68564	0.04535
1006.75699	0.04462
1004.82834	0.04395
1002.89968	0.04347
1000.97103	0.04305
999.04238	0.04246
997.11372	0.04170
995.18507	0.04101
993.25642	0.04056
991.32776	0.04030
989.39911	0.04008
987.47046	0.03974
985.54180	0.03929
983.61315	0.03896
981.68450	0.03892
979.75584	0.03902
977.82719	0.03917
975.89854	0.03940
973.96989	0.03957
972.04123	0.03946
970.11258	0.03911
968.18393	0.03874
966.25527	0.03834
964.32662	0.03787
962.39797	0.03751
960.46931	0.03726
958.54066	0.03705
956.61201	0.03690
954.68335	0.03670
952.75470	0.03639
950.82605	0.03609
948.89739	0.03594
946.96874	0.03600
945.04009	0.03625
943.11143	0.03658
941.18278	0.03678
939.25413	0.03675
937.32547	0.03663
935.39682	0.03657
933.46817	0.03642
931.53951	0.03618
929.61086	0.03601
927.68221	0.03595
925.75355	0.03598
923.82490	0.03613
921.89625	0.03620
919.96759	0.03599
918.03894	0.03565
916.11029	0.03539
914.18163	0.03520
912.25298	0.03507
910.32433	0.03490
908.39567	0.03468
906.46702	0.03448
904.53837	0.03434
902.60972	0.03424
900.68106	0.03406
898.75241	0.03386
896.82376	0.03373
894.89510	0.03350
892.96645	0.03320
891.03780	0.03309
889.10914	0.03313
887.18049	0.03318
885.25184	0.03325
883.32318	0.03341
881.39453	0.03356
879.46588	0.03359
877.53722	0.03359
875.60857	0.03360
873.67992	0.03354
871.75126	0.03350
869.82261	0.03349
867.89396	0.03333
865.96530	0.03315
864.03665	0.03319
862.10800	0.03319
860.17934	0.03302
858.25069	0.03299
856.32204	0.03313
854.39338	0.03327
852.46473	0.03340
850.53608	0.03347
848.60742	0.03347
846.67877	0.03345
844.75012	0.03338
842.82146	0.03320
840.89281	0.03306
838.96416	0.03309
837.03551	0.03315
835.10685	0.03309
833.17820	0.03293
831.24955	0.03284
829.32089	0.03294
827.39224	0.03317
825.46359	0.03352
823.53493	0.03400
821.60628	0.03437
819.67763	0.03449
817.74897	0.03457
815.82032	0.03475
813.89167	0.03493
811.96301	0.03517
810.03436	0.03554
808.10571	0.03583
806.17705	0.03593
804.24840	0.03592
802.31975	0.03581
800.39109	0.03581
798.46244	0.03614
796.53379	0.03660
794.60513	0.03692
792.67648	0.03710
790.74783	0.03729
788.81917	0.03766
786.89052	0.03818
784.96187	0.03855
783.03321	0.03856
781.10456	0.03849
779.17591	0.03869
777.24725	0.03903
775.31860	0.03934
773.38995	0.03972
771.46130	0.04013
769.53264	0.04045
767.60399	0.04073
765.67534	0.04096
763.74668	0.04115
761.81803	0.04137
759.88938	0.04164
757.96072	0.04194
756.03207	0.04225
754.10342	0.04250
752.17476	0.04276
750.24611	0.04314
748.31746	0.04355
746.38880	0.04396
744.46015	0.04430
742.53150	0.04440
740.60284	0.04445
738.67419	0.04476
736.74554	0.04525
734.81688	0.04568
732.88823	0.04600
730.95958	0.04629
729.03092	0.04657
727.10227	0.04679
725.17362	0.04704
723.24496	0.04734
721.31631	0.04794
719.38766	0.04853
717.45900	0.04903
715.53035	0.04936
713.60170	0.04954
711.67304	0.04969
709.74439	0.04993
707.81574	0.05032
705.88708	0.05076
703.95843	0.05115
702.02978	0.05149
700.10113	0.05175
698.17247	0.05190
696.24382	0.05198
694.31517	0.05210
692.38651	0.05232
690.45786	0.05255
688.52921	0.05274
686.60055	0.05299
684.67190	0.05329
682.74325	0.05353
680.81459	0.05373
678.88594	0.05389
676.95729	0.05398
675.02863	0.05411
673.09998	0.05437
671.17133	0.05468
669.24267	0.05496
667.31402	0.05525
665.38537	0.05537
663.45671	0.05550
661.52806	0.05573
659.59941	0.05590
657.67075	0.05590
655.74210	0.05594
653.81345	0.05624
651.88479	0.05664
649.95614	0.05677
648.02749	0.05659
646.09883	0.05636
644.17018	0.05626
642.24153	0.05631
640.31287	0.05648
638.38422	0.05669
636.45557	0.05684
634.52692	0.05688
632.59826	0.05684
630.66961	0.05698
628.74096	0.05765
626.81230	0.05676
624.88365	0.05548
622.95500	0.05546
621.02634	0.05702
619.09769	0.05694
617.16904	0.05404
615.24038	0.05146
613.31173	0.05091
611.38308	0.05172
609.45442	0.05394
607.52577	0.05550
605.59712	0.05462
603.66846	0.05412
601.73981	0.05523
599.81116	0.05597
597.88250	0.05569
595.95385	0.05548
594.02520	0.05596
592.09654	0.05673
590.16789	0.05725
588.23924	0.05734
586.31058	0.05714
584.38193	0.05696
582.45328	0.05691
580.52462	0.05693
578.59597	0.05707
576.66732	0.05737
574.73866	0.05771
572.81001	0.05797
570.88136	0.05810
568.95270	0.05809
567.02405	0.05788
565.09540	0.05761
563.16675	0.05766
561.23809	0.05802
559.30944	0.05815
557.38079	0.05794
555.45213	0.05780
553.52348	0.05791
551.59483	0.05804
549.66617	0.05799
547.73752	0.05779
545.80887	0.05753
543.88021	0.05721
541.95156	0.05694
540.02291	0.05674
538.09425	0.05664
536.16560	0.05664
534.23695	0.05669
532.30829	0.05684
530.37964	0.05692
528.45099	0.05673
526.52233	0.05646
524.59368	0.05618
522.66503	0.05578
520.73637	0.05546
518.80772	0.05519
516.87907	0.05479
514.95041	0.05444
513.02176	0.05424
511.09311	0.05406
509.16445	0.05390
507.23580	0.05381
505.30715	0.05364
503.37849	0.05326
501.44984	0.05280
499.52119	0.05234
497.59254	0.05188
495.66388	0.05163
493.73523	0.05153
491.80658	0.05115
489.87792	0.05054
487.94927	0.05011
486.02062	0.04985
484.09196	0.04956
482.16331	0.04925
480.23466	0.04898
478.30600	0.04870
476.37735	0.04832
474.44870	0.04781
472.52004	0.04730
470.59139	0.04694
468.66274	0.04669
466.73408	0.04650
464.80543	0.04632
462.87678	0.04603
460.94812	0.04559
459.01947	0.04504
457.09082	0.04451
455.16216	0.04407
453.23351	0.04369
451.30486	0.04335
449.37620	0.04305
447.44755	0.04284
445.51890	0.04262
443.59024	0.04235
441.66159	0.04203
439.73294	0.04170
437.80428	0.04141
435.87563	0.04119
433.94698	0.04097
432.01833	0.04066
430.08967	0.04030
428.16102	0.04002
426.23237	0.03984
424.30371	0.03960
422.37506	0.03920
420.44641	0.03881
418.51775	0.03858
416.58910	0.03845
414.66045	0.03822
412.73179	0.03792
410.80314	0.03766
408.87449	0.03751
406.94583	0.03738
405.01718	0.03719
403.08853	0.03692
401.15987	0.03656
399.23122	0.03610
