3997.45528	0.05983
3996.16951	0.05944
3994.88374	0.05882
3993.59798	0.05821
3992.31221	0.05798
3991.02644	0.05823
3989.74067	0.05868
3988.45490	0.05905
3987.16913	0.05922
3985.88336	0.05912
3984.59759	0.05876
3983.31183	0.05828
3982.02606	0.05799
3980.74029	0.05804
3979.45452	0.05827
3978.16875	0.05844
3976.88298	0.05848
3975.59721	0.05848
3974.31144	0.05846
3973.02567	0.05831
3971.73991	0.05802
3970.45414	0.05777
3969.16837	0.05777
3967.88260	0.05815
3966.59683	0.05880
3965.31106	0.05939
3964.02529	0.05960
3962.73952	0.05925
3961.45376	0.05850
3960.16799	0.05764
3958.88222	0.05699
3957.59645	0.05674
3956.31068	0.05692
3955.02491	0.05735
3953.73914	0.05779
3952.45337	0.05811
3951.16760	0.05831
3949.88184	0.05836
3948.59607	0.05818
3947.31030	0.05785
3946.02453	0.05764
3944.73876	0.05777
3943.45299	0.05808
3942.16722	0.05811
3940.88145	0.05763
3939.59569	0.05697
3938.30992	0.05671
3937.02415	0.05704
3935.73838	0.05752
3934.45261	0.05768
3933.16684	0.05750
3931.88107	0.05731
3930.59530	0.05724
3929.30953	0.05708
3928.02377	0.05658
3926.73800	0.05592
3925.45223	0.05549
3924.16646	0.05548
3922.88069	0.05570
3921.59492	0.05585
3920.30915	0.05579
3919.02338	0.05544
3917.73762	0.05481
3916.45185	0.05405
3915.16608	0.05353
3913.88031	0.05352
3912.59454	0.05394
3911.30877	0.05449
3910.02300	0.05490
3908.73723	0.05499
3907.45146	0.05468
3906.16570	0.05412
3904.87993	0.05372
3903.59416	0.05382
3902.30839	0.05431
3901.02262	0.05476
3899.73685	0.05490
3898.45108	0.05477
3897.16531	0.05456
3895.87955	0.05438
3894.59378	0.05428
3893.30801	0.05432
3892.02224	0.05447
3890.73647	0.05467
3889.45070	0.05483
3888.16493	0.05491
3886.87916	0.05491
3885.59339	0.05492
3884.30763	0.05502
3883.02186	0.05526
3881.73609	0.05556
3880.45032	0.05575
3879.16455	0.05568
3877.87878	0.05535
3876.59301	0.05502
3875.30724	0.05495
3874.02148	0.05512
3872.73571	0.05522
3871.44994	0.05512
3870.16417	0.05512
3868.87840	0.05558
3867.59263	0.05636
3866.30686	0.05689
3865.02109	0.05680
3863.73532	0.05627
3862.44956	0.05577
3861.16379	0.05555
3859.87802	0.05547
3858.59225	0.05526
3857.30648	0.05482
3856.02071	0.05430
3854.73494	0.05393
3853.44917	0.05378
3852.16341	0.05372
3850.87764	0.05360
3849.59187	0.05343
3848.30610	0.05336
3847.02033	0.05352
3845.73456	0.05384
3844.44879	0.05411
3843.16302	0.05414
3841.87725	0.05397
3840.59149	0.05380
3839.30572	0.05380
3838.01995	0.05391
3836.73418	0.05385
3835.44841	0.05346
3834.16264	0.05286
3832.87687	0.05235
3831.59110	0.05211
3830.30534	0.05213
3829.01957	0.05235
3827.73380	0.05274
3826.44803	0.05329
3825.16226	0.05394
3823.87649	0.05455
3822.59072	0.05490
3821.30495	0.05478
3820.01918	0.05425
3818.73342	0.05365
3817.44765	0.05330
3816.16188	0.05334
3814.87611	0.05363
3813.59034	0.05391
3812.30457	0.05397
3811.01880	0.05376
3809.73303	0.05336
3808.44726	0.05281
3807.16150	0.05223
3805.87573	0.05188
3804.58996	0.05199
3803.30419	0.05248
3802.01842	0.05297
3800.73265	0.05317
3799.44688	0.05298
3798.16111	0.05241
3796.87535	0.05147
3795.58958	0.05040
3794.30381	0.04970
3793.01804	0.04972
3791.73227	0.05026
3790.44650	0.05074
3789.16073	0.05076
3787.87496	0.05043
3786.58919	0.05014
3785.30343	0.05013
3784.01766	0.05035
3782.73189	0.05070
3781.44612	0.05112
3780.16035	0.05152
3778.87458	0.05178
3777.58881	0.05179
3776.30304	0.05153
3775.01728	0.05103
3773.73151	0.05038
3772.44574	0.04978
3771.15997	0.04954
3769.87420	0.04983
3768.58843	0.05048
3767.30266	0.05104
3766.01689	0.05115
3764.73112	0.05077
3763.44536	0.05016
3762.15959	0.04964
3760.87382	0.04940
3759.58805	0.04939
3758.30228	0.04939
3757.01651	0.04916
3755.73074	0.04873
3754.44497	0.04837
3753.15921	0.04833
3751.87344	0.04859
3750.58767	0.04899
3749.30190	0.04946
3748.01613	0.05001
3746.73036	0.05051
3745.44459	0.05071
3744.15882	0.05046
3742.87305	0.04996
3741.58729	0.04955
3740.30152	0.04947
3739.01575	0.04967
3737.72998	0.04991
3736.44421	0.04979
3735.15844	0.04903
3733.87267	0.04777
3732.58690	0.04656
3731.30114	0.04602
3730.01537	0.04636
3728.72960	0.04726
3727.44383	0.04817
3726.15806	0.04867
3724.87229	0.04871
3723.58652	0.04852
3722.30075	0.04832
3721.01498	0.04821
3719.72922	0.04818
3718.44345	0.04813
3717.15768	0.04796
3715.87191	0.04760
3714.58614	0.04693
3713.30037	0.04592
3712.01460	0.04476
3710.72883	0.04393
3709.44307	0.04381
3708.15730	0.04429
3706.87153	0.04494
3705.58576	0.04544
3704.29999	0.04588
3703.01422	0.04651
3701.72845	0.04739
3700.44268	0.04826
3699.15691	0.04881
3697.87115	0.04894
3696.58538	0.04883
3695.29961	0.04866
3694.01384	0.04834
3692.72807	0.04766
3691.44230	0.04671
3690.15653	0.04593
3688.87076	0.04573
3687.58500	0.04601
3686.29923	0.04630
3685.01346	0.04625
3683.72769	0.04594
3682.44192	0.04573
3681.15615	0.04594
3679.87038	0.04663
3678.58461	0.04759
3677.29884	0.04841
3676.01308	0.04876
3674.72731	0.04860
3673.44154	0.04824
3672.15577	0.04806
3670.87000	0.04824
3669.58423	0.04864
3668.29846	0.04897
3667.01269	0.04902
3665.72693	0.04884
3664.44116	0.04865
3663.15539	0.04863
3661.86962	0.04879
3660.58385	0.04891
3659.29808	0.04878
3658.01231	0.04837
3656.72654	0.04795
3655.44077	0.04790
3654.15501	0.04841
3652.86924	0.04927
3651.58347	0.05001
3650.29770	0.05027
3649.01193	0.05004
3647.72616	0.04970
3646.44039	0.04961
3645.15462	0.04987
3643.86886	0.05035
3642.58309	0.05091
3641.29732	0.05152
3640.01155	0.05216
3638.72578	0.05275
3637.44001	0.05317
3636.15424	0.05333
3634.86847	0.05322
3633.58270	0.05286
3632.29694	0.05243
3631.01117	0.05228
3629.72540	0.05274
3628.43963	0.05385
3627.15386	0.05529
3625.86809	0.05646
3624.58232	0.05693
3623.29655	0.05670
3622.01079	0.05614
3620.72502	0.05568
3619.43925	0.05555
3618.15348	0.05570
3616.86771	0.05601
3615.58194	0.05643
3614.29617	0.05700
3613.01040	0.05774
3611.72463	0.05851
3610.43887	0.05905
3609.15310	0.05931
3607.86733	0.05962
3606.58156	0.06041
3605.29579	0.06174
3604.01002	0.06318
3602.72425	0.06425
3601.43848	0.06475
3600.15272	0.06485
3598.86695	0.06485
3597.58118	0.06504
3596.29541	0.06557
3595.00964	0.06627
3593.72387	0.06683
3592.43810	0.06710
3591.15233	0.06726
3589.86656	0.06758
3588.58080	0.06801
3587.29503	0.06826
3586.00926	0.06813
3584.72349	0.06776
3583.43772	0.06764
3582.15195	0.06816
3580.86618	0.06929
3579.58041	0.07060
3578.29464	0.07163
3577.00888	0.07223
3575.72311	0.07263
3574.43734	0.07311
3573.15157	0.07376
3571.86580	0.07444
3570.58003	0.07491
3569.29426	0.07510
3568.00849	0.07521
3566.72273	0.07560
3565.43696	0.07637
3564.15119	0.07725
3562.86542	0.07784
3561.57965	0.07813
3560.29388	0.07846
3559.00811	0.07921
3557.72234	0.08038
3556.43657	0.08163
3555.15081	0.08256
3553.86504	0.08298
3552.57927	0.08300
3551.29350	0.08291
3550.00773	0.08307
3548.72196	0.08362
3547.43619	0.08440
3546.15042	0.08508
3544.86466	0.08548
3543.57889	0.08569
3542.29312	0.08598
3541.00735	0.08657
3539.72158	0.08744
3538.43581	0.08834
3537.15004	0.08904
3535.86427	0.08954
3534.57850	0.09005
3533.29274	0.09066
3532.00697	0.09128
3530.72120	0.09185
3529.43543	0.09250
3528.14966	0.09336
3526.86389	0.09437
3525.57812	0.09527
3524.29235	0.09590
3523.00659	0.09635
3521.72082	0.09679
3520.43505	0.09724
3519.14928	0.09764
3517.86351	0.09802
3516.57774	0.09844
3515.29197	0.09897
3514.00620	0.09957
3512.72043	0.10011
3511.43467	0.10042
3510.14890	0.10051
3508.86313	0.10062
3507.57736	0.10099
3506.29159	0.10164
3505.00582	0.10235
3503.72005	0.10299
3502.43428	0.10356
3501.14852	0.10412
3499.86275	0.10462
3498.57698	0.10500
3497.29121	0.10523
3496.00544	0.10542
3494.71967	0.10573
3493.43390	0.10629
3492.14813	0.10704
3490.86236	0.10781
3489.57660	0.10840
3488.29083	0.10867
3487.00506	0.10861
3485.71929	0.10839
3484.43352	0.10838
3483.14775	0.10889
3481.86198	0.10991
3480.57621	0.11109
3479.29045	0.11198
3478.00468	0.11244
3476.71891	0.11265
3475.43314	0.11288
3474.14737	0.11316
3472.86160	0.11338
3471.57583	0.11356
3470.29006	0.11385
3469.00429	0.11439
3467.71853	0.11514
3466.43276	0.11595
3465.14699	0.11667
3463.86122	0.11720
3462.57545	0.11757
3461.28968	0.11785
3460.00391	0.11806
3458.71814	0.11824
3457.43238	0.11848
3456.14661	0.11890
3454.86084	0.11947
3453.57507	0.11999
3452.28930	0.12032
3451.00353	0.12048
3449.71776	0.12064
3448.43199	0.12092
3447.14622	0.12132
3445.86046	0.12177
3444.57469	0.12221
3443.28892	0.12267
3442.00315	0.12316
3440.71738	0.12360
3439.43161	0.12381
3438.14584	0.12380
3436.86007	0.12383
3435.57431	0.12419
3434.28854	0.12490
3433.00277	0.12573
3431.71700	0.12648
3430.43123	0.12711
3429.14546	0.12755
3427.85969	0.12768
3426.57392	0.12753
3425.28815	0.12739
3424.00239	0.12761
3422.71662	0.12828
3421.43085	0.12913
3420.14508	0.12976
3418.85931	0.13000
3417.57354	0.12995
3416.28777	0.12990
3415.00200	0.13011
3413.71624	0.13065
3412.43047	0.13138
3411.14470	0.13212
3409.85893	0.13276
3408.57316	0.13334
3407.28739	0.13396
3406.00162	0.13467
3404.71585	0.13542
3403.43008	0.13605
3402.14432	0.13633
3400.85855	0.13619
3399.57278	0.13580
3398.28701	0.13535
3397.00124	0.13516
3395.71547	0.13543
3394.42970	0.13616
3393.14393	0.13722
3391.85817	0.13833
3390.57240	0.13919
3389.28663	0.13952
3388.00086	0.13936
3386.71509	0.13909
3385.42932	0.13919
3384.14355	0.13981
3382.85778	0.14068
3381.57201	0.14147
3380.28625	0.14214
3379.00048	0.14277
3377.71471	0.14340
3376.42894	0.14396
3375.14317	0.14444
3373.85740	0.14503
3372.57163	0.14588
3371.28586	0.14687
3370.00010	0.14772
3368.71433	0.14830
3367.42856	0.14877
3366.14279	0.14943
3364.85702	0.15037
3363.57125	0.15139
3362.28548	0.15223
3360.99971	0.15286
3359.71394	0.15352
3358.42818	0.15442
3357.14241	0.15556
3355.85664	0.15673
3354.57087	0.15779
3353.28510	0.15871
3351.99933	0.15947
3350.71356	0.16003
3349.42779	0.16050
3348.14202	0.16108
3346.85626	0.16185
3345.57049	0.16270
3344.28472	0.16345
3342.99895	0.16409
3341.71318	0.16477
3340.42741	0.16565
3339.14164	0.16670
3337.85587	0.16768
3336.57011	0.16843
3335.28434	0.16903
3333.99857	0.16970
3332.71280	0.17047
3331.42703	0.17110
3330.14126	0.17140
3328.85549	0.17144
3327.56972	0.17151
3326.28395	0.17191
3324.99819	0.17266
3323.71242	0.17360
3322.42665	0.17453
3321.14088	0.17535
3319.85511	0.17606
3318.56934	0.17672
3317.28357	0.17733
3315.99780	0.17789
3314.71204	0.17841
3313.42627	0.17896
3312.14050	0.17962
3310.85473	0.18036
3309.56896	0.18105
3308.28319	0.18150
3306.99742	0.18167
3305.71165	0.18164
3304.42588	0.18159
3303.14012	0.18162
3301.85435	0.18173
3300.56858	0.18188
3299.28281	0.18205
3297.99704	0.18231
3296.71127	0.18264
3295.42550	0.18296
3294.13973	0.18320
3292.85397	0.18337
3291.56820	0.18347
3290.28243	0.18343
3288.99666	0.18319
3287.71089	0.18287
3286.42512	0.18267
3285.13935	0.18267
3283.85358	0.18269
3282.56781	0.18255
3281.28205	0.18225
3279.99628	0.18189
3278.71051	0.18161
3277.42474	0.18151
3276.13897	0.18162
3274.85320	0.18177
3273.56743	0.18169
3272.28166	0.18125
3270.99590	0.18057
3269.71013	0.17996
3268.42436	0.17956
3267.13859	0.17929
3265.85282	0.17896
3264.56705	0.17848
3263.28128	0.17791
3261.99551	0.17741
3260.70974	0.17711
3259.42398	0.17694
3258.13821	0.17665
3256.85244	0.17603
3255.56667	0.17518
3254.28090	0.17438
3252.99513	0.17376
3251.70936	0.17325
3250.42359	0.17280
3249.13783	0.17248
3247.85206	0.17233
3246.56629	0.17220
3245.28052	0.17191
3243.99475	0.17141
3242.70898	0.17079
3241.42321	0.17015
3240.13744	0.16958
3238.85167	0.16915
3237.56591	0.16891
3236.28014	0.16876
3234.99437	0.16859
3233.70860	0.16833
3232.42283	0.16797
3231.13706	0.16754
3229.85129	0.16703
3228.56552	0.16642
3227.27976	0.16572
3225.99399	0.16496
3224.70822	0.16426
3223.42245	0.16379
3222.13668	0.16365
3220.85091	0.16369
3219.56514	0.16367
3218.27937	0.16344
3216.99360	0.16303
3215.70784	0.16254
3214.42207	0.16208
3213.13630	0.16170
3211.85053	0.16138
3210.56476	0.16109
3209.27899	0.16090
3207.99322	0.16089
3206.70745	0.16103
3205.42169	0.16112
3204.13592	0.16095
3202.85015	0.16040
3201.56438	0.15954
3200.27861	0.15852
3198.99284	0.15758
3197.70707	0.15694
3196.42130	0.15672
3195.13553	0.15677
3193.84977	0.15678
3192.56400	0.15645
3191.27823	0.15572
3189.99246	0.15475
3188.70669	0.15381
3187.42092	0.15307
3186.13515	0.15253
3184.84938	0.15205
3183.56362	0.15148
3182.27785	0.15078
3180.99208	0.15008
3179.70631	0.14949
3178.42054	0.14891
3177.13477	0.14817
3175.84900	0.14721
3174.56323	0.14619
3173.27746	0.14538
3171.99170	0.14500
3170.70593	0.14505
3169.42016	0.14525
3168.13439	0.14509
3166.84862	0.14432
3165.56285	0.14314
3164.27708	0.14211
3162.99131	0.14161
3161.70555	0.14156
3160.41978	0.14155
3159.13401	0.14126
3157.84824	0.14060
3156.56247	0.13966
3155.27670	0.13859
3153.99093	0.13756
3152.70516	0.13667
3151.41939	0.13590
3150.13363	0.13515
3148.84786	0.13442
3147.56209	0.13379
3146.27632	0.13337
3144.99055	0.13311
3143.70478	0.13278
3142.41901	0.13215
3141.13324	0.13123
3139.84748	0.13024
3138.56171	0.12944
3137.27594	0.12895
3135.99017	0.12871
3134.70440	0.12857
3133.41863	0.12836
3132.13286	0.12800
3130.84709	0.12749
3129.56132	0.12696
3128.27556	0.12649
3126.98979	0.12609
3125.70402	0.12575
3124.41825	0.12553
3123.13248	0.12554
3121.84671	0.12569
3120.56094	0.12574
3119.27517	0.12552
3117.98940	0.12515
3116.70364	0.12487
3115.41787	0.12476
3114.13210	0.12466
3112.84633	0.12444
3111.56056	0.12413
3110.27479	0.12388
3108.98902	0.12382
3107.70325	0.12397
3106.41749	0.12431
3105.13172	0.12475
3103.84595	0.12522
3102.56018	0.12560
3101.27441	0.12582
3099.98864	0.12597
3098.70287	0.12616
3097.41710	0.12643
3096.13133	0.12668
3094.84557	0.12682
3093.55980	0.12687
3092.27403	0.12686
3090.98826	0.12683
3089.70249	0.12677
3088.41672	0.12666
3087.13095	0.12653
3085.84518	0.12646
3084.55942	0.12657
3083.27365	0.12693
3081.98788	0.12747
3080.70211	0.12801
3079.41634	0.12840
3078.13057	0.12862
3076.84480	0.12872
3075.55903	0.12870
3074.27326	0.12853
3072.98750	0.12823
3071.70173	0.12792
3070.41596	0.12774
3069.13019	0.12773
3067.84442	0.12784
3066.55865	0.12795
3065.27288	0.12799
3063.98711	0.12783
3062.70135	0.12742
3061.41558	0.12676
3060.12981	0.12592
3058.84404	0.12503
3057.55827	0.12424
3056.27250	0.12365
3054.98673	0.12327
3053.70096	0.12312
3052.41519	0.12314
3051.12943	0.12314
3049.84366	0.12287
3048.55789	0.12216
3047.27212	0.12121
3045.98635	0.12036
3044.70058	0.11987
3043.41481	0.11965
3042.12904	0.11942
3040.84328	0.11899
3039.55751	0.11835
3038.27174	0.11755
3036.98597	0.11658
3035.70020	0.11551
3034.41443	0.11457
3033.12866	0.11400
3031.84289	0.11378
3030.55712	0.11366
3029.27136	0.11336
3027.98559	0.11282
3026.69982	0.11222
3025.41405	0.11175
3024.12828	0.11147
3022.84251	0.11122
3021.55674	0.11082
3020.27097	0.11021
3018.98521	0.10949
3017.69944	0.10880
3016.41367	0.10817
3015.12790	0.10760
3013.84213	0.10716
3012.55636	0.10692
3011.27059	0.10685
3009.98482	0.10678
3008.69905	0.10661
3007.41329	0.10641
3006.12752	0.10623
3004.84175	0.10606
3003.55598	0.10584
3002.27021	0.10561
3000.98444	0.10548
2999.69867	0.10556
2998.41290	0.10586
2997.12714	0.10627
2995.84137	0.10663
2994.55560	0.10680
2993.26983	0.10681
2991.98406	0.10681
2990.69829	0.10698
2989.41252	0.10741
2988.12675	0.10801
2986.84098	0.10862
2985.55522	0.10914
2984.26945	0.10955
2982.98368	0.10992
2981.69791	0.11028
2980.41214	0.11060
2979.12637	0.11088
2977.84060	0.11115
2976.55483	0.11147
2975.26907	0.11178
2973.98330	0.11198
2972.69753	0.11215
2971.41176	0.11254
2970.12599	0.11322
2968.84022	0.11401
2967.55445	0.11465
2966.26868	0.11510
2964.98291	0.11548
2963.69715	0.11580
2962.41138	0.11601
2961.12561	0.11615
2959.83984	0.11635
2958.55407	0.11662
2957.26830	0.11684
2955.98253	0.11695
2954.69676	0.11707
2953.41100	0.11734
2952.12523	0.11767
2950.83946	0.11785
2949.55369	0.11775
2948.26792	0.11749
2946.98215	0.11727
2945.69638	0.11723
2944.41061	0.11728
2943.12484	0.11727
2941.83908	0.11712
2940.55331	0.11690
2939.26754	0.11675
2937.98177	0.11680
2936.69600	0.11700
2935.41023	0.11718
2934.12446	0.11719
2932.83869	0.11705
2931.55293	0.11698
2930.26716	0.11714
2928.98139	0.11746
2927.69562	0.11765
2926.40985	0.11753
2925.12408	0.11715
2923.83831	0.11664
2922.55254	0.11601
2921.26677	0.11524
2919.98101	0.11444
2918.69524	0.11382
2917.40947	0.11338
2916.12370	0.11293
2914.83793	0.11232
2913.55216	0.11158
2912.26639	0.11087
2910.98062	0.11026
2909.69486	0.10971
2908.40909	0.10922
2907.12332	0.10879
2905.83755	0.10837
2904.55178	0.10786
2903.26601	0.10720
2901.98024	0.10643
2900.69447	0.10566
2899.40870	0.10494
2898.12294	0.10433
2896.83717	0.10397
2895.55140	0.10390
2894.26563	0.10398
2892.97986	0.10393
2891.69409	0.10368
2890.40832	0.10338
2889.12255	0.10318
2887.83678	0.10314
2886.55102	0.10321
2885.26525	0.10336
2883.97948	0.10360
2882.69371	0.10381
2881.40794	0.10386
2880.12217	0.10369
2878.83640	0.10341
2877.55063	0.10317
2876.26487	0.10306
2874.97910	0.10297
2873.69333	0.10274
2872.40756	0.10234
2871.12179	0.10182
2869.83602	0.10126
2868.55025	0.10067
2867.26448	0.10001
2865.97871	0.09928
2864.69295	0.09859
2863.40718	0.09806
2862.12141	0.09777
2860.83564	0.09762
2859.54987	0.09741
2858.26410	0.09704
2856.97833	0.09655
2855.69256	0.09603
2854.40680	0.09552
2853.12103	0.09500
2851.83526	0.09450
2850.54949	0.09408
2849.26372	0.09375
2847.97795	0.09342
2846.69218	0.09298
2845.40641	0.09243
2844.12064	0.09192
2842.83488	0.09159
2841.54911	0.09143
2840.26334	0.09131
2838.97757	0.09108
2837.69180	0.09070
2836.40603	0.09024
2835.12026	0.08979
2833.83449	0.08940
2832.54873	0.08907
2831.26296	0.08875
2829.97719	0.08841
2828.69142	0.08809
2827.40565	0.08790
2826.11988	0.08783
2824.83411	0.08776
2823.54834	0.08755
2822.26257	0.08720
2820.97681	0.08682
2819.69104	0.08652
2818.40527	0.08629
2817.11950	0.08606
2815.83373	0.08576
2814.54796	0.08538
2813.26219	0.08497
2811.97642	0.08462
2810.69066	0.08440
2809.40489	0.08432
2808.11912	0.08434
2806.83335	0.08436
2805.54758	0.08426
2804.26181	0.08397
2802.97604	0.08355
2801.69027	0.08314
2800.40450	0.08286
2799.11874	0.08270
2797.83297	0.08252
2796.54720	0.08226
2795.26143	0.08195
2793.97566	0.08169
2792.68989	0.08152
2791.40412	0.08141
2790.11835	0.08130
2788.83259	0.08111
2787.54682	0.08081
2786.26105	0.08047
2784.97528	0.08031
2783.68951	0.08044
2782.40374	0.08077
2781.11797	0.08103
2779.83220	0.08097
2778.54643	0.08057
2777.26067	0.07998
2775.97490	0.07945
2774.68913	0.07913
2773.40336	0.07899
2772.11759	0.07888
2770.83182	0.07872
2769.54605	0.07853
2768.26028	0.07837
2766.97452	0.07826
2765.68875	0.07809
2764.40298	0.07778
2763.11721	0.07739
2761.83144	0.07710
2760.54567	0.07706
2759.25990	0.07720
2757.97413	0.07732
2756.68836	0.07727
2755.40260	0.07706
2754.11683	0.07680
2752.83106	0.07658
2751.54529	0.07643
2750.25952	0.07630
2748.97375	0.07610
2747.68798	0.07579
2746.40221	0.07548
2745.11645	0.07527
2743.83068	0.07521
2742.54491	0.07520
2741.25914	0.07511
2739.97337	0.07492
2738.68760	0.07469
2737.40183	0.07450
2736.11606	0.07429
2734.83029	0.07398
2733.54453	0.07360
2732.25876	0.07326
2730.97299	0.07310
2729.68722	0.07307
2728.40145	0.07305
2727.11568	0.07294
2725.82991	0.07275
2724.54414	0.07251
2723.25838	0.07226
2721.97261	0.07201
2720.68684	0.07176
2719.40107	0.07153
2718.11530	0.07133
2716.82953	0.07116
2715.54376	0.07104
2714.25799	0.07095
2712.97222	0.07090
2711.68646	0.07084
2710.40069	0.07078
2709.11492	0.07068
2707.82915	0.07055
2706.54338	0.07039
2705.25761	0.07023
2703.97184	0.07013
2702.68607	0.07007
2701.40031	0.06997
2700.11454	0.06976
2698.82877	0.06950
2697.54300	0.06925
2696.25723	0.06907
2694.97146	0.06900
2693.68569	0.06905
2692.39992	0.06916
2691.11415	0.06917
2689.82839	0.06899
2688.54262	0.06870
2687.25685	0.06847
2685.97108	0.06842
2684.68531	0.06849
2683.39954	0.06857
2682.11377	0.06855
2680.82800	0.06845
2679.54224	0.06839
2678.25647	0.06845
2676.97070	0.06859
2675.68493	0.06864
2674.39916	0.06850
2673.11339	0.06822
2671.82762	0.06797
2670.54185	0.06784
2669.25608	0.06779
2667.97032	0.06775
2666.68455	0.06773
2665.39878	0.06777
2664.11301	0.06786
2662.82724	0.06794
2661.54147	0.06794
2660.25570	0.06786
2658.96993	0.06770
2657.68417	0.06755
2656.39840	0.06741
2655.11263	0.06723
2653.82686	0.06693
2652.54109	0.06653
2651.25532	0.06616
2649.96955	0.06589
2648.68378	0.06564
2647.39801	0.06528
2646.11225	0.06482
2644.82648	0.06441
2643.54071	0.06416
2642.25494	0.06398
2640.96917	0.06374
2639.68340	0.06342
2638.39763	0.06313
2637.11186	0.06290
2635.82609	0.06276
2634.54033	0.06266
2633.25456	0.06253
2631.96879	0.06230
2630.68302	0.06201
2629.39725	0.06177
2628.11148	0.06166
2626.82571	0.06163
2625.53994	0.06156
2624.25418	0.06140
2622.96841	0.06111
2621.68264	0.06080
2620.39687	0.06059
2619.11110	0.06050
2617.82533	0.06042
2616.53956	0.06023
2615.25379	0.05993
2613.96802	0.05965
2612.68226	0.05946
2611.39649	0.05931
2610.11072	0.05909
2608.82495	0.05874
2607.53918	0.05828
2606.25341	0.05786
2604.96764	0.05758
2603.68187	0.05743
2602.39611	0.05732
2601.11034	0.05721
2599.82457	0.05713
2598.53880	0.05710
2597.25303	0.05712
2595.96726	0.05720
2594.68149	0.05733
2593.39572	0.05742
2592.10995	0.05742
2590.82419	0.05730
2589.53842	0.05707
2588.25265	0.05671
2586.96688	0.05629
2585.68111	0.05592
2584.39534	0.05571
2583.10957	0.05560
2581.82380	0.05547
2580.53804	0.05528
2579.25227	0.05510
2577.96650	0.05500
2576.68073	0.05506
2575.39496	0.05525
2574.10919	0.05542
2572.82342	0.05534
2571.53765	0.05504
2570.25188	0.05472
2568.96612	0.05459
2567.68035	0.05452
2566.39458	0.05433
2565.10881	0.05399
2563.82304	0.05374
2562.53727	0.05375
2561.25150	0.05389
2559.96573	0.05379
2558.67997	0.05320
2557.39420	0.05233
2556.10843	0.05162
2554.82266	0.05138
2553.53689	0.05153
2552.25112	0.05171
2550.96535	0.05162
2549.67958	0.05132
2548.39381	0.05109
2547.10805	0.05118
2545.82228	0.05154
2544.53651	0.05192
2543.25074	0.05207
2541.96497	0.05190
2540.67920	0.05146
2539.39343	0.05090
2538.10766	0.05038
2536.82190	0.05005
2535.53613	0.04999
2534.25036	0.05014
2532.96459	0.05033
2531.67882	0.05045
2530.39305	0.05053
2529.10728	0.05061
2527.82151	0.05067
2526.53574	0.05059
2525.24998	0.05034
2523.96421	0.05001
2522.67844	0.04974
2521.39267	0.04958
2520.10690	0.04947
2518.82113	0.04935
2517.53536	0.04924
2516.24959	0.04923
2514.96383	0.04937
2513.67806	0.04958
2512.39229	0.04970
2511.10652	0.04963
2509.82075	0.04936
2508.53498	0.04903
2507.24921	0.04880
2505.96344	0.04874
2504.67767	0.04876
2503.39191	0.04868
2502.10614	0.04845
2500.82037	0.04823
2499.53460	0.04825
2498.24883	0.04849
2496.96306	0.04864
2495.67729	0.04843
2494.39152	0.04796
2493.10576	0.04759
2491.81999	0.04752
2490.53422	0.04763
2489.24845	0.04769
2487.96268	0.04762
2486.67691	0.04743
2485.39114	0.04712
2484.10537	0.04676
2482.81960	0.04656
2481.53384	0.04669
2480.24807	0.04711
2478.96230	0.04760
2477.67653	0.04799
2476.39076	0.04817
2475.10499	0.04811
2473.81922	0.04783
2472.53345	0.04745
2471.24769	0.04717
2469.96192	0.04704
2468.67615	0.04692
2467.39038	0.04669
2466.10461	0.04647
2464.81884	0.04648
2463.53307	0.04675
2462.24730	0.04699
2460.96153	0.04694
2459.67577	0.04663
2458.39000	0.04639
2457.10423	0.04649
2455.81846	0.04686
2454.53269	0.04723
2453.24692	0.04737
2451.96115	0.04729
2450.67538	0.04717
2449.38962	0.04718
2448.10385	0.04732
2446.81808	0.04740
2445.53231	0.04728
2444.24654	0.04702
2442.96077	0.04674
2441.67500	0.04648
2440.38923	0.04623
2439.10346	0.04599
2437.81770	0.04588
2436.53193	0.04591
2435.24616	0.04599
2433.96039	0.04602
2432.67462	0.04600
2431.38885	0.04596
2430.10308	0.04595
2428.81731	0.04595
2427.53155	0.04597
2426.24578	0.04602
2424.96001	0.04606
2423.67424	0.04607
2422.38847	0.04603
2421.10270	0.04593
2419.81693	0.04576
2418.53116	0.04558
2417.24539	0.04542
2415.95963	0.04527
2414.67386	0.04510
2413.38809	0.04491
2412.10232	0.04480
2410.81655	0.04479
2409.53078	0.04485
2408.24501	0.04486
2406.95924	0.04474
2405.67347	0.04454
2404.38771	0.04439
2403.10194	0.04437
2401.81617	0.04451
2400.53040	0.04476
2399.24463	0.04491
2397.95886	0.04497
2396.67309	0.04494
2395.38732	0.04486
2394.10156	0.04474
2392.81579	0.04454
2391.53002	0.04430
2390.24425	0.04417
2388.95848	0.04425
2387.67271	0.04446
2386.38694	0.04463
2385.10117	0.04472
2383.81540	0.04484
2382.52964	0.04507
2381.24387	0.04536
2379.95810	0.04557
2378.67233	0.04564
2377.38656	0.04556
2376.10079	0.04538
2374.81502	0.04518
2373.52925	0.04503
2372.24349	0.04495
2370.95772	0.04492
2369.67195	0.04496
2368.38618	0.04510
2367.10041	0.04537
2365.81464	0.04571
2364.52887	0.04603
2363.24310	0.04620
2361.95733	0.04622
2360.67157	0.04615
2359.38580	0.04609
2358.10003	0.04608
2356.81426	0.04613
2355.52849	0.04622
2354.24272	0.04626
2352.95695	0.04617
2351.67118	0.04595
2350.38542	0.04575
2349.09965	0.04572
2347.81388	0.04588
2346.52811	0.04609
2345.24234	0.04617
2343.95657	0.04604
2342.67080	0.04577
2341.38503	0.04553
2340.09926	0.04546
2338.81350	0.04552
2337.52773	0.04560
2336.24196	0.04561
2334.95619	0.04559
2333.67042	0.04560
2332.38465	0.04564
2331.09888	0.04565
2329.81311	0.04561
2328.52735	0.04562
2327.24158	0.04579
2325.95581	0.04614
2324.67004	0.04647
2323.38427	0.04659
2322.09850	0.04641
2320.81273	0.04600
2319.52696	0.04553
2318.24119	0.04514
2316.95543	0.04490
2315.66966	0.04477
2314.38389	0.04462
2313.09812	0.04433
2311.81235	0.04388
2310.52658	0.04342
2309.24081	0.04314
2307.95504	0.04307
2306.66928	0.04311
2305.38351	0.04311
2304.09774	0.04302
2302.81197	0.04286
2301.52620	0.04261
2300.24043	0.04219
2298.95466	0.04162
2297.66889	0.04107
2296.38312	0.04072
2295.09736	0.04057
2293.81159	0.04047
2292.52582	0.04026
2291.24005	0.03993
2289.95428	0.03956
2288.66851	0.03925
2287.38274	0.03902
2286.09697	0.03882
2284.81121	0.03852
2283.52544	0.03813
2282.23967	0.03781
2280.95390	0.03770
2279.66813	0.03780
2278.38236	0.03796
2277.09659	0.03802
2275.81082	0.03787
2274.52505	0.03748
2273.23929	0.03690
2271.95352	0.03626
2270.66775	0.03565
2269.38198	0.03507
2268.09621	0.03452
2266.81044	0.03411
2265.52467	0.03404
2264.23890	0.03437
2262.95314	0.03493
2261.66737	0.03542
2260.38160	0.03564
2259.09583	0.03556
2257.81006	0.03528
2256.52429	0.03486
2255.23852	0.03434
2253.95275	0.03380
2252.66698	0.03336
2251.38122	0.03310
2250.09545	0.03302
2248.80968	0.03303
2247.52391	0.03277
2246.23814	0.03262
2244.95237	0.03268
2243.66660	0.03281
2242.38083	0.03284
2241.09507	0.03271
2239.80930	0.03256
2238.52353	0.03254
2237.23776	0.03264
2235.95199	0.03271
2234.66622	0.03259
2233.38045	0.03222
2232.09468	0.03168
2230.80891	0.03122
2229.52315	0.03109
2228.23738	0.03126
2226.95161	0.03147
2225.66584	0.03142
2224.38007	0.03118
2223.09430	0.03114
2221.80853	0.03153
2220.52276	0.03212
2219.23700	0.03234
2217.95123	0.03184
2216.66546	0.03079
2215.37969	0.02964
2214.09392	0.02883
2212.80815	0.02853
2211.52238	0.02859
2210.23661	0.02866
2208.95084	0.02851
2207.66508	0.02823
2206.37931	0.02806
2205.09354	0.02814
2203.80777	0.02836
2202.52200	0.02835
2201.23623	0.02774
2199.95046	0.02656
2198.66469	0.02548
2197.37893	0.02517
2196.09316	0.02565
2194.80739	0.02634
2193.52162	0.02679
2192.23585	0.02694
2190.95008	0.02680
2189.66431	0.02623
2188.37854	0.02529
2187.09277	0.02434
2185.80701	0.02369
2184.52124	0.02334
2183.23547	0.02314
2181.94970	0.02310
2180.66393	0.02337
2179.37816	0.02400
2178.09239	0.02477
2176.80662	0.02534
2175.52085	0.02548
2174.23509	0.02523
2172.94932	0.02466
2171.66355	0.02371
2170.37778	0.02224
2169.09201	0.02040
2167.80624	0.01874
2166.52047	0.01770
2165.23470	0.01733
2163.94894	0.01739
2162.66317	0.01764
2161.37740	0.01789
2160.09163	0.01797
2158.80586	0.01790
2157.52009	0.01791
2156.23432	0.01813
2154.94855	0.01865
2153.66278	0.01950
2152.37702	0.02053
2151.09125	0.02138
2149.80548	0.02183
2148.51971	0.02212
2147.23394	0.02253
2145.94817	0.02301
2144.66240	0.02330
2143.37663	0.02327
2142.09087	0.02309
2140.80510	0.02306
2139.51933	0.02347
2138.23356	0.02431
2136.94779	0.02528
2135.66202	0.02596
2134.37625	0.02627
2133.09048	0.02648
2131.80471	0.02688
2130.51895	0.02745
2129.23318	0.02802
2127.94741	0.02840
2126.66164	0.02861
2125.37587	0.02873
2124.09010	0.02877
2122.80433	0.02865
2121.51856	0.02848
2120.23280	0.02849
2118.94703	0.02890
2117.66126	0.02962
2116.37549	0.03032
2115.08972	0.03072
2113.80395	0.03076
2112.51818	0.03056
2111.23241	0.03026
2109.94664	0.02996
2108.66088	0.02980
2107.37511	0.02995
2106.08934	0.03034
2104.80357	0.03062
2103.51780	0.03049
2102.23203	0.03006
2100.94626	0.02956
2099.66049	0.02822
2098.37473	0.02734
2097.08896	0.02694
2095.80319	0.02682
2094.51742	0.02697
2093.23165	0.02736
2091.94588	0.02780
2090.66011	0.02803
2089.37434	0.02788
2088.08857	0.02747
2086.80281	0.02709
2085.51704	0.02686
2084.23127	0.02668
2082.94550	0.02657
2081.65973	0.02669
2080.37396	0.02710
2079.08819	0.02747
2077.80242	0.02740
2076.51666	0.02689
2075.23089	0.02627
2073.94512	0.02586
2072.65935	0.02559
2071.37358	0.02521
2070.08781	0.02456
2068.80204	0.02378
2067.51627	0.02331
2066.23050	0.02348
2064.94474	0.02415
2063.65897	0.02470
2062.37320	0.02456
2061.08743	0.02375
2059.80166	0.02287
2058.51589	0.02248
2057.23012	0.02268
2055.94435	0.02313
2054.65859	0.02333
2053.37282	0.02300
2052.08705	0.02210
2050.80128	0.02085
2049.51551	0.01961
2048.22974	0.01866
2046.94397	0.01809
2045.65820	0.01789
2044.37243	0.01808
2043.08667	0.01858
2041.80090	0.01903
2040.51513	0.01892
2039.22936	0.01801
2037.94359	0.01663
2036.65782	0.01549
2035.37205	0.01502
2034.08628	0.01499
2032.80052	0.01485
2031.51475	0.01435
2030.22898	0.01394
2028.94321	0.01425
2027.65744	0.01540
2026.37167	0.01693
2025.08590	0.01835
2023.80013	0.01938
2022.51436	0.01982
2021.22860	0.01948
2019.94283	0.01855
2018.65706	0.01755
2017.37129	0.01687
2016.08552	0.01652
2014.79975	0.01641
2013.51398	0.01655
2012.22821	0.01688
2010.94245	0.01712
2009.65668	0.01707
2008.37091	0.01685
2007.08514	0.01668
2005.79937	0.01659
2004.51360	0.01650
2003.22783	0.01651
2001.94206	0.01686
2000.65629	0.01758
1999.37053	0.01839
1998.08476	0.01897
1996.79899	0.01922
1995.51322	0.01932
1994.22745	0.01956
1992.94168	0.02004
1991.65591	0.02057
1990.37014	0.02085
1989.08438	0.02077
1987.79861	0.02053
1986.51284	0.02042
1985.22707	0.02052
1983.94130	0.02060
1982.65553	0.02036
1981.36976	0.01954
1980.08399	0.01807
1978.79822	0.01616
1977.51246	0.01432
1976.22669	0.01322
1974.94092	0.01319
1973.65515	0.01403
1972.36938	0.01520
1971.08361	0.01620
1969.79784	0.01680
1968.51207	0.01698
1967.22631	0.01688
1965.94054	0.01674
1964.65477	0.01675
1963.36900	0.01691
1962.08323	0.01715
1960.79746	0.01741
1959.51169	0.01773
1958.22592	0.01815
1956.94015	0.01875
1955.65439	0.01949
1954.36862	0.02018
1953.08285	0.02053
1951.79708	0.02040
1950.51131	0.01993
1949.22554	0.01938
1947.93977	0.01899
1946.65400	0.01892
1945.36823	0.01924
1944.08247	0.01989
1942.79670	0.02065
1941.51093	0.02121
1940.22516	0.02139
1938.93939	0.02124
1937.65362	0.02101
1936.36785	0.02089
1935.08208	0.02090
1933.79632	0.02094
1932.51055	0.02096
1931.22478	0.02101
1929.93901	0.02115
1928.65324	0.02137
1927.36747	0.02158
1926.08170	0.02174
1924.79593	0.02193
1923.51016	0.02226
1922.22440	0.02282
1920.93863	0.02347
1919.65286	0.02396
1918.36709	0.02408
1917.08132	0.02385
1915.79555	0.02345
1914.50978	0.02305
1913.22401	0.02275
1911.93825	0.02254
1910.65248	0.02246
1909.36671	0.02256
1908.08094	0.02283
1906.79517	0.02319
1905.50940	0.02348
1904.22363	0.02360
1902.93786	0.02356
1901.65209	0.02343
1900.36633	0.02328
1899.08056	0.02316
1897.79479	0.02310
1896.50902	0.02313
1895.22325	0.02318
1893.93748	0.02319
1892.65171	0.02316
1891.36594	0.02314
1890.08018	0.02316
1888.79441	0.02319
1887.50864	0.02322
1886.22287	0.02327
1884.93710	0.02339
1883.65133	0.02358
1882.36556	0.02372
1881.07979	0.02368
1879.79402	0.02348
1878.50826	0.02328
1877.22249	0.02323
1875.93672	0.02333
1874.65095	0.02349
1873.36518	0.02363
1872.07941	0.02371
1870.79364	0.02370
1869.50787	0.02360
1868.22211	0.02342
1866.93634	0.02323
1865.65057	0.02303
1864.36480	0.02276
1863.07903	0.02249
1861.79326	0.02234
1860.50749	0.02237
1859.22172	0.02243
1857.93595	0.02231
1856.65019	0.02202
1855.36442	0.02179
1854.07865	0.02182
1852.79288	0.02209
1851.50711	0.02247
1850.22134	0.02281
1848.93557	0.02303
1847.64980	0.02309
1846.36404	0.02296
1845.07827	0.02272
1843.79250	0.02254
1842.50673	0.02250
1841.22096	0.02257
1839.93519	0.02262
1838.64942	0.02255
1837.36365	0.02236
1836.07788	0.02213
1834.79212	0.02195
1833.50635	0.02192
1832.22058	0.02205
1830.93481	0.02227
1829.64904	0.02250
1828.36327	0.02266
1827.07750	0.02268
1825.79173	0.02254
1824.50597	0.02224
1823.22020	0.02187
1821.93443	0.02157
1820.64866	0.02141
1819.36289	0.02142
1818.07712	0.02156
1816.79135	0.02178
1815.50558	0.02205
1814.21981	0.02231
1812.93405	0.02247
1811.64828	0.02249
1810.36251	0.02243
1809.07674	0.02240
1807.79097	0.02242
1806.50520	0.02242
1805.21943	0.02236
1803.93366	0.02223
1802.64790	0.02209
1801.36213	0.02204
1800.07636	0.02209
1798.79059	0.02216
1797.50482	0.02215
1796.21905	0.02204
1794.93328	0.02191
1793.64751	0.02187
1792.36174	0.02191
1791.07598	0.02197
1789.79021	0.02194
1788.50444	0.02180
1787.21867	0.02161
1785.93290	0.02145
1784.64713	0.02139
1783.36136	0.02144
1782.07559	0.02150
1780.78983	0.02151
1779.50406	0.02147
1778.21829	0.02139
1776.93252	0.02128
1775.64675	0.02117
1774.36098	0.02110
1773.07521	0.02110
1771.78944	0.02117
1770.50367	0.02130
1769.21791	0.02147
1767.93214	0.02163
1766.64637	0.02175
1765.36060	0.02179
1764.07483	0.02175
1762.78906	0.02162
1761.50329	0.02147
1760.21752	0.02138
1758.93176	0.02139
1757.64599	0.02148
1756.36022	0.02160
1755.07445	0.02172
1753.78868	0.02183
1752.50291	0.02194
1751.21714	0.02209
1749.93137	0.02227
1748.64560	0.02247
1747.35984	0.02267
1746.07407	0.02287
1744.78830	0.02308
1743.50253	0.02332
1742.21676	0.02360
1740.93099	0.02390
1739.64522	0.02424
1738.35945	0.02464
1737.07369	0.02509
1735.78792	0.02552
1734.50215	0.02590
1733.21638	0.02623
1731.93061	0.02651
1730.64484	0.02677
1729.35907	0.02699
1728.07330	0.02719
1726.78753	0.02744
1725.50177	0.02779
1724.21600	0.02824
1722.93023	0.02870
1721.64446	0.02912
1720.35869	0.02950
1719.07292	0.02991
1717.78715	0.03039
1716.50138	0.03093
1715.21561	0.03155
1713.92985	0.03229
1712.64408	0.03323
1711.35831	0.03441
1710.07254	0.03581
1708.78677	0.03736
1707.50100	0.03903
1706.21523	0.04082
1704.92946	0.04278
1703.64370	0.04494
1702.35793	0.04732
1701.07216	0.04989
1699.78639	0.05257
1698.50062	0.05532
1697.21485	0.05813
1695.92908	0.06103
1694.64331	0.06399
1693.35754	0.06693
1692.07178	0.06982
1690.78601	0.07267
1689.50024	0.07553
1688.21447	0.07845
1686.92870	0.08151
1685.64293	0.08477
1684.35716	0.08819
1683.07139	0.09164
1681.78563	0.09506
1680.49986	0.09849
1679.21409	0.10204
1677.92832	0.10581
1676.64255	0.10979
1675.35678	0.11397
1674.07101	0.11825
1672.78524	0.12259
1671.49947	0.12699
1670.21371	0.13148
1668.92794	0.13601
1667.64217	0.14049
1666.35640	0.14482
1665.07063	0.14899
1663.78486	0.15306
1662.49909	0.15707
1661.21332	0.16098
1659.92756	0.16473
1658.64179	0.16824
1657.35602	0.17151
1656.07025	0.17458
1654.78448	0.17753
1653.49871	0.18039
1652.21294	0.18312
1650.92717	0.18563
1649.64140	0.18792
1648.35564	0.19007
1647.06987	0.19216
1645.78410	0.19417
1644.49833	0.19610
1643.21256	0.19794
1641.92679	0.19974
1640.64102	0.20150
1639.35525	0.20317
1638.06949	0.20468
1636.78372	0.20603
1635.49795	0.20724
1634.21218	0.20835
1632.92641	0.20930
1631.64064	0.20997
1630.35487	0.21024
1629.06910	0.21002
1627.78333	0.20928
1626.49757	0.20803
1625.21180	0.20629
1623.92603	0.20410
1622.64026	0.20150
1621.35449	0.19849
1620.06872	0.19509
1618.78295	0.19134
1617.49718	0.18738
1616.21142	0.18333
1614.92565	0.17926
1613.63988	0.17515
1612.35411	0.17099
1611.06834	0.16674
1609.78257	0.16244
1608.49680	0.15814
1607.21103	0.15394
1605.92526	0.14992
1604.63950	0.14609
1603.35373	0.14241
1602.06796	0.13888
1600.78219	0.13550
1599.49642	0.13231
1598.21065	0.12936
1596.92488	0.12667
1595.63911	0.12423
1594.35335	0.12199
1593.06758	0.11995
1591.78181	0.11813
1590.49604	0.11654
1589.21027	0.11521
1587.92450	0.11414
1586.63873	0.11331
1585.35296	0.11274
1584.06719	0.11241
1582.78143	0.11227
1581.49566	0.11228
1580.20989	0.11247
1578.92412	0.11290
1577.63835	0.11369
1576.35258	0.11487
1575.06681	0.11640
1573.78104	0.11814
1572.49528	0.11999
1571.20951	0.12193
1569.92374	0.12403
1568.63797	0.12635
1567.35220	0.12888
1566.06643	0.13153
1564.78066	0.13420
1563.49489	0.13684
1562.20912	0.13944
1560.92336	0.14207
1559.63759	0.14477
1558.35182	0.14752
1557.06605	0.15021
1555.78028	0.15274
1554.49451	0.15506
1553.20874	0.15716
1551.92297	0.15907
1550.63721	0.16084
1549.35144	0.16251
1548.06567	0.16405
1546.77990	0.16539
1545.49413	0.16652
1544.20836	0.16748
1542.92259	0.16831
1541.63682	0.16901
1540.35105	0.16959
1539.06529	0.17005
1537.77952	0.17040
1536.49375	0.17062
1535.20798	0.17073
1533.92221	0.17074
1532.63644	0.17064
1531.35067	0.17042
1530.06490	0.17005
1528.77914	0.16957
1527.49337	0.16902
1526.20760	0.16842
1524.92183	0.16776
1523.63606	0.16699
1522.35029	0.16611
1521.06452	0.16514
1519.77875	0.16412
1518.49298	0.16305
1517.20722	0.16187
1515.92145	0.16052
1514.63568	0.15896
1513.34991	0.15716
1512.06414	0.15515
1510.77837	0.15293
1509.49260	0.15050
1508.20683	0.14788
1506.92107	0.14511
1505.63530	0.14223
1504.34953	0.13930
1503.06376	0.13636
1501.77799	0.13342
1500.49222	0.13049
1499.20645	0.12751
1497.92068	0.12447
1496.63491	0.12135
1495.34915	0.11823
1494.06338	0.11519
1492.77761	0.11228
1491.49184	0.10952
1490.20607	0.10694
1488.92030	0.10456
1487.63453	0.10242
1486.34876	0.10053
1485.06299	0.09889
1483.77723	0.09751
1482.49146	0.09642
1481.20569	0.09565
1479.91992	0.09522
1478.63415	0.09510
1477.34838	0.09528
1476.06261	0.09573
1474.77684	0.09644
1473.49108	0.09741
1472.20531	0.09858
1470.91954	0.09983
1469.63377	0.10110
1468.34800	0.10238
1467.06223	0.10373
1465.77646	0.10520
1464.49069	0.10683
1463.20492	0.10860
1461.91916	0.11044
1460.63339	0.11229
1459.34762	0.11413
1458.06185	0.11597
1456.77608	0.11780
1455.49031	0.11950
1454.20454	0.12097
1452.91877	0.12212
1451.63301	0.12295
1450.34724	0.12350
1449.06147	0.12379
1447.77570	0.12384
1446.48993	0.12365
1445.20416	0.12323
1443.91839	0.12262
1442.63262	0.12189
1441.34685	0.12108
1440.06109	0.12017
1438.77532	0.11912
1437.48955	0.11789
1436.20378	0.11651
1434.91801	0.11502
1433.63224	0.11349
1432.34647	0.11194
1431.06070	0.11044
1429.77494	0.10904
1428.48917	0.10783
1427.20340	0.10683
1425.91763	0.10604
1424.63186	0.10542
1423.34609	0.10494
1422.06032	0.10457
1420.77455	0.10433
1419.48878	0.10422
1418.20302	0.10422
1416.91725	0.10425
1415.63148	0.10433
1414.34571	0.10448
1413.05994	0.10471
1411.77417	0.10500
1410.48840	0.10532
1409.20263	0.10564
1407.91687	0.10598
1406.63110	0.10634
1405.34533	0.10669
1404.05956	0.10700
1402.77379	0.10726
1401.48802	0.10742
1400.20225	0.10742
1398.91648	0.10727
1397.63071	0.10705
1396.34495	0.10683
1395.05918	0.10661
1393.77341	0.10640
1392.48764	0.10620
1391.20187	0.10600
1389.91610	0.10577
1388.63033	0.10548
1387.34456	0.10511
1386.05880	0.10466
1384.77303	0.10418
1383.48726	0.10372
1382.20149	0.10329
1380.91572	0.10285
1379.62995	0.10237
1378.34418	0.10181
1377.05841	0.10121
1375.77264	0.10055
1374.48688	0.09985
1373.20111	0.09909
1371.91534	0.09824
1370.62957	0.09732
1369.34380	0.09629
1368.05803	0.09516
1366.77226	0.09398
1365.48649	0.09283
1364.20073	0.09176
1362.91496	0.09081
1361.62919	0.08996
1360.34342	0.08923
1359.05765	0.08862
1357.77188	0.08819
1356.48611	0.08796
1355.20034	0.08796
1353.91457	0.08818
1352.62881	0.08859
1351.34304	0.08912
1350.05727	0.08978
1348.77150	0.09054
1347.48573	0.09140
1346.19996	0.09231
1344.91419	0.09325
1343.62842	0.09419
1342.34266	0.09512
1341.05689	0.09599
1339.77112	0.09671
1338.48535	0.09723
1337.19958	0.09754
1335.91381	0.09764
1334.62804	0.09751
1333.34227	0.09716
1332.05650	0.09665
1330.77074	0.09602
1329.48497	0.09534
1328.19920	0.09462
1326.91343	0.09388
1325.62766	0.09316
1324.34189	0.09248
1323.05612	0.09187
1321.77035	0.09134
1320.48459	0.09088
1319.19882	0.09051
1317.91305	0.09021
1316.62728	0.08992
1315.34151	0.08957
1314.05574	0.08915
1312.76997	0.08867
1311.48420	0.08820
1310.19843	0.08777
1308.91267	0.08737
1307.62690	0.08698
1306.34113	0.08661
1305.05536	0.08629
1303.76959	0.08600
1302.48382	0.08571
1301.19805	0.08537
1299.91228	0.08502
1298.62652	0.08470
1297.34075	0.08445
1296.05498	0.08430
1294.76921	0.08428
1293.48344	0.08443
1292.19767	0.08474
1290.91190	0.08518
1289.62613	0.08570
1288.34036	0.08627
1287.05460	0.08687
1285.76883	0.08749
1284.48306	0.08812
1283.19729	0.08870
1281.91152	0.08918
1280.62575	0.08950
1279.33998	0.08969
1278.05421	0.08982
1276.76845	0.08997
1275.48268	0.09013
1274.19691	0.09026
1272.91114	0.09033
1271.62537	0.09038
1270.33960	0.09048
1269.05383	0.09068
1267.76806	0.09099
1266.48229	0.09142
1265.19653	0.09193
1263.91076	0.09249
1262.62499	0.09309
1261.33922	0.09369
1260.05345	0.09429
1258.76768	0.09491
1257.48191	0.09556
1256.19614	0.09625
1254.91037	0.09702
1253.62461	0.09787
1252.33884	0.09877
1251.05307	0.09973
1249.76730	0.10075
1248.48153	0.10187
1247.19576	0.10309
1245.90999	0.10438
1244.62422	0.10566
1243.33846	0.10687
1242.05269	0.10795
1240.76692	0.10890
1239.48115	0.10972
1238.19538	0.11041
1236.90961	0.11093
1235.62384	0.11129
1234.33807	0.11147
1233.05230	0.11145
1231.76654	0.11123
1230.48077	0.11078
1229.19500	0.11011
1227.90923	0.10921
1226.62346	0.10810
1225.33769	0.10680
1224.05192	0.10536
1222.76615	0.10386
1221.48039	0.10238
1220.19462	0.10095
1218.90885	0.09960
1217.62308	0.09835
1216.33731	0.09725
1215.05154	0.09636
1213.76577	0.09574
1212.48000	0.09540
1211.19423	0.09526
1209.90847	0.09527
1208.62270	0.09538
1207.33693	0.09557
1206.05116	0.09581
1204.76539	0.09603
1203.47962	0.09613
1202.19385	0.09602
1200.90808	0.09574
1199.62232	0.09531
1198.33655	0.09455
1197.05078	0.09364
1195.76501	0.09264
1194.47924	0.09158
1193.19347	0.09048
1191.90770	0.08933
1190.62193	0.08815
1189.33616	0.08698
1188.05040	0.08587
1186.76463	0.08484
1185.47886	0.08390
1184.19309	0.08305
1182.90732	0.08230
1181.62155	0.08168
1180.33578	0.08119
1179.05001	0.08082
1177.76425	0.08048
1176.47848	0.08012
1175.19271	0.07978
1173.90694	0.07948
1172.62117	0.07925
1171.33540	0.07909
1170.04963	0.07898
1168.76386	0.07894
1167.47809	0.07895
1166.19233	0.07897
1164.90656	0.07896
1163.62079	0.07891
1162.33502	0.07883
1161.04925	0.07872
1159.76348	0.07852
1158.47771	0.07817
1157.19194	0.07762
1155.90618	0.07688
1154.62041	0.07603
1153.33464	0.07514
1152.04887	0.07426
1150.76310	0.07338
1149.47733	0.07249
1148.19156	0.07160
1146.90579	0.07076
1145.62002	0.07003
1144.33426	0.06940
1143.04849	0.06878
1141.76272	0.06812
1140.47695	0.06745
1139.19118	0.06683
1137.90541	0.06626
1136.61964	0.06574
1135.33387	0.06527
1134.04811	0.06489
1132.76234	0.06462
1131.47657	0.06442
1130.19080	0.06420
1128.90503	0.06395
1127.61926	0.06372
1126.33349	0.06355
1125.04772	0.06345
1123.76195	0.06339
1122.47619	0.06331
1121.19042	0.06323
1119.90465	0.06313
1118.61888	0.06300
1117.33311	0.06287
1116.04734	0.06277
1114.76157	0.06272
1113.47580	0.06273
1112.19004	0.06282
1110.90427	0.06298
1109.61850	0.06318
1108.33273	0.06340
1107.04696	0.06361
1105.76119	0.06382
1104.47542	0.06408
1103.18965	0.06441
1101.90388	0.06480
1100.61812	0.06521
1099.33235	0.06562
1098.04658	0.06602
1096.76081	0.06640
1095.47504	0.06681
1094.18927	0.06733
1092.90350	0.06797
1091.61773	0.06870
1090.33197	0.06946
1089.04620	0.07028
1087.76043	0.07125
1086.47466	0.07245
1085.18889	0.07375
1083.90312	0.07494
1082.61735	0.07581
1081.33158	0.07630
1080.04581	0.07645
1078.76005	0.07636
1077.47428	0.07611
1076.18851	0.07574
1074.90274	0.07530
1073.61697	0.07482
1072.33120	0.07435
1071.04543	0.07395
1069.75966	0.07366
1068.47390	0.07351
1067.18813	0.07346
1065.90236	0.07346
1064.61659	0.07343
1063.33082	0.07332
1062.04505	0.07312
1060.75928	0.07284
1059.47351	0.07252
1058.18774	0.07216
1056.90198	0.07179
1055.61621	0.07143
1054.33044	0.07107
1053.04467	0.07070
1051.75890	0.07028
1050.47313	0.06979
1049.18736	0.06934
1047.90159	0.06901
1046.61583	0.06886
1045.33006	0.06880
1044.04429	0.06873
1042.75852	0.06863
1041.47275	0.06857
1040.18698	0.06866
1038.90121	0.06892
1037.61544	0.06928
1036.32967	0.06966
1035.04391	0.07001
1033.75814	0.07034
1032.47237	0.07063
1031.18660	0.07080
1029.90083	0.07077
1028.61506	0.07049
1027.32929	0.06997
1026.04352	0.06923
1024.75775	0.06834
1023.47199	0.06741
1022.18622	0.06656
1020.90045	0.06584
1019.61468	0.06525
1018.32891	0.06478
1017.04314	0.06441
1015.75737	0.06407
1014.47160	0.06370
1013.18584	0.06325
1011.90007	0.06269
1010.61430	0.06204
1009.32853	0.06138
1008.04276	0.06078
1006.75699	0.06023
1005.47122	0.05967
1004.18545	0.05903
1002.89968	0.05836
1001.61392	0.05770
1000.32815	0.05710
999.04238	0.05652
997.75661	0.05596
996.47084	0.05546
995.18507	0.05503
993.89930	0.05463
992.61353	0.05422
991.32777	0.05378
990.04200	0.05334
988.75623	0.05294
987.47046	0.05260
986.18469	0.05232
984.89892	0.05206
983.61315	0.05179
982.32738	0.05156
981.04161	0.05147
979.75585	0.05154
978.47008	0.05172
977.18431	0.05194
975.89854	0.05213
974.61277	0.05229
973.32700	0.05238
972.04123	0.05231
970.75546	0.05203
969.46970	0.05157
968.18393	0.05106
966.89816	0.05063
965.61239	0.05033
964.32662	0.05011
963.04085	0.04990
961.75508	0.04970
960.46931	0.04950
959.18354	0.04926
957.89778	0.04897
956.61201	0.04869
955.32624	0.04847
954.04047	0.04832
952.75470	0.04820
951.46893	0.04803
950.18316	0.04782
948.89739	0.04761
947.61163	0.04743
946.32586	0.04733
945.04009	0.04730
943.75432	0.04735
942.46855	0.04747
941.18278	0.04759
939.89701	0.04763
938.61124	0.04757
937.32547	0.04746
936.03971	0.04731
934.75394	0.04718
933.46817	0.04707
932.18240	0.04699
930.89663	0.04690
929.61086	0.04680
928.32509	0.04674
927.03932	0.04674
925.75356	0.04679
924.46779	0.04682
923.18202	0.04677
921.89625	0.04663
920.61048	0.04644
919.32471	0.04623
918.03894	0.04604
916.75317	0.04586
915.46740	0.04567
914.18164	0.04545
912.89587	0.04519
911.61010	0.04496
910.32433	0.04483
909.03856	0.04479
907.75279	0.04477
906.46702	0.04466
905.18125	0.04451
903.89549	0.04438
902.60972	0.04433
901.32395	0.04429
900.03818	0.04416
898.75241	0.04392
897.46664	0.04368
896.18087	0.04354
894.89510	0.04347
893.60933	0.04340
892.32357	0.04328
891.03780	0.04315
889.75203	0.04305
888.46626	0.04303
887.18049	0.04305
885.89472	0.04306
884.60895	0.04305
883.32318	0.04302
882.03742	0.04298
880.75165	0.04291
879.46588	0.04285
878.18011	0.04288
876.89434	0.04306
875.60857	0.04329
874.32280	0.04343
873.03703	0.04340
871.75126	0.04324
870.46550	0.04311
869.17973	0.04305
867.89396	0.04301
866.60819	0.04293
865.32242	0.04281
864.03665	0.04272
862.75088	0.04265
861.46511	0.04258
860.17935	0.04250
858.89358	0.04244
857.60781	0.04246
856.32204	0.04254
855.03627	0.04262
853.75050	0.04266
852.46473	0.04263
851.17896	0.04259
849.89319	0.04258
848.60743	0.04258
847.32166	0.04255
846.03589	0.04247
844.75012	0.04239
843.46435	0.04233
842.17858	0.04229
840.89281	0.04218
839.60704	0.04201
838.32128	0.04184
837.03551	0.04174
835.74974	0.04173
834.46397	0.04175
833.17820	0.04178
831.89243	0.04182
830.60666	0.04191
829.32089	0.04204
828.03512	0.04221
826.74936	0.04237
825.46359	0.04251
824.17782	0.04265
822.89205	0.04278
821.60628	0.04294
820.32051	0.04316
819.03474	0.04345
817.74897	0.04378
816.46321	0.04404
815.17744	0.04421
813.89167	0.04432
812.60590	0.04447
811.32013	0.04469
810.03436	0.04496
808.74859	0.04522
807.46282	0.04544
806.17705	0.04562
804.89129	0.04577
803.60552	0.04588
802.31975	0.04597
801.03398	0.04604
799.74821	0.04609
798.46244	0.04610
797.17667	0.04611
795.89090	0.04617
794.60513	0.04631
793.31937	0.04656
792.03360	0.04689
790.74783	0.04728
789.46206	0.04763
788.17629	0.04790
786.89052	0.04807
785.60475	0.04816
784.31898	0.04819
783.03322	0.04815
781.74745	0.04808
780.46168	0.04811
779.17591	0.04830
777.89014	0.04863
776.60437	0.04898
775.31860	0.04925
774.03283	0.04944
772.74706	0.04960
771.46130	0.04976
770.17553	0.04994
768.88976	0.05013
767.60399	0.05037
766.31822	0.05064
765.03245	0.05087
763.74668	0.05105
762.46091	0.05120
761.17515	0.05140
759.88938	0.05161
758.60361	0.05177
757.31784	0.05191
756.03207	0.05206
754.74630	0.05222
753.46053	0.05234
752.17476	0.05241
750.88899	0.05248
749.60323	0.05265
748.31746	0.05297
747.03169	0.05345
745.74592	0.05398
744.46015	0.05443
743.17438	0.05471
741.88861	0.05483
740.60284	0.05485
739.31708	0.05491
738.03131	0.05509
736.74554	0.05542
735.45977	0.05582
734.17400	0.05615
732.88823	0.05633
731.60246	0.05644
730.31669	0.05664
729.03092	0.05702
727.74516	0.05749
726.45939	0.05791
725.17362	0.05822
723.88785	0.05842
722.60208	0.05875
721.31631	0.05914
720.03054	0.05952
718.74477	0.05989
717.45901	0.06022
716.17324	0.06047
714.88747	0.06060
713.60170	0.06068
712.31593	0.06079
711.03016	0.06100
709.74439	0.06129
708.45862	0.06161
707.17285	0.06192
705.88709	0.06223
704.60132	0.06255
703.31555	0.06286
702.02978	0.06315
700.74401	0.06337
699.45824	0.06354
698.17247	0.06369
696.88670	0.06384
695.60094	0.06403
694.31517	0.06423
693.02940	0.06439
691.74363	0.06449
690.45786	0.06455
689.17209	0.06462
687.88632	0.06475
686.60055	0.06494
685.31478	0.06515
684.02902	0.06535
682.74325	0.06549
681.45748	0.06562
680.17171	0.06579
678.88594	0.06604
677.60017	0.06632
676.31440	0.06653
675.02863	0.06667
673.74287	0.06678
672.45710	0.06696
671.17133	0.06722
669.88556	0.06749
668.59979	0.06769
667.31402	0.06781
666.02825	0.06789
664.74248	0.06800
663.45671	0.06815
662.17095	0.06831
660.88518	0.06849
659.59941	0.06869
658.31364	0.06891
657.02787	0.06908
655.74210	0.06919
654.45633	0.06927
653.17056	0.06936
651.88480	0.06950
650.59903	0.06966
649.31326	0.06976
648.02749	0.06976
646.74172	0.06968
645.45595	0.06960
644.17018	0.06959
642.88441	0.06968
641.59864	0.06982
640.31288	0.06998
639.02711	0.07011
637.74134	0.07021
636.45557	0.07029
635.16980	0.07034
633.88403	0.07038
632.59826	0.07041
631.31249	0.07033
630.02673	0.06963
628.74096	0.06853
627.45519	0.06905
626.16942	0.06742
624.88365	0.06417
623.59788	0.06085
622.31211	0.05841
621.02634	0.05743
619.74057	0.05800
618.45481	0.05989
617.16904	0.06258
615.88327	0.06526
614.59750	0.06708
613.31173	0.06769
612.02596	0.06745
610.74019	0.06706
609.45442	0.06694
608.16866	0.06709
606.88289	0.06734
605.59712	0.06748
604.31135	0.06737
603.02558	0.06711
601.73981	0.06711
600.45404	0.06764
599.16827	0.06859
597.88250	0.06958
596.59674	0.07035
595.31097	0.07076
594.02520	0.07087
592.73943	0.07083
591.45366	0.07086
590.16789	0.07103
588.88212	0.07123
587.59635	0.07129
586.31059	0.07117
585.02482	0.07100
583.73905	0.07095
582.45328	0.07108
581.16751	0.07131
579.88174	0.07151
578.59597	0.07160
577.31020	0.07161
576.02443	0.07161
574.73867	0.07166
573.45290	0.07169
572.16713	0.07160
570.88136	0.07140
569.59559	0.07125
568.30982	0.07135
567.02405	0.07169
565.73828	0.07205
564.45251	0.07225
563.16675	0.07234
561.88098	0.07242
560.59521	0.07254
559.30944	0.07260
558.02367	0.07259
556.73790	0.07257
555.45213	0.07265
554.16636	0.07284
552.88060	0.07307
551.59483	0.07324
550.30906	0.07335
549.02329	0.07338
547.73752	0.07331
546.45175	0.07311
545.16598	0.07284
543.88021	0.07258
542.59444	0.07235
541.30868	0.07215
540.02291	0.07197
538.73714	0.07184
537.45137	0.07181
536.16560	0.07189
534.87983	0.07206
533.59406	0.07226
532.30829	0.07243
531.02253	0.07252
529.73676	0.07253
528.45099	0.07250
527.16522	0.07244
525.87945	0.07230
524.59368	0.07205
523.30791	0.07175
522.02214	0.07150
520.73637	0.07130
519.45061	0.07108
518.16484	0.07077
516.87907	0.07041
515.59330	0.07012
514.30753	0.06998
513.02176	0.06996
511.73599	0.06996
510.45022	0.06990
509.16446	0.06974
507.87869	0.06950
506.59292	0.06923
505.30715	0.06900
504.02138	0.06880
502.73561	0.06862
501.44984	0.06841
500.16407	0.06817
498.87830	0.06792
497.59254	0.06764
496.30677	0.06731
495.02100	0.06696
493.73523	0.06660
492.44946	0.06625
491.16369	0.06587
489.87792	0.06548
488.59215	0.06514
487.30639	0.06492
486.02062	0.06483
484.73485	0.06478
483.44908	0.06471
482.16331	0.06460
480.87754	0.06445
479.59177	0.06425
478.30600	0.06402
477.02023	0.06380
475.73447	0.06363
474.44870	0.06348
473.16293	0.06324
471.87716	0.06285
470.59139	0.06236
469.30562	0.06191
468.01985	0.06161
466.73408	0.06144
465.44832	0.06125
464.16255	0.06090
462.87678	0.06043
461.59101	0.05996
460.30524	0.05959
459.01947	0.05933
457.73370	0.05915
456.44793	0.05901
455.16216	0.05890
453.87640	0.05879
452.59063	0.05859
451.30486	0.05829
450.01909	0.05790
448.73332	0.05744
447.44755	0.05695
446.16178	0.05651
444.87601	0.05618
443.59025	0.05594
442.30448	0.05575
441.01871	0.05551
439.73294	0.05523
438.44717	0.05492
437.16140	0.05463
435.87563	0.05436
434.58986	0.05412
433.30409	0.05390
432.01833	0.05371
430.73256	0.05355
429.44679	0.05340
428.16102	0.05321
426.87525	0.05300
425.58948	0.05279
424.30371	0.05258
423.01794	0.05238
421.73218	0.05216
420.44641	0.05189
419.16064	0.05160
417.87487	0.05135
416.58910	0.05119
415.30333	0.05106
414.01756	0.05089
412.73179	0.05063
411.44602	0.05033
410.16026	0.05005
408.87449	0.04984
407.58872	0.04969
406.30295	0.04955
405.01718	0.04939
403.73141	0.04922
402.44564	0.04908
401.15987	0.04896
399.87411	0.04884
