3997.45528	0.06383
3996.16951	0.06327
3994.88374	0.06281
3993.59798	0.06262
3992.31221	0.06276
3991.02644	0.06302
3989.74067	0.06316
3988.45490	0.06314
3987.16913	0.06301
3985.88336	0.06272
3984.59759	0.06216
3983.31183	0.06142
3982.02606	0.06084
3980.74029	0.06067
3979.45452	0.06082
3978.16875	0.06102
3976.88298	0.06119
3975.59721	0.06146
3974.31144	0.06194
3973.02567	0.06252
3971.73991	0.06295
3970.45414	0.06309
3969.16837	0.06299
3967.88260	0.06275
3966.59683	0.06253
3965.31106	0.06234
3964.02529	0.06217
3962.73952	0.06204
3961.45376	0.06198
3960.16799	0.06204
3958.88222	0.06216
3957.59645	0.06226
3956.31068	0.06218
3955.02491	0.06177
3953.73914	0.06101
3952.45337	0.06022
3951.16760	0.05984
3949.88184	0.05999
3948.59607	0.06036
3947.31030	0.06060
3946.02453	0.06081
3944.73876	0.06127
3943.45299	0.06194
3942.16722	0.06245
3940.88145	0.06255
3939.59569	0.06231
3938.30992	0.06197
3937.02415	0.06168
3935.73838	0.06148
3934.45261	0.06140
3933.16684	0.06149
3931.88107	0.06168
3930.59530	0.06184
3929.30953	0.06182
3928.02377	0.06165
3926.73800	0.06158
3925.45223	0.06180
3924.16646	0.06218
3922.88069	0.06235
3921.59492	0.06213
3920.30915	0.06162
3919.02338	0.06098
3917.73762	0.06021
3916.45185	0.05938
3915.16608	0.05878
3913.88031	0.05862
3912.59454	0.05883
3911.30877	0.05908
3910.02300	0.05918
3908.73723	0.05903
3907.45146	0.05862
3906.16570	0.05812
3904.87993	0.05788
3903.59416	0.05810
3902.30839	0.05854
3901.02262	0.05881
3899.73685	0.05876
3898.45108	0.05857
3897.16531	0.05837
3895.87955	0.05815
3894.59378	0.05786
3893.30801	0.05751
3892.02224	0.05722
3890.73647	0.05720
3889.45070	0.05762
3888.16493	0.05837
3886.87916	0.05907
3885.59339	0.05946
3884.30763	0.05967
3883.02186	0.05995
3881.73609	0.06024
3880.45032	0.06020
3879.16455	0.05962
3877.87878	0.05870
3876.59301	0.05787
3875.30724	0.05740
3874.02148	0.05733
3872.73571	0.05753
3871.44994	0.05794
3870.16417	0.05851
3868.87840	0.05913
3867.59263	0.05955
3866.30686	0.05953
3865.02109	0.05913
3863.73532	0.05869
3862.44956	0.05860
3861.16379	0.05884
3859.87802	0.05903
3858.59225	0.05885
3857.30648	0.05830
3856.02071	0.05763
3854.73494	0.05702
3853.44917	0.05658
3852.16341	0.05637
3850.87764	0.05638
3849.59187	0.05645
3848.30610	0.05642
3847.02033	0.05632
3845.73456	0.05634
3844.44879	0.05654
3843.16302	0.05679
3841.87725	0.05702
3840.59149	0.05721
3839.30572	0.05731
3838.01995	0.05719
3836.73418	0.05681
3835.44841	0.05644
3834.16264	0.05644
3832.87687	0.05690
3831.59110	0.05743
3830.30534	0.05754
3829.01957	0.05714
3827.73380	0.05668
3826.44803	0.05667
3825.16226	0.05730
3823.87649	0.05825
3822.59072	0.05896
3821.30495	0.05897
3820.01918	0.05823
3818.73342	0.05715
3817.44765	0.05621
3816.16188	0.05564
3814.87611	0.05537
3813.59034	0.05530
3812.30457	0.05540
3811.01880	0.05562
3809.73303	0.05583
3808.44726	0.05592
3807.16150	0.05587
3805.87573	0.05583
3804.58996	0.05593
3803.30419	0.05609
3802.01842	0.05614
3800.73265	0.05602
3799.44688	0.05575
3798.16111	0.05533
3796.87535	0.05474
3795.58958	0.05408
3794.30381	0.05365
3793.01804	0.05366
3791.73227	0.05402
3790.44650	0.05438
3789.16073	0.05443
3787.87496	0.05413
3786.58919	0.05367
3785.30343	0.05327
3784.01766	0.05303
3782.73189	0.05290
3781.44612	0.05282
3780.16035	0.05269
3778.87458	0.05251
3777.58881	0.05242
3776.30304	0.05258
3775.01728	0.05295
3773.73151	0.05326
3772.44574	0.05338
3771.15997	0.05344
3769.87420	0.05374
3768.58843	0.05439
3767.30266	0.05510
3766.01689	0.05551
3764.73112	0.05544
3763.44536	0.05496
3762.15959	0.05430
3760.87382	0.05369
3759.58805	0.05330
3758.30228	0.05312
3757.01651	0.05306
3755.73074	0.05305
3754.44497	0.05317
3753.15921	0.05345
3751.87344	0.05372
3750.58767	0.05375
3749.30190	0.05352
3748.01613	0.05323
3746.73036	0.05316
3745.44459	0.05340
3744.15882	0.05385
3742.87305	0.05429
3741.58729	0.05451
3740.30152	0.05447
3739.01575	0.05417
3737.72998	0.05359
3736.44421	0.05269
3735.15844	0.05158
3733.87267	0.05064
3732.58690	0.05027
3731.30114	0.05061
3730.01537	0.05139
3728.72960	0.05210
3727.44383	0.05228
3726.15806	0.05185
3724.87229	0.05121
3723.58652	0.05086
3722.30075	0.05095
3721.01498	0.05123
3719.72922	0.05135
3718.44345	0.05121
3717.15768	0.05089
3715.87191	0.05052
3714.58614	0.05005
3713.30037	0.04934
3712.01460	0.04844
3710.72883	0.04783
3709.44307	0.04802
3708.15730	0.04896
3706.87153	0.05002
3705.58576	0.05060
3704.29999	0.05068
3703.01422	0.05057
3701.72845	0.05046
3700.44268	0.05034
3699.15691	0.05023
3697.87115	0.05027
3696.58538	0.05059
3695.29961	0.05116
3694.01384	0.05162
3692.72807	0.05149
3691.44230	0.05067
3690.15653	0.04958
3688.87076	0.04878
3687.58500	0.04843
3686.29923	0.04835
3685.01346	0.04834
3683.72769	0.04843
3682.44192	0.04877
3681.15615	0.04919
3679.87038	0.04937
3678.58461	0.04921
3677.29884	0.04891
3676.01308	0.04883
3674.72731	0.04918
3673.44154	0.04992
3672.15577	0.05077
3670.87000	0.05137
3669.58423	0.05155
3668.29846	0.05146
3667.01269	0.05135
3665.72693	0.05136
3664.44116	0.05136
3663.15539	0.05130
3661.86962	0.05126
3660.58385	0.05135
3659.29808	0.05146
3658.01231	0.05135
3656.72654	0.05100
3655.44077	0.05073
3654.15501	0.05092
3652.86924	0.05163
3651.58347	0.05255
3650.29770	0.05336
3649.01193	0.05385
3647.72616	0.05401
3646.44039	0.05399
3645.15462	0.05403
3643.86886	0.05423
3642.58309	0.05456
3641.29732	0.05484
3640.01155	0.05502
3638.72578	0.05520
3637.44001	0.05553
3636.15424	0.05599
3634.86847	0.05635
3633.58270	0.05635
3632.29694	0.05604
3631.01117	0.05580
3629.72540	0.05606
3628.43963	0.05689
3627.15386	0.05794
3625.86809	0.05879
3624.58232	0.05928
3623.29655	0.05951
3622.01079	0.05960
3620.72502	0.05964
3619.43925	0.05970
3618.15348	0.05987
3616.86771	0.06012
3615.58194	0.06033
3614.29617	0.06044
3613.01040	0.06063
3611.72463	0.06108
3610.43887	0.06173
3609.15310	0.06244
3607.86733	0.06317
3606.58156	0.06397
3605.29579	0.06478
3604.01002	0.06549
3602.72425	0.06604
3601.43848	0.06642
3600.15272	0.06662
3598.86695	0.06671
3597.58118	0.06693
3596.29541	0.06753
3595.00964	0.06847
3593.72387	0.06944
3592.43810	0.07019
3591.15233	0.07069
3589.86656	0.07109
3588.58080	0.07146
3587.29503	0.07181
3586.00926	0.07211
3584.72349	0.07233
3583.43772	0.07240
3582.15195	0.07233
3580.86618	0.07232
3579.58041	0.07254
3578.29464	0.07312
3577.00888	0.07412
3575.72311	0.07555
3574.43734	0.07722
3573.15157	0.07877
3571.86580	0.07979
3570.58003	0.08019
3569.29426	0.08019
3568.00849	0.08015
3566.72273	0.08039
3565.43696	0.08102
3564.15119	0.08188
3562.86542	0.08265
3561.57965	0.08306
3560.29388	0.08315
3559.00811	0.08321
3557.72234	0.08351
3556.43657	0.08401
3555.15081	0.08448
3553.86504	0.08481
3552.57927	0.08514
3551.29350	0.08575
3550.00773	0.08671
3548.72196	0.08777
3547.43619	0.08858
3546.15042	0.08899
3544.86466	0.08910
3543.57889	0.08918
3542.29312	0.08953
3541.00735	0.09028
3539.72158	0.09144
3538.43581	0.09275
3537.15004	0.09390
3535.86427	0.09474
3534.57850	0.09536
3533.29274	0.09594
3532.00697	0.09652
3530.72120	0.09707
3529.43543	0.09760
3528.14966	0.09819
3526.86389	0.09881
3525.57812	0.09933
3524.29235	0.09970
3523.00659	0.10007
3521.72082	0.10062
3520.43505	0.10130
3519.14928	0.10192
3517.86351	0.10237
3516.57774	0.10273
3515.29197	0.10308
3514.00620	0.10338
3512.72043	0.10352
3511.43467	0.10340
3510.14890	0.10312
3508.86313	0.10297
3507.57736	0.10329
3506.29159	0.10416
3505.00582	0.10536
3503.72005	0.10655
3502.43428	0.10747
3501.14852	0.10795
3499.86275	0.10803
3498.57698	0.10798
3497.29121	0.10813
3496.00544	0.10864
3494.71967	0.10930
3493.43390	0.10983
3492.14813	0.11016
3490.86236	0.11054
3489.57660	0.11121
3488.29083	0.11214
3487.00506	0.11301
3485.71929	0.11356
3484.43352	0.11388
3483.14775	0.11427
3481.86198	0.11484
3480.57621	0.11536
3479.29045	0.11557
3478.00468	0.11555
3476.71891	0.11560
3475.43314	0.11595
3474.14737	0.11651
3472.86160	0.11705
3471.57583	0.11747
3470.29006	0.11788
3469.00429	0.11839
3467.71853	0.11905
3466.43276	0.11984
3465.14699	0.12065
3463.86122	0.12134
3462.57545	0.12170
3461.28968	0.12173
3460.00391	0.12168
3458.71814	0.12194
3457.43238	0.12267
3456.14661	0.12357
3454.86084	0.12414
3453.57507	0.12422
3452.28930	0.12408
3451.00353	0.12416
3449.71776	0.12455
3448.43199	0.12506
3447.14622	0.12547
3445.86046	0.12579
3444.57469	0.12615
3443.28892	0.12666
3442.00315	0.12739
3440.71738	0.12827
3439.43161	0.12904
3438.14584	0.12943
3436.86007	0.12941
3435.57431	0.12927
3434.28854	0.12928
3433.00277	0.12951
3431.71700	0.12986
3430.43123	0.13029
3429.14546	0.13078
3427.85969	0.13122
3426.57392	0.13150
3425.28815	0.13163
3424.00239	0.13178
3422.71662	0.13211
3421.43085	0.13271
3420.14508	0.13347
3418.85931	0.13420
3417.57354	0.13474
3416.28777	0.13520
3415.00200	0.13579
3413.71624	0.13657
3412.43047	0.13742
3411.14470	0.13819
3409.85893	0.13891
3408.57316	0.13969
3407.28739	0.14051
3406.00162	0.14124
3404.71585	0.14182
3403.43008	0.14225
3402.14432	0.14258
3400.85855	0.14276
3399.57278	0.14272
3398.28701	0.14237
3397.00124	0.14184
3395.71547	0.14147
3394.42970	0.14155
3393.14393	0.14216
3391.85817	0.14311
3390.57240	0.14405
3389.28663	0.14469
3388.00086	0.14496
3386.71509	0.14508
3385.42932	0.14543
3384.14355	0.14614
3382.85778	0.14700
3381.57201	0.14764
3380.28625	0.14795
3379.00048	0.14813
3377.71471	0.14847
3376.42894	0.14908
3375.14317	0.14991
3373.85740	0.15086
3372.57163	0.15173
3371.28586	0.15234
3370.00010	0.15267
3368.71433	0.15299
3367.42856	0.15370
3366.14279	0.15495
3364.85702	0.15648
3363.57125	0.15782
3362.28548	0.15867
3360.99971	0.15923
3359.71394	0.15990
3358.42818	0.16084
3357.14241	0.16188
3355.85664	0.16278
3354.57087	0.16349
3353.28510	0.16404
3351.99933	0.16447
3350.71356	0.16485
3349.42779	0.16542
3348.14202	0.16631
3346.85626	0.16738
3345.57049	0.16839
3344.28472	0.16930
3342.99895	0.17020
3341.71318	0.17112
3340.42741	0.17195
3339.14164	0.17268
3337.85587	0.17352
3336.57011	0.17463
3335.28434	0.17594
3333.99857	0.17715
3332.71280	0.17799
3331.42703	0.17841
3330.14126	0.17858
3328.85549	0.17874
3327.56972	0.17909
3326.28395	0.17968
3324.99819	0.18044
3323.71242	0.18124
3322.42665	0.18196
3321.14088	0.18256
3319.85511	0.18303
3318.56934	0.18340
3317.28357	0.18367
3315.99780	0.18382
3314.71204	0.18391
3313.42627	0.18411
3312.14050	0.18456
3310.85473	0.18529
3309.56896	0.18615
3308.28319	0.18694
3306.99742	0.18753
3305.71165	0.18793
3304.42588	0.18821
3303.14012	0.18842
3301.85435	0.18853
3300.56858	0.18855
3299.28281	0.18857
3297.99704	0.18871
3296.71127	0.18895
3295.42550	0.18921
3294.13973	0.18943
3292.85397	0.18967
3291.56820	0.19000
3290.28243	0.19032
3288.99666	0.19045
3287.71089	0.19039
3286.42512	0.19024
3285.13935	0.19006
3283.85358	0.18977
3282.56781	0.18936
3281.28205	0.18894
3279.99628	0.18866
3278.71051	0.18858
3277.42474	0.18859
3276.13897	0.18849
3274.85320	0.18812
3273.56743	0.18742
3272.28166	0.18659
3270.99590	0.18597
3269.71013	0.18577
3268.42436	0.18589
3267.13859	0.18597
3265.85282	0.18571
3264.56705	0.18513
3263.28128	0.18445
3261.99551	0.18396
3260.70974	0.18372
3259.42398	0.18352
3258.13821	0.18307
3256.85244	0.18222
3255.56667	0.18112
3254.28090	0.18008
3252.99513	0.17927
3251.70936	0.17874
3250.42359	0.17843
3249.13783	0.17823
3247.85206	0.17802
3246.56629	0.17775
3245.28052	0.17744
3243.99475	0.17713
3242.70898	0.17681
3241.42321	0.17644
3240.13744	0.17603
3238.85167	0.17553
3237.56591	0.17487
3236.28014	0.17408
3234.99437	0.17332
3233.70860	0.17280
3232.42283	0.17255
3231.13706	0.17231
3229.85129	0.17187
3228.56552	0.17119
3227.27976	0.17043
3225.99399	0.16983
3224.70822	0.16954
3223.42245	0.16959
3222.13668	0.16983
3220.85091	0.16997
3219.56514	0.16987
3218.27937	0.16962
3216.99360	0.16937
3215.70784	0.16916
3214.42207	0.16892
3213.13630	0.16857
3211.85053	0.16806
3210.56476	0.16738
3209.27899	0.16669
3207.99322	0.16626
3206.70745	0.16619
3205.42169	0.16621
3204.13592	0.16595
3202.85015	0.16530
3201.56438	0.16447
3200.27861	0.16369
3198.99284	0.16307
3197.70707	0.16259
3196.42130	0.16228
3195.13553	0.16210
3193.84977	0.16193
3192.56400	0.16161
3191.27823	0.16111
3189.99246	0.16046
3188.70669	0.15971
3187.42092	0.15892
3186.13515	0.15821
3184.84938	0.15767
3183.56362	0.15726
3182.27785	0.15686
3180.99208	0.15637
3179.70631	0.15574
3178.42054	0.15497
3177.13477	0.15401
3175.84900	0.15289
3174.56323	0.15184
3173.27746	0.15115
3171.99170	0.15094
3170.70593	0.15097
3169.42016	0.15084
3168.13439	0.15027
3166.84862	0.14925
3165.56285	0.14801
3164.27708	0.14686
3162.99131	0.14607
3161.70555	0.14564
3160.41978	0.14539
3159.13401	0.14507
3157.84824	0.14453
3156.56247	0.14375
3155.27670	0.14279
3153.99093	0.14182
3152.70516	0.14099
3151.41939	0.14041
3150.13363	0.14005
3148.84786	0.13978
3147.56209	0.13947
3146.27632	0.13903
3144.99055	0.13843
3143.70478	0.13769
3142.41901	0.13683
3141.13324	0.13587
3139.84748	0.13491
3138.56171	0.13414
3137.27594	0.13368
3135.99017	0.13344
3134.70440	0.13324
3133.41863	0.13297
3132.13286	0.13270
3130.84709	0.13248
3129.56132	0.13230
3128.27556	0.13207
3126.98979	0.13172
3125.70402	0.13124
3124.41825	0.13072
3123.13248	0.13028
3121.84671	0.12996
3120.56094	0.12970
3119.27517	0.12939
3117.98940	0.12908
3116.70364	0.12887
3115.41787	0.12887
3114.13210	0.12907
3112.84633	0.12938
3111.56056	0.12969
3110.27479	0.12988
3108.98902	0.12988
3107.70325	0.12970
3106.41749	0.12949
3105.13172	0.12942
3103.84595	0.12951
3102.56018	0.12967
3101.27441	0.12976
3099.98864	0.12977
3098.70287	0.12978
3097.41710	0.12983
3096.13133	0.12995
3094.84557	0.13012
3093.55980	0.13035
3092.27403	0.13059
3090.98826	0.13075
3089.70249	0.13085
3088.41672	0.13100
3087.13095	0.13129
3085.84518	0.13163
3084.55942	0.13194
3083.27365	0.13222
3081.98788	0.13253
3080.70211	0.13282
3079.41634	0.13290
3078.13057	0.13270
3076.84480	0.13230
3075.55903	0.13193
3074.27326	0.13177
3072.98750	0.13177
3071.70173	0.13181
3070.41596	0.13177
3069.13019	0.13170
3067.84442	0.13173
3066.55865	0.13188
3065.27288	0.13203
3063.98711	0.13197
3062.70135	0.13158
3061.41558	0.13094
3060.12981	0.13027
3058.84404	0.12973
3057.55827	0.12931
3056.27250	0.12886
3054.98673	0.12831
3053.70096	0.12775
3052.41519	0.12729
3051.12943	0.12698
3049.84366	0.12670
3048.55789	0.12633
3047.27212	0.12586
3045.98635	0.12535
3044.70058	0.12486
3043.41481	0.12443
3042.12904	0.12401
3040.84328	0.12355
3039.55751	0.12295
3038.27174	0.12216
3036.98597	0.12120
3035.70020	0.12018
3034.41443	0.11931
3033.12866	0.11877
3031.84289	0.11858
3030.55712	0.11853
3029.27136	0.11835
3027.98559	0.11790
3026.69982	0.11724
3025.41405	0.11652
3024.12828	0.11584
3022.84251	0.11523
3021.55674	0.11468
3020.27097	0.11416
3018.98521	0.11366
3017.69944	0.11310
3016.41367	0.11245
3015.12790	0.11176
3013.84213	0.11118
3012.55636	0.11084
3011.27059	0.11070
3009.98482	0.11064
3008.69905	0.11055
3007.41329	0.11041
3006.12752	0.11026
3004.84175	0.11009
3003.55598	0.10986
3002.27021	0.10960
3000.98444	0.10946
2999.69867	0.10960
2998.41290	0.11009
2997.12714	0.11070
2995.84137	0.11113
2994.55560	0.11128
2993.26983	0.11125
2991.98406	0.11123
2990.69829	0.11139
2989.41252	0.11183
2988.12675	0.11249
2986.84098	0.11313
2985.55522	0.11353
2984.26945	0.11371
2982.98368	0.11394
2981.69791	0.11444
2980.41214	0.11521
2979.12637	0.11603
2977.84060	0.11669
2976.55483	0.11713
2975.26907	0.11740
2973.98330	0.11759
2972.69753	0.11777
2971.41176	0.11803
2970.12599	0.11846
2968.84022	0.11899
2967.55445	0.11947
2966.26868	0.11982
2964.98291	0.12007
2963.69715	0.12032
2962.41138	0.12066
2961.12561	0.12112
2959.83984	0.12167
2958.55407	0.12212
2957.26830	0.12227
2955.98253	0.12205
2954.69676	0.12167
2953.41100	0.12137
2952.12523	0.12126
2950.83946	0.12127
2949.55369	0.12132
2948.26792	0.12135
2946.98215	0.12137
2945.69638	0.12144
2944.41061	0.12163
2943.12484	0.12195
2941.83908	0.12229
2940.55331	0.12253
2939.26754	0.12267
2937.98177	0.12278
2936.69600	0.12285
2935.41023	0.12275
2934.12446	0.12239
2932.83869	0.12194
2931.55293	0.12163
2930.26716	0.12165
2928.98139	0.12188
2927.69562	0.12205
2926.40985	0.12193
2925.12408	0.12151
2923.83831	0.12094
2922.55254	0.12030
2921.26677	0.11958
2919.98101	0.11878
2918.69524	0.11807
2917.40947	0.11756
2916.12370	0.11722
2914.83793	0.11687
2913.55216	0.11637
2912.26639	0.11574
2910.98062	0.11506
2909.69486	0.11442
2908.40909	0.11383
2907.12332	0.11326
2905.83755	0.11263
2904.55178	0.11193
2903.26601	0.11121
2901.98024	0.11054
2900.69447	0.10994
2899.40870	0.10938
2898.12294	0.10891
2896.83717	0.10863
2895.55140	0.10851
2894.26563	0.10841
2892.97986	0.10821
2891.69409	0.10798
2890.40832	0.10779
2889.12255	0.10762
2887.83678	0.10739
2886.55102	0.10717
2885.26525	0.10707
2883.97948	0.10711
2882.69371	0.10724
2881.40794	0.10742
2880.12217	0.10768
2878.83640	0.10800
2877.55063	0.10824
2876.26487	0.10826
2874.97910	0.10803
2873.69333	0.10763
2872.40756	0.10714
2871.12179	0.10658
2869.83602	0.10598
2868.55025	0.10537
2867.26448	0.10473
2865.97871	0.10403
2864.69295	0.10325
2863.40718	0.10249
2862.12141	0.10189
2860.83564	0.10148
2859.54987	0.10120
2858.26410	0.10093
2856.97833	0.10064
2855.69256	0.10029
2854.40680	0.09985
2853.12103	0.09932
2851.83526	0.09875
2850.54949	0.09818
2849.26372	0.09766
2847.97795	0.09724
2846.69218	0.09687
2845.40641	0.09652
2844.12064	0.09617
2842.83488	0.09585
2841.54911	0.09552
2840.26334	0.09510
2838.97757	0.09461
2837.69180	0.09416
2836.40603	0.09386
2835.12026	0.09366
2833.83449	0.09348
2832.54873	0.09325
2831.26296	0.09296
2829.97719	0.09268
2828.69142	0.09246
2827.40565	0.09228
2826.11988	0.09204
2824.83411	0.09171
2823.54834	0.09132
2822.26257	0.09093
2820.97681	0.09052
2819.69104	0.09006
2818.40527	0.08964
2817.11950	0.08935
2815.83373	0.08920
2814.54796	0.08911
2813.26219	0.08904
2811.97642	0.08900
2810.69066	0.08905
2809.40489	0.08912
2808.11912	0.08910
2806.83335	0.08890
2805.54758	0.08856
2804.26181	0.08823
2802.97604	0.08798
2801.69027	0.08780
2800.40450	0.08761
2799.11874	0.08736
2797.83297	0.08709
2796.54720	0.08681
2795.26143	0.08655
2793.97566	0.08635
2792.68989	0.08618
2791.40412	0.08599
2790.11835	0.08572
2788.83259	0.08533
2787.54682	0.08490
2786.26105	0.08458
2784.97528	0.08449
2783.68951	0.08462
2782.40374	0.08477
2781.11797	0.08471
2779.83220	0.08439
2778.54643	0.08396
2777.26067	0.08364
2775.97490	0.08354
2774.68913	0.08361
2773.40336	0.08369
2772.11759	0.08360
2770.83182	0.08330
2769.54605	0.08292
2768.26028	0.08264
2766.97452	0.08249
2765.68875	0.08237
2764.40298	0.08218
2763.11721	0.08196
2761.83144	0.08182
2760.54567	0.08181
2759.25990	0.08182
2757.97413	0.08171
2756.68836	0.08147
2755.40260	0.08117
2754.11683	0.08090
2752.83106	0.08066
2751.54529	0.08041
2750.25952	0.08013
2748.97375	0.07987
2747.68798	0.07964
2746.40221	0.07942
2745.11645	0.07921
2743.83068	0.07910
2742.54491	0.07907
2741.25914	0.07904
2739.97337	0.07884
2738.68760	0.07848
2737.40183	0.07809
2736.11606	0.07781
2734.83029	0.07770
2733.54453	0.07767
2732.25876	0.07764
2730.97299	0.07755
2729.68722	0.07738
2728.40145	0.07714
2727.11568	0.07686
2725.82991	0.07657
2724.54414	0.07627
2723.25838	0.07595
2721.97261	0.07566
2720.68684	0.07542
2719.40107	0.07524
2718.11530	0.07511
2716.82953	0.07501
2715.54376	0.07494
2714.25799	0.07491
2712.97222	0.07488
2711.68646	0.07485
2710.40069	0.07480
2709.11492	0.07470
2707.82915	0.07453
2706.54338	0.07432
2705.25761	0.07414
2703.97184	0.07401
2702.68607	0.07389
2701.40031	0.07378
2700.11454	0.07365
2698.82877	0.07350
2697.54300	0.07334
2696.25723	0.07322
2694.97146	0.07317
2693.68569	0.07315
2692.39992	0.07307
2691.11415	0.07290
2689.82839	0.07271
2688.54262	0.07255
2687.25685	0.07247
2685.97108	0.07245
2684.68531	0.07245
2683.39954	0.07240
2682.11377	0.07225
2680.82800	0.07203
2679.54224	0.07188
2678.25647	0.07193
2676.97070	0.07214
2675.68493	0.07234
2674.39916	0.07237
2673.11339	0.07219
2671.82762	0.07186
2670.54185	0.07154
2669.25608	0.07134
2667.97032	0.07126
2666.68455	0.07123
2665.39878	0.07121
2664.11301	0.07123
2662.82724	0.07131
2661.54147	0.07139
2660.25570	0.07139
2658.96993	0.07129
2657.68417	0.07115
2656.39840	0.07098
2655.11263	0.07077
2653.82686	0.07054
2652.54109	0.07031
2651.25532	0.07009
2649.96955	0.06979
2648.68378	0.06939
2647.39801	0.06890
2646.11225	0.06845
2644.82648	0.06814
2643.54071	0.06795
2642.25494	0.06777
2640.96917	0.06754
2639.68340	0.06728
2638.39763	0.06705
2637.11186	0.06681
2635.82609	0.06651
2634.54033	0.06619
2633.25456	0.06595
2631.96879	0.06585
2630.68302	0.06585
2629.39725	0.06582
2628.11148	0.06565
2626.82571	0.06531
2625.53994	0.06488
2624.25418	0.06446
2622.96841	0.06413
2621.68264	0.06391
2620.39687	0.06376
2619.11110	0.06358
2617.82533	0.06329
2616.53956	0.06295
2615.25379	0.06267
2613.96802	0.06254
2612.68226	0.06252
2611.39649	0.06250
2610.11072	0.06241
2608.82495	0.06228
2607.53918	0.06217
2606.25341	0.06218
2604.96764	0.06224
2603.68187	0.06210
2602.39611	0.06163
2601.11034	0.06101
2599.82457	0.06056
2598.53880	0.06042
2597.25303	0.06051
2595.96726	0.06062
2594.68149	0.06062
2593.39572	0.06045
2592.10995	0.06016
2590.82419	0.05992
2589.53842	0.05978
2588.25265	0.05960
2586.96688	0.05920
2585.68111	0.05860
2584.39534	0.05804
2583.10957	0.05779
2581.82380	0.05792
2580.53804	0.05822
2579.25227	0.05844
2577.96650	0.05844
2576.68073	0.05836
2575.39496	0.05830
2574.10919	0.05819
2572.82342	0.05789
2571.53765	0.05742
2570.25188	0.05696
2568.96612	0.05661
2567.68035	0.05634
2566.39458	0.05614
2565.10881	0.05609
2563.82304	0.05625
2562.53727	0.05653
2561.25150	0.05677
2559.96573	0.05682
2558.67997	0.05659
2557.39420	0.05616
2556.10843	0.05574
2554.82266	0.05553
2553.53689	0.05548
2552.25112	0.05533
2550.96535	0.05492
2549.67958	0.05436
2548.39381	0.05391
2547.10805	0.05376
2545.82228	0.05390
2544.53651	0.05419
2543.25074	0.05435
2541.96497	0.05420
2540.67920	0.05379
2539.39343	0.05336
2538.10766	0.05317
2536.82190	0.05321
2535.53613	0.05334
2534.25036	0.05344
2532.96459	0.05343
2531.67882	0.05322
2530.39305	0.05282
2529.10728	0.05245
2527.82151	0.05239
2526.53574	0.05261
2525.24998	0.05279
2523.96421	0.05263
2522.67844	0.05222
2521.39267	0.05188
2520.10690	0.05183
2518.82113	0.05197
2517.53536	0.05208
2516.24959	0.05209
2514.96383	0.05207
2513.67806	0.05210
2512.39229	0.05207
2511.10652	0.05186
2509.82075	0.05150
2508.53498	0.05121
2507.24921	0.05120
2505.96344	0.05147
2504.67767	0.05188
2503.39191	0.05220
2502.10614	0.05228
2500.82037	0.05213
2499.53460	0.05188
2498.24883	0.05162
2496.96306	0.05128
2495.67729	0.05076
2494.39152	0.05015
2493.10576	0.04970
2491.81999	0.04958
2490.53422	0.04973
2489.24845	0.04992
2487.96268	0.04993
2486.67691	0.04970
2485.39114	0.04938
2484.10537	0.04919
2482.81960	0.04928
2481.53384	0.04960
2480.24807	0.04996
2478.96230	0.05018
2477.67653	0.05017
2476.39076	0.04995
2475.10499	0.04964
2473.81922	0.04935
2472.53345	0.04922
2471.24769	0.04930
2469.96192	0.04954
2468.67615	0.04972
2467.39038	0.04973
2466.10461	0.04965
2464.81884	0.04969
2463.53307	0.04984
2462.24730	0.04987
2460.96153	0.04962
2459.67577	0.04926
2458.39000	0.04912
2457.10423	0.04931
2455.81846	0.04961
2454.53269	0.04974
2453.24692	0.04961
2451.96115	0.04930
2450.67538	0.04895
2449.38962	0.04875
2448.10385	0.04872
2446.81808	0.04878
2445.53231	0.04873
2444.24654	0.04854
2442.96077	0.04837
2441.67500	0.04844
2440.38923	0.04872
2439.10346	0.04898
2437.81770	0.04896
2436.53193	0.04864
2435.24616	0.04825
2433.96039	0.04803
2432.67462	0.04799
2431.38885	0.04797
2430.10308	0.04783
2428.81731	0.04764
2427.53155	0.04759
2426.24578	0.04773
2424.96001	0.04798
2423.67424	0.04824
2422.38847	0.04850
2421.10270	0.04873
2419.81693	0.04885
2418.53116	0.04879
2417.24539	0.04862
2415.95963	0.04849
2414.67386	0.04845
2413.38809	0.04843
2412.10232	0.04832
2410.81655	0.04808
2409.53078	0.04775
2408.24501	0.04737
2406.95924	0.04704
2405.67347	0.04687
2404.38771	0.04692
2403.10194	0.04717
2401.81617	0.04751
2400.53040	0.04783
2399.24463	0.04792
2397.95886	0.04784
2396.67309	0.04766
2395.38732	0.04748
2394.10156	0.04737
2392.81579	0.04729
2391.53002	0.04717
2390.24425	0.04705
2388.95848	0.04698
2387.67271	0.04701
2386.38694	0.04712
2385.10117	0.04732
2383.81540	0.04762
2382.52964	0.04792
2381.24387	0.04808
2379.95810	0.04802
2378.67233	0.04784
2377.38656	0.04771
2376.10079	0.04773
2374.81502	0.04784
2373.52925	0.04793
2372.24349	0.04792
2370.95772	0.04786
2369.67195	0.04789
2368.38618	0.04803
2367.10041	0.04822
2365.81464	0.04840
2364.52887	0.04866
2363.24310	0.04897
2361.95733	0.04918
2360.67157	0.04913
2359.38580	0.04896
2358.10003	0.04879
2356.81426	0.04867
2355.52849	0.04863
2354.24272	0.04867
2352.95695	0.04868
2351.67118	0.04849
2350.38542	0.04822
2349.09965	0.04816
2347.81388	0.04834
2346.52811	0.04844
2345.24234	0.04845
2343.95657	0.04873
2342.67080	0.04917
2341.38503	0.04912
2340.09926	0.04857
2338.81350	0.04848
2337.52773	0.04887
2336.24196	0.04858
2334.95619	0.04787
2333.67042	0.04799
2332.38465	0.04853
2331.09888	0.04812
2329.81311	0.04767
2328.52735	0.04818
2327.24158	0.04843
2325.95581	0.04854
2324.67004	0.04928
2323.38427	0.04956
2322.09850	0.04910
2320.81273	0.04890
2319.52696	0.04843
2318.24119	0.04776
2316.95543	0.04743
2315.66966	0.04689
2314.38389	0.04624
2313.09812	0.04578
2311.81235	0.04527
2310.52658	0.04495
2309.24081	0.04483
2307.95504	0.04479
2306.66928	0.04492
2305.38351	0.04503
2304.09774	0.04508
2302.81197	0.04504
2301.52620	0.04478
2300.24043	0.04435
2298.95466	0.04378
2297.66889	0.04324
2296.38312	0.04285
2295.09736	0.04266
2293.81159	0.04269
2292.52582	0.04283
2291.24005	0.04292
2289.95428	0.04273
2288.66851	0.04225
2287.38274	0.04168
2286.09697	0.04125
2284.81121	0.04099
2283.52544	0.04075
2282.23967	0.04043
2280.95390	0.04004
2279.66813	0.03965
2278.38236	0.03934
2277.09659	0.03919
2275.81082	0.03920
2274.52505	0.03926
2273.23929	0.03918
2271.95352	0.03889
2270.66775	0.03846
2269.38198	0.03801
2268.09621	0.03754
2266.81044	0.03697
2265.52467	0.03639
2264.23890	0.03596
2262.95314	0.03580
2261.66737	0.03588
2260.38160	0.03612
2259.09583	0.03654
2257.81006	0.03710
2256.52429	0.03765
2255.23852	0.03789
2253.95275	0.03757
2252.66698	0.03673
2251.38122	0.03570
2250.09545	0.03490
2248.80968	0.03458
2247.52391	0.03440
2246.23814	0.03448
2244.95237	0.03473
2243.66660	0.03498
2242.38083	0.03505
2241.09507	0.03494
2239.80930	0.03497
2238.52353	0.03541
2237.23776	0.03606
2235.95199	0.03631
2234.66622	0.03581
2233.38045	0.03487
2232.09468	0.03410
2230.80891	0.03376
2229.52315	0.03368
2228.23738	0.03356
2226.95161	0.03331
2225.66584	0.03292
2224.38007	0.03240
2223.09430	0.03197
2221.80853	0.03204
2220.52276	0.03271
2219.23700	0.03349
2217.95123	0.03365
2216.66546	0.03299
2215.37969	0.03203
2214.09392	0.03139
2212.80815	0.03130
2211.52238	0.03158
2210.23661	0.03187
2208.95084	0.03179
2207.66508	0.03128
2206.37931	0.03073
2205.09354	0.03069
2203.80777	0.03115
2202.52200	0.03139
2201.23623	0.03070
2199.95046	0.02924
2198.66469	0.02801
2197.37893	0.02780
2196.09316	0.02835
2194.80739	0.02887
2193.52162	0.02898
2192.23585	0.02883
2190.95008	0.02847
2189.66431	0.02778
2188.37854	0.02693
2187.09277	0.02634
2185.80701	0.02610
2184.52124	0.02586
2183.23547	0.02544
2181.94970	0.02520
2180.66393	0.02558
2179.37816	0.02643
2178.09239	0.02715
2176.80662	0.02739
2175.52085	0.02718
2174.23509	0.02672
2172.94932	0.02611
2171.66355	0.02545
2170.37778	0.02488
2169.09201	0.02437
2167.80624	0.02366
2166.52047	0.02247
2165.23470	0.02091
2163.94894	0.01964
2162.66317	0.01937
2161.37740	0.02021
2160.09163	0.02141
2158.80586	0.02196
2157.52009	0.02152
2156.23432	0.02073
2154.94855	0.02053
2153.66278	0.02141
2152.37702	0.02307
2151.09125	0.02464
2149.80548	0.02547
2148.51971	0.02553
2147.23394	0.02521
2145.94817	0.02484
2144.66240	0.02458
2143.37663	0.02453
2142.09087	0.02460
2140.80510	0.02464
2139.51933	0.02471
2138.23356	0.02516
2136.94779	0.02625
2135.66202	0.02773
2134.37625	0.02893
2133.09048	0.02942
2131.80471	0.02937
2130.51895	0.02935
2129.23318	0.02964
2127.94741	0.03010
2126.66164	0.03046
2125.37587	0.03068
2124.09010	0.03083
2122.80433	0.03092
2121.51856	0.03095
2120.23280	0.03102
2118.94703	0.03120
2117.66126	0.03153
2116.37549	0.03195
2115.08972	0.03233
2113.80395	0.03242
2112.51818	0.03207
2111.23241	0.03142
2109.94664	0.03084
2108.66088	0.03063
2107.37511	0.03078
2106.08934	0.03101
2104.80357	0.03101
2103.51780	0.03073
2102.23203	0.03043
2100.94626	0.03030
2099.66049	0.02959
2098.37473	0.02906
2097.08896	0.02867
2095.80319	0.02847
2094.51742	0.02877
2093.23165	0.02949
2091.94588	0.03013
2090.66011	0.03017
2089.37434	0.02966
2088.08857	0.02910
2086.80281	0.02888
2085.51704	0.02894
2084.23127	0.02902
2082.94550	0.02902
2081.65973	0.02908
2080.37396	0.02925
2079.08819	0.02932
2077.80242	0.02901
2076.51666	0.02832
2075.23089	0.02754
2073.94512	0.02703
2072.65935	0.02687
2071.37358	0.02686
2070.08781	0.02666
2068.80204	0.02619
2067.51627	0.02569
2066.23050	0.02556
2064.94474	0.02598
2063.65897	0.02665
2062.37320	0.02704
2061.08743	0.02679
2059.80166	0.02597
2058.51589	0.02502
2057.23012	0.02436
2055.94435	0.02410
2054.65859	0.02403
2053.37282	0.02395
2052.08705	0.02375
2050.80128	0.02337
2049.51551	0.02278
2048.22974	0.02210
2046.94397	0.02158
2045.65820	0.02139
2044.37243	0.02148
2043.08667	0.02170
2041.80090	0.02188
2040.51513	0.02184
2039.22936	0.02140
2037.94359	0.02046
2036.65782	0.01919
2035.37205	0.01804
2034.08628	0.01739
2032.80052	0.01722
2031.51475	0.01729
2030.22898	0.01750
2028.94321	0.01798
2027.65744	0.01868
2026.37167	0.01936
2025.08590	0.01986
2023.80013	0.02020
2022.51436	0.02025
2021.22860	0.01974
2019.94283	0.01869
2018.65706	0.01757
2017.37129	0.01686
2016.08552	0.01671
2014.79975	0.01703
2013.51398	0.01774
2012.22821	0.01870
2010.94245	0.01962
2009.65668	0.02018
2008.37091	0.02018
2007.08514	0.01973
2005.79937	0.01925
2004.51360	0.01923
2003.22783	0.01979
2001.94206	0.02054
2000.65629	0.02095
1999.37053	0.02089
1998.08476	0.02065
1996.79899	0.02059
1995.51322	0.02078
1994.22745	0.02119
1992.94168	0.02170
1991.65591	0.02219
1990.37014	0.02252
1989.08438	0.02271
1987.79861	0.02281
1986.51284	0.02286
1985.22707	0.02278
1983.94130	0.02248
1982.65553	0.02190
1981.36976	0.02100
1980.08399	0.01990
1978.79822	0.01888
1977.51246	0.01831
1976.22669	0.01832
1974.94092	0.01883
1973.65515	0.01957
1972.36938	0.02023
1971.08361	0.02058
1969.79784	0.02056
1968.51207	0.02036
1967.22631	0.02019
1965.94054	0.02004
1964.65477	0.01976
1963.36900	0.01937
1962.08323	0.01909
1960.79746	0.01915
1959.51169	0.01954
1958.22592	0.02014
1956.94015	0.02094
1955.65439	0.02188
1954.36862	0.02269
1953.08285	0.02306
1951.79708	0.02299
1950.51131	0.02280
1949.22554	0.02273
1947.93977	0.02276
1946.65400	0.02275
1945.36823	0.02268
1944.08247	0.02264
1942.79670	0.02269
1941.51093	0.02280
1940.22516	0.02294
1938.93939	0.02302
1937.65362	0.02300
1936.36785	0.02290
1935.08208	0.02284
1933.79632	0.02287
1932.51055	0.02296
1931.22478	0.02304
1929.93901	0.02318
1928.65324	0.02349
1927.36747	0.02400
1926.08170	0.02449
1924.79593	0.02468
1923.51016	0.02452
1922.22440	0.02427
1920.93863	0.02421
1919.65286	0.02437
1918.36709	0.02461
1917.08132	0.02477
1915.79555	0.02481
1914.50978	0.02472
1913.22401	0.02450
1911.93825	0.02425
1910.65248	0.02411
1909.36671	0.02416
1908.08094	0.02434
1906.79517	0.02456
1905.50940	0.02477
1904.22363	0.02490
1902.93786	0.02490
1901.65209	0.02481
1900.36633	0.02472
1899.08056	0.02466
1897.79479	0.02462
1896.50902	0.02453
1895.22325	0.02446
1893.93748	0.02448
1892.65171	0.02461
1891.36594	0.02478
1890.08018	0.02491
1888.79441	0.02498
1887.50864	0.02502
1886.22287	0.02499
1884.93710	0.02492
1883.65133	0.02483
1882.36556	0.02473
1881.07979	0.02460
1879.79402	0.02445
1878.50826	0.02436
1877.22249	0.02437
1875.93672	0.02449
1874.65095	0.02463
1873.36518	0.02473
1872.07941	0.02483
1870.79364	0.02490
1869.50787	0.02491
1868.22211	0.02481
1866.93634	0.02464
1865.65057	0.02448
1864.36480	0.02433
1863.07903	0.02417
1861.79326	0.02400
1860.50749	0.02384
1859.22172	0.02371
1857.93595	0.02368
1856.65019	0.02377
1855.36442	0.02397
1854.07865	0.02417
1852.79288	0.02429
1851.50711	0.02427
1850.22134	0.02421
1848.93557	0.02418
1847.64980	0.02421
1846.36404	0.02428
1845.07827	0.02435
1843.79250	0.02441
1842.50673	0.02442
1841.22096	0.02434
1839.93519	0.02419
1838.64942	0.02401
1837.36365	0.02389
1836.07788	0.02389
1834.79212	0.02398
1833.50635	0.02411
1832.22058	0.02420
1830.93481	0.02425
1829.64904	0.02430
1828.36327	0.02438
1827.07750	0.02441
1825.79173	0.02433
1824.50597	0.02413
1823.22020	0.02381
1821.93443	0.02342
1820.64866	0.02305
1819.36289	0.02282
1818.07712	0.02283
1816.79135	0.02305
1815.50558	0.02335
1814.21981	0.02361
1812.93405	0.02375
1811.64828	0.02377
1810.36251	0.02373
1809.07674	0.02369
1807.79097	0.02367
1806.50520	0.02363
1805.21943	0.02355
1803.93366	0.02347
1802.64790	0.02342
1801.36213	0.02341
1800.07636	0.02340
1798.79059	0.02338
1797.50482	0.02338
1796.21905	0.02344
1794.93328	0.02353
1793.64751	0.02358
1792.36174	0.02350
1791.07598	0.02329
1789.79021	0.02300
1788.50444	0.02269
1787.21867	0.02246
1785.93290	0.02236
1784.64713	0.02239
1783.36136	0.02248
1782.07559	0.02257
1780.78983	0.02261
1779.50406	0.02263
1778.21829	0.02265
1776.93252	0.02267
1775.64675	0.02269
1774.36098	0.02272
1773.07521	0.02273
1771.78944	0.02273
1770.50367	0.02274
1769.21791	0.02280
1767.93214	0.02288
1766.64637	0.02291
1765.36060	0.02284
1764.07483	0.02268
1762.78906	0.02251
1761.50329	0.02242
1760.21752	0.02248
1758.93176	0.02262
1757.64599	0.02278
1756.36022	0.02289
1755.07445	0.02298
1753.78868	0.02311
1752.50291	0.02332
1751.21714	0.02361
1749.93137	0.02391
1748.64560	0.02415
1747.35984	0.02431
1746.07407	0.02444
1744.78830	0.02459
1743.50253	0.02481
1742.21676	0.02508
1740.93099	0.02539
1739.64522	0.02575
1738.35945	0.02617
1737.07369	0.02663
1735.78792	0.02707
1734.50215	0.02744
1733.21638	0.02777
1731.93061	0.02812
1730.64484	0.02849
1729.35907	0.02886
1728.07330	0.02920
1726.78753	0.02956
1725.50177	0.02998
1724.21600	0.03043
1722.93023	0.03085
1721.64446	0.03121
1720.35869	0.03156
1719.07292	0.03199
1717.78715	0.03252
1716.50138	0.03311
1715.21561	0.03374
1713.92985	0.03449
1712.64408	0.03544
1711.35831	0.03666
1710.07254	0.03809
1708.78677	0.03967
1707.50100	0.04138
1706.21523	0.04324
1704.92946	0.04530
1703.64370	0.04757
1702.35793	0.05002
1701.07216	0.05264
1699.78639	0.05539
1698.50062	0.05825
1697.21485	0.06119
1695.92908	0.06420
1694.64331	0.06723
1693.35754	0.07022
1692.07178	0.07319
1690.78601	0.07618
1689.50024	0.07923
1688.21447	0.08235
1686.92870	0.08554
1685.64293	0.08882
1684.35716	0.09221
1683.07139	0.09567
1681.78563	0.09925
1680.49986	0.10298
1679.21409	0.10690
1677.92832	0.11097
1676.64255	0.11513
1675.35678	0.11935
1674.07101	0.12360
1672.78524	0.12794
1671.49947	0.13242
1670.21371	0.13704
1668.92794	0.14173
1667.64217	0.14635
1666.35640	0.15082
1665.07063	0.15514
1663.78486	0.15937
1662.49909	0.16356
1661.21332	0.16767
1659.92756	0.17163
1658.64179	0.17536
1657.35602	0.17881
1656.07025	0.18205
1654.78448	0.18520
1653.49871	0.18829
1652.21294	0.19122
1650.92717	0.19386
1649.64140	0.19616
1648.35564	0.19827
1647.06987	0.20034
1645.78410	0.20243
1644.49833	0.20449
1643.21256	0.20643
1641.92679	0.20823
1640.64102	0.20992
1639.35525	0.21153
1638.06949	0.21311
1636.78372	0.21464
1635.49795	0.21606
1634.21218	0.21725
1632.92641	0.21815
1631.64064	0.21870
1630.35487	0.21887
1629.06910	0.21857
1627.78333	0.21775
1626.49757	0.21641
1625.21180	0.21458
1623.92603	0.21228
1622.64026	0.20953
1621.35449	0.20636
1620.06872	0.20284
1618.78295	0.19905
1617.49718	0.19506
1616.21142	0.19095
1614.92565	0.18673
1613.63988	0.18239
1612.35411	0.17797
1611.06834	0.17349
1609.78257	0.16903
1608.49680	0.16459
1607.21103	0.16018
1605.92526	0.15588
1604.63950	0.15177
1603.35373	0.14790
1602.06796	0.14428
1600.78219	0.14086
1599.49642	0.13761
1598.21065	0.13453
1596.92488	0.13163
1595.63911	0.12896
1594.35335	0.12652
1593.06758	0.12431
1591.78181	0.12235
1590.49604	0.12067
1589.21027	0.11928
1587.92450	0.11814
1586.63873	0.11725
1585.35296	0.11661
1584.06719	0.11620
1582.78143	0.11599
1581.49566	0.11596
1580.20989	0.11612
1578.92412	0.11654
1577.63835	0.11730
1576.35258	0.11844
1575.06681	0.11992
1573.78104	0.12162
1572.49528	0.12342
1571.20951	0.12533
1569.92374	0.12739
1568.63797	0.12967
1567.35220	0.13217
1566.06643	0.13483
1564.78066	0.13759
1563.49489	0.14039
1562.20912	0.14321
1560.92336	0.14609
1559.63759	0.14901
1558.35182	0.15188
1557.06605	0.15460
1555.78028	0.15711
1554.49451	0.15946
1553.20874	0.16166
1551.92297	0.16372
1550.63721	0.16565
1549.35144	0.16745
1548.06567	0.16909
1546.77990	0.17054
1545.49413	0.17182
1544.20836	0.17296
1542.92259	0.17396
1541.63682	0.17482
1540.35105	0.17556
1539.06529	0.17618
1537.77952	0.17663
1536.49375	0.17689
1535.20798	0.17699
1533.92221	0.17695
1532.63644	0.17682
1531.35067	0.17659
1530.06490	0.17627
1528.77914	0.17586
1527.49337	0.17538
1526.20760	0.17485
1524.92183	0.17426
1523.63606	0.17361
1522.35029	0.17287
1521.06452	0.17204
1519.77875	0.17112
1518.49298	0.17009
1517.20722	0.16890
1515.92145	0.16748
1514.63568	0.16580
1513.34991	0.16387
1512.06414	0.16174
1510.77837	0.15944
1509.49260	0.15697
1508.20683	0.15432
1506.92107	0.15152
1505.63530	0.14858
1504.34953	0.14556
1503.06376	0.14251
1501.77799	0.13946
1500.49222	0.13641
1499.20645	0.13334
1497.92068	0.13020
1496.63491	0.12700
1495.34915	0.12379
1494.06338	0.12064
1492.77761	0.11757
1491.49184	0.11463
1490.20607	0.11186
1488.92030	0.10931
1487.63453	0.10703
1486.34876	0.10502
1485.06299	0.10330
1483.77723	0.10185
1482.49146	0.10071
1481.20569	0.09989
1479.91992	0.09940
1478.63415	0.09924
1477.34838	0.09936
1476.06261	0.09976
1474.77684	0.10046
1473.49108	0.10144
1472.20531	0.10267
1470.91954	0.10405
1469.63377	0.10545
1468.34800	0.10683
1467.06223	0.10820
1465.77646	0.10964
1464.49069	0.11123
1463.20492	0.11295
1461.91916	0.11475
1460.63339	0.11658
1459.34762	0.11845
1458.06185	0.12035
1456.77608	0.12224
1455.49031	0.12399
1454.20454	0.12550
1452.91877	0.12674
1451.63301	0.12769
1450.34724	0.12838
1449.06147	0.12878
1447.77570	0.12889
1446.48993	0.12874
1445.20416	0.12834
1443.91839	0.12774
1442.63262	0.12698
1441.34685	0.12609
1440.06109	0.12506
1438.77532	0.12390
1437.48955	0.12260
1436.20378	0.12120
1434.91801	0.11973
1433.63224	0.11821
1432.34647	0.11667
1431.06070	0.11518
1429.77494	0.11380
1428.48917	0.11260
1427.20340	0.11159
1425.91763	0.11078
1424.63186	0.11018
1423.34609	0.10972
1422.06032	0.10934
1420.77455	0.10902
1419.48878	0.10881
1418.20302	0.10872
1416.91725	0.10875
1415.63148	0.10887
1414.34571	0.10904
1413.05994	0.10927
1411.77417	0.10953
1410.48840	0.10980
1409.20263	0.11008
1407.91687	0.11036
1406.63110	0.11063
1405.34533	0.11089
1404.05956	0.11111
1402.77379	0.11129
1401.48802	0.11139
1400.20225	0.11137
1398.91648	0.11123
1397.63071	0.11100
1396.34495	0.11074
1395.05918	0.11047
1393.77341	0.11020
1392.48764	0.10990
1391.20187	0.10959
1389.91610	0.10928
1388.63033	0.10900
1387.34456	0.10872
1386.05880	0.10841
1384.77303	0.10806
1383.48726	0.10768
1382.20149	0.10731
1380.91572	0.10692
1379.62995	0.10651
1378.34418	0.10604
1377.05841	0.10548
1375.77264	0.10481
1374.48688	0.10404
1373.20111	0.10320
1371.91534	0.10229
1370.62957	0.10129
1369.34380	0.10021
1368.05803	0.09906
1366.77226	0.09789
1365.48649	0.09674
1364.20073	0.09566
1362.91496	0.09464
1361.62919	0.09373
1360.34342	0.09296
1359.05765	0.09240
1357.77188	0.09205
1356.48611	0.09188
1355.20034	0.09188
1353.91457	0.09205
1352.62881	0.09240
1351.34304	0.09293
1350.05727	0.09361
1348.77150	0.09442
1347.48573	0.09529
1346.19996	0.09621
1344.91419	0.09714
1343.62842	0.09808
1342.34266	0.09899
1341.05689	0.09984
1339.77112	0.10057
1338.48535	0.10115
1337.19958	0.10155
1335.91381	0.10177
1334.62804	0.10174
1333.34227	0.10146
1332.05650	0.10094
1330.77074	0.10026
1329.48497	0.09949
1328.19920	0.09867
1326.91343	0.09782
1325.62766	0.09699
1324.34189	0.09622
1323.05612	0.09556
1321.77035	0.09504
1320.48459	0.09461
1319.19882	0.09426
1317.91305	0.09394
1316.62728	0.09366
1315.34151	0.09336
1314.05574	0.09303
1312.76997	0.09264
1311.48420	0.09219
1310.19843	0.09168
1308.91267	0.09114
1307.62690	0.09062
1306.34113	0.09019
1305.05536	0.08987
1303.76959	0.08961
1302.48382	0.08935
1301.19805	0.08907
1299.91228	0.08877
1298.62652	0.08848
1297.34075	0.08824
1296.05498	0.08808
1294.76921	0.08805
1293.48344	0.08818
1292.19767	0.08846
1290.91190	0.08886
1289.62613	0.08934
1288.34036	0.08988
1287.05460	0.09047
1285.76883	0.09114
1284.48306	0.09185
1283.19729	0.09251
1281.91152	0.09302
1280.62575	0.09336
1279.33998	0.09355
1278.05421	0.09367
1276.76845	0.09380
1275.48268	0.09393
1274.19691	0.09404
1272.91114	0.09413
1271.62537	0.09422
1270.33960	0.09437
1269.05383	0.09462
1267.76806	0.09498
1266.48229	0.09544
1265.19653	0.09593
1263.91076	0.09644
1262.62499	0.09697
1261.33922	0.09757
1260.05345	0.09823
1258.76768	0.09894
1257.48191	0.09968
1256.19614	0.10046
1254.91037	0.10130
1253.62461	0.10222
1252.33884	0.10323
1251.05307	0.10427
1249.76730	0.10535
1248.48153	0.10647
1247.19576	0.10762
1245.90999	0.10882
1244.62422	0.11004
1243.33846	0.11124
1242.05269	0.11237
1240.76692	0.11341
1239.48115	0.11430
1238.19538	0.11502
1236.90961	0.11557
1235.62384	0.11597
1234.33807	0.11622
1233.05230	0.11630
1231.76654	0.11616
1230.48077	0.11579
1229.19500	0.11518
1227.90923	0.11432
1226.62346	0.11326
1225.33769	0.11204
1224.05192	0.11070
1222.76615	0.10929
1221.48039	0.10787
1220.19462	0.10650
1218.90885	0.10520
1217.62308	0.10397
1216.33731	0.10284
1215.05154	0.10189
1213.76577	0.10118
1212.48000	0.10075
1211.19423	0.10055
1209.90847	0.10049
1208.62270	0.10055
1207.33693	0.10070
1206.05116	0.10092
1204.76539	0.10117
1203.47962	0.10132
1202.19385	0.10128
1200.90808	0.10103
1199.62232	0.10059
1198.33655	0.09983
1197.05078	0.09888
1195.76501	0.09779
1194.47924	0.09662
1193.19347	0.09542
1191.90770	0.09422
1190.62193	0.09304
1189.33616	0.09189
1188.05040	0.09079
1186.76463	0.08979
1185.47886	0.08888
1184.19309	0.08806
1182.90732	0.08734
1181.62155	0.08670
1180.33578	0.08615
1179.05001	0.08570
1177.76425	0.08533
1176.47848	0.08501
1175.19271	0.08469
1173.90694	0.08436
1172.62117	0.08407
1171.33540	0.08387
1170.04963	0.08378
1168.76386	0.08377
1167.47809	0.08378
1166.19233	0.08375
1164.90656	0.08368
1163.62079	0.08360
1162.33502	0.08351
1161.04925	0.08339
1159.76348	0.08317
1158.47771	0.08281
1157.19194	0.08227
1155.90618	0.08158
1154.62041	0.08077
1153.33464	0.07994
1152.04887	0.07914
1150.76310	0.07833
1149.47733	0.07747
1148.19156	0.07652
1146.90579	0.07556
1145.62002	0.07465
1144.33426	0.07387
1143.04849	0.07320
1141.76272	0.07261
1140.47695	0.07204
1139.19118	0.07148
1137.90541	0.07091
1136.61964	0.07036
1135.33387	0.06986
1134.04811	0.06943
1132.76234	0.06907
1131.47657	0.06876
1130.19080	0.06847
1128.90503	0.06818
1127.61926	0.06788
1126.33349	0.06759
1125.04772	0.06736
1123.76195	0.06723
1122.47619	0.06719
1121.19042	0.06718
1119.90465	0.06709
1118.61888	0.06690
1117.33311	0.06671
1116.04734	0.06659
1114.76157	0.06662
1113.47580	0.06678
1112.19004	0.06700
1110.90427	0.06720
1109.61850	0.06735
1108.33273	0.06746
1107.04696	0.06760
1105.76119	0.06782
1104.47542	0.06814
1103.18965	0.06851
1101.90388	0.06892
1100.61812	0.06934
1099.33235	0.06976
1098.04658	0.07016
1096.76081	0.07057
1095.47504	0.07102
1094.18927	0.07159
1092.90350	0.07229
1091.61773	0.07308
1090.33197	0.07389
1089.04620	0.07474
1087.76043	0.07573
1086.47466	0.07691
1085.18889	0.07819
1083.90312	0.07937
1082.61735	0.08025
1081.33158	0.08077
1080.04581	0.08099
1078.76005	0.08096
1077.47428	0.08071
1076.18851	0.08032
1074.90274	0.07991
1073.61697	0.07956
1072.33120	0.07928
1071.04543	0.07903
1069.75966	0.07880
1068.47390	0.07861
1067.18813	0.07846
1065.90236	0.07834
1064.61659	0.07822
1063.33082	0.07805
1062.04505	0.07783
1060.75928	0.07759
1059.47351	0.07734
1058.18774	0.07707
1056.90198	0.07673
1055.61621	0.07632
1054.33044	0.07587
1053.04467	0.07547
1051.75890	0.07510
1050.47313	0.07472
1049.18736	0.07433
1047.90159	0.07398
1046.61583	0.07375
1045.33006	0.07360
1044.04429	0.07348
1042.75852	0.07335
1041.47275	0.07326
1040.18698	0.07330
1038.90121	0.07353
1037.61544	0.07390
1036.32967	0.07431
1035.04391	0.07470
1033.75814	0.07505
1032.47237	0.07535
1031.18660	0.07554
1029.90083	0.07552
1028.61506	0.07524
1027.32929	0.07468
1026.04352	0.07390
1024.75775	0.07300
1023.47199	0.07210
1022.18622	0.07125
1020.90045	0.07050
1019.61468	0.06982
1018.32891	0.06926
1017.04314	0.06881
1015.75737	0.06842
1014.47160	0.06798
1013.18584	0.06744
1011.90007	0.06684
1010.61430	0.06625
1009.32853	0.06572
1008.04276	0.06522
1006.75699	0.06470
1005.47122	0.06409
1004.18545	0.06337
1002.89968	0.06259
1001.61392	0.06186
1000.32815	0.06122
999.04238	0.06067
997.75661	0.06018
996.47084	0.05972
995.18507	0.05926
993.89930	0.05878
992.61353	0.05826
991.32777	0.05770
990.04200	0.05713
988.75623	0.05665
987.47046	0.05632
986.18469	0.05612
984.89892	0.05597
983.61315	0.05580
982.32738	0.05564
981.04161	0.05555
979.75585	0.05558
978.47008	0.05574
977.18431	0.05599
975.89854	0.05621
974.61277	0.05630
973.32700	0.05621
972.04123	0.05598
970.75546	0.05565
969.46970	0.05529
968.18393	0.05488
966.89816	0.05447
965.61239	0.05410
964.32662	0.05379
963.04085	0.05355
961.75508	0.05332
960.46931	0.05307
959.18354	0.05279
957.89778	0.05250
956.61201	0.05226
955.32624	0.05203
954.04047	0.05179
952.75470	0.05154
951.46893	0.05131
950.18316	0.05117
948.89739	0.05111
947.61163	0.05109
946.32586	0.05109
945.04009	0.05107
943.75432	0.05104
942.46855	0.05100
941.18278	0.05098
939.89701	0.05098
938.61124	0.05102
937.32547	0.05108
936.03971	0.05112
934.75394	0.05108
933.46817	0.05093
932.18240	0.05069
930.89663	0.05044
929.61086	0.05028
928.32509	0.05024
927.03932	0.05026
925.75356	0.05028
924.46779	0.05029
923.18202	0.05030
921.89625	0.05030
920.61048	0.05023
919.32471	0.05007
918.03894	0.04985
916.75317	0.04961
915.46740	0.04934
914.18164	0.04901
912.89587	0.04864
911.61010	0.04830
910.32433	0.04804
909.03856	0.04786
907.75279	0.04773
906.46702	0.04766
905.18125	0.04764
903.89549	0.04762
902.60972	0.04750
901.32395	0.04725
900.03818	0.04693
898.75241	0.04664
897.46664	0.04645
896.18087	0.04633
894.89510	0.04619
893.60933	0.04603
892.32357	0.04590
891.03780	0.04586
889.75203	0.04591
888.46626	0.04600
887.18049	0.04608
885.89472	0.04614
884.60895	0.04615
883.32318	0.04612
882.03742	0.04604
880.75165	0.04594
879.46588	0.04588
878.18011	0.04590
876.89434	0.04599
875.60857	0.04609
874.32280	0.04611
873.03703	0.04598
871.75126	0.04577
870.46550	0.04560
869.17973	0.04550
867.89396	0.04542
866.60819	0.04534
865.32242	0.04528
864.03665	0.04530
862.75088	0.04536
861.46511	0.04541
860.17935	0.04538
858.89358	0.04528
857.60781	0.04518
856.32204	0.04515
855.03627	0.04521
853.75050	0.04531
852.46473	0.04535
851.17896	0.04527
849.89319	0.04511
848.60743	0.04493
847.32166	0.04481
846.03589	0.04474
844.75012	0.04471
843.46435	0.04466
842.17858	0.04456
840.89281	0.04442
839.60704	0.04427
838.32128	0.04417
837.03551	0.04413
835.74974	0.04413
834.46397	0.04413
833.17820	0.04408
831.89243	0.04400
830.60666	0.04394
829.32089	0.04397
828.03512	0.04410
826.74936	0.04427
825.46359	0.04444
824.17782	0.04457
822.89205	0.04473
821.60628	0.04495
820.32051	0.04527
819.03474	0.04563
817.74897	0.04595
816.46321	0.04616
815.17744	0.04625
813.89167	0.04627
812.60590	0.04630
811.32013	0.04641
810.03436	0.04659
808.74859	0.04682
807.46282	0.04706
806.17705	0.04728
804.89129	0.04745
803.60552	0.04760
802.31975	0.04774
801.03398	0.04784
799.74821	0.04789
798.46244	0.04789
797.17667	0.04792
795.89090	0.04805
794.60513	0.04827
793.31937	0.04855
792.03360	0.04888
790.74783	0.04919
789.46206	0.04939
788.17629	0.04945
786.89052	0.04951
785.60475	0.04965
784.31898	0.04984
783.03322	0.04995
781.74745	0.04994
780.46168	0.04993
779.17591	0.05006
777.89014	0.05032
776.60437	0.05058
775.31860	0.05080
774.03283	0.05101
772.74706	0.05123
771.46130	0.05145
770.17553	0.05162
768.88976	0.05180
767.60399	0.05203
766.31822	0.05234
765.03245	0.05265
763.74668	0.05290
762.46091	0.05308
761.17515	0.05323
759.88938	0.05338
758.60361	0.05352
757.31784	0.05365
756.03207	0.05381
754.74630	0.05405
753.46053	0.05436
752.17476	0.05471
750.88899	0.05503
749.60323	0.05528
748.31746	0.05546
747.03169	0.05563
745.74592	0.05584
744.46015	0.05614
743.17438	0.05649
741.88861	0.05680
740.60284	0.05696
739.31708	0.05701
738.03131	0.05709
736.74554	0.05734
735.45977	0.05771
734.17400	0.05805
732.88823	0.05826
731.60246	0.05843
730.31669	0.05867
729.03092	0.05899
727.74516	0.05930
726.45939	0.05955
725.17362	0.05976
723.88785	0.05996
722.60208	0.06036
721.31631	0.06087
720.03054	0.06134
718.74477	0.06173
717.45901	0.06204
716.17324	0.06230
714.88747	0.06250
713.60170	0.06266
712.31593	0.06281
711.03016	0.06300
709.74439	0.06326
708.45862	0.06358
707.17285	0.06396
705.88709	0.06436
704.60132	0.06475
703.31555	0.06506
702.02978	0.06528
700.74401	0.06546
699.45824	0.06564
698.17247	0.06586
696.88670	0.06608
695.60094	0.06630
694.31517	0.06650
693.02940	0.06668
691.74363	0.06684
690.45786	0.06698
689.17209	0.06710
687.88632	0.06719
686.60055	0.06725
685.31478	0.06732
684.02902	0.06741
682.74325	0.06759
681.45748	0.06786
680.17171	0.06818
678.88594	0.06849
677.60017	0.06873
676.31440	0.06886
675.02863	0.06894
673.74287	0.06905
672.45710	0.06922
671.17133	0.06944
669.88556	0.06967
668.59979	0.06989
667.31402	0.07008
666.02825	0.07019
664.74248	0.07037
663.45671	0.07058
662.17095	0.07081
660.88518	0.07103
659.59941	0.07119
658.31364	0.07127
657.02787	0.07130
655.74210	0.07134
654.45633	0.07143
653.17056	0.07159
651.88480	0.07180
650.59903	0.07200
649.31326	0.07213
648.02749	0.07219
646.74172	0.07223
645.45595	0.07230
644.17018	0.07241
642.88441	0.07254
641.59864	0.07264
640.31288	0.07268
639.02711	0.07267
637.74134	0.07261
636.45557	0.07255
635.16980	0.07252
633.88403	0.07253
632.59826	0.07259
631.31249	0.07260
630.02673	0.07214
628.74096	0.07140
627.45519	0.07190
626.16942	0.07089
624.88365	0.06849
623.59788	0.06545
622.31211	0.06245
621.02634	0.06068
619.74057	0.06116
618.45481	0.06395
617.16904	0.06796
615.88327	0.07144
614.59750	0.07296
613.31173	0.07231
612.02596	0.07046
610.74019	0.06871
609.45442	0.06787
608.16866	0.06795
606.88289	0.06834
605.59712	0.06843
604.31135	0.06832
603.02558	0.06871
601.73981	0.06999
600.45404	0.07172
599.16827	0.07315
597.88250	0.07395
596.59674	0.07429
595.31097	0.07444
594.02520	0.07449
592.73943	0.07442
591.45366	0.07429
590.16789	0.07426
588.88212	0.07444
587.59635	0.07472
586.31059	0.07490
585.02482	0.07484
583.73905	0.07465
582.45328	0.07449
581.16751	0.07448
579.88174	0.07456
578.59597	0.07464
577.31020	0.07466
576.02443	0.07468
574.73867	0.07475
573.45290	0.07484
572.16713	0.07491
570.88136	0.07496
569.59559	0.07505
568.30982	0.07522
567.02405	0.07539
565.73828	0.07549
564.45251	0.07551
563.16675	0.07553
561.88098	0.07560
560.59521	0.07572
559.30944	0.07583
558.02367	0.07593
556.73790	0.07605
555.45213	0.07624
554.16636	0.07647
552.88060	0.07665
551.59483	0.07671
550.30906	0.07664
549.02329	0.07650
547.73752	0.07635
546.45175	0.07619
545.16598	0.07600
543.88021	0.07580
542.59444	0.07562
541.30868	0.07543
540.02291	0.07526
538.73714	0.07516
537.45137	0.07519
536.16560	0.07538
534.87983	0.07564
533.59406	0.07587
532.30829	0.07598
531.02253	0.07593
529.73676	0.07578
528.45099	0.07566
527.16522	0.07561
525.87945	0.07557
524.59368	0.07545
523.30791	0.07519
522.02214	0.07486
520.73637	0.07455
519.45061	0.07429
518.16484	0.07406
516.87907	0.07384
515.59330	0.07366
514.30753	0.07355
513.02176	0.07351
511.73599	0.07349
510.45022	0.07349
509.16446	0.07346
507.87869	0.07331
506.59292	0.07302
505.30715	0.07264
504.02138	0.07229
502.73561	0.07198
501.44984	0.07169
500.16407	0.07138
498.87830	0.07110
497.59254	0.07088
496.30677	0.07069
495.02100	0.07047
493.73523	0.07019
492.44946	0.06989
491.16369	0.06962
489.87792	0.06937
488.59215	0.06915
487.30639	0.06896
486.02062	0.06881
484.73485	0.06866
483.44908	0.06847
482.16331	0.06822
480.87754	0.06788
479.59177	0.06749
478.30600	0.06711
477.02023	0.06682
475.73447	0.06663
474.44870	0.06650
473.16293	0.06634
471.87716	0.06607
470.59139	0.06566
469.30562	0.06521
468.01985	0.06484
466.73408	0.06466
465.44832	0.06461
464.16255	0.06452
462.87678	0.06425
461.59101	0.06384
460.30524	0.06345
459.01947	0.06316
457.73370	0.06298
456.44793	0.06280
455.16216	0.06255
453.87640	0.06222
452.59063	0.06183
451.30486	0.06142
450.01909	0.06101
448.73332	0.06061
447.44755	0.06022
446.16178	0.05986
444.87601	0.05956
443.59025	0.05933
442.30448	0.05912
441.01871	0.05888
439.73294	0.05860
438.44717	0.05828
437.16140	0.05796
435.87563	0.05765
434.58986	0.05737
433.30409	0.05713
432.01833	0.05694
430.73256	0.05679
429.44679	0.05665
428.16102	0.05648
426.87525	0.05626
425.58948	0.05599
424.30371	0.05571
423.01794	0.05544
421.73218	0.05515
420.44641	0.05485
419.16064	0.05459
417.87487	0.05440
416.58910	0.05424
415.30333	0.05409
414.01756	0.05390
412.73179	0.05372
411.44602	0.05357
410.16026	0.05343
408.87449	0.05324
407.58872	0.05300
406.30295	0.05272
405.01718	0.05241
403.73141	0.05210
402.44564	0.05184
401.15987	0.05164
399.87411	0.05150
