3996.16951	0.06206
3994.24086	0.06222
3992.31220	0.06176
3990.38355	0.06148
3988.45490	0.06173
3986.52624	0.06182
3984.59759	0.06153
3982.66894	0.06124
3980.74028	0.06127
3978.81163	0.06154
3976.88298	0.06169
3974.95432	0.06162
3973.02567	0.06140
3971.09702	0.06098
3969.16836	0.06054
3967.23971	0.06040
3965.31106	0.06042
3963.38240	0.06030
3961.45375	0.06028
3959.52510	0.06060
3957.59645	0.06107
3955.66779	0.06137
3953.73914	0.06129
3951.81049	0.06108
3949.88183	0.06078
3947.95318	0.06006
3946.02453	0.05911
3944.09587	0.05843
3942.16722	0.05851
3940.23857	0.05925
3938.30991	0.05955
3936.38126	0.05900
3934.45261	0.05860
3932.52395	0.05899
3930.59530	0.05944
3928.66665	0.05916
3926.73799	0.05861
3924.80934	0.05845
3922.88069	0.05865
3920.95203	0.05870
3919.02338	0.05846
3917.09473	0.05834
3915.16607	0.05847
3913.23742	0.05853
3911.30877	0.05864
3909.38011	0.05900
3907.45146	0.05926
3905.52281	0.05897
3903.59415	0.05856
3901.66550	0.05854
3899.73685	0.05835
3897.80819	0.05781
3895.87954	0.05753
3893.95089	0.05780
3892.02224	0.05824
3890.09358	0.05853
3888.16493	0.05833
3886.23628	0.05774
3884.30762	0.05767
3882.37897	0.05789
3880.45032	0.05808
3878.52166	0.05838
3876.59301	0.05824
3874.66436	0.05774
3872.73570	0.05756
3870.80705	0.05767
3868.87840	0.05813
3866.94974	0.05837
3865.02109	0.05786
3863.09244	0.05720
3861.16378	0.05654
3859.23513	0.05612
3857.30648	0.05618
3855.37782	0.05640
3853.44917	0.05689
3851.52052	0.05747
3849.59186	0.05737
3847.66321	0.05665
3845.73456	0.05549
3843.80590	0.05457
3841.87725	0.05459
3839.94860	0.05477
3838.01994	0.05443
3836.09129	0.05413
3834.16264	0.05401
3832.23398	0.05401
3830.30533	0.05395
3828.37668	0.05374
3826.44803	0.05372
3824.51937	0.05396
3822.59072	0.05408
3820.66207	0.05460
3818.73341	0.05514
3816.80476	0.05473
3814.87611	0.05427
3812.94745	0.05390
3811.01880	0.05350
3809.09015	0.05337
3807.16149	0.05341
3805.23284	0.05364
3803.30419	0.05315
3801.37553	0.05256
3799.44688	0.05312
3797.51823	0.05334
3795.58957	0.05251
3793.66092	0.05162
3791.73227	0.05156
3789.80361	0.05219
3787.87496	0.05270
3785.94631	0.05265
3784.01765	0.05215
3782.08900	0.05182
3780.16035	0.05212
3778.23169	0.05253
3776.30304	0.05232
3774.37439	0.05206
3772.44573	0.05217
3770.51708	0.05207
3768.58843	0.05188
3766.65977	0.05168
3764.73112	0.05139
3762.80247	0.05106
3760.87381	0.05077
3758.94516	0.05106
3757.01651	0.05174
3755.08786	0.05200
3753.15920	0.05163
3751.23055	0.05133
3749.30190	0.05101
3747.37324	0.05048
3745.44459	0.04968
3743.51594	0.04964
3741.58728	0.04994
3739.65863	0.04955
3737.72998	0.04906
3735.80132	0.04902
3733.87267	0.04921
3731.94402	0.04890
3730.01536	0.04874
3728.08671	0.04916
3726.15806	0.04978
3724.22940	0.04998
3722.30075	0.04969
3720.37210	0.04932
3718.44344	0.04903
3716.51479	0.04878
3714.58614	0.04850
3712.65748	0.04821
3710.72883	0.04854
3708.80018	0.04930
3706.87152	0.04965
3704.94287	0.04939
3703.01422	0.04873
3701.08556	0.04799
3699.15691	0.04744
3697.22826	0.04734
3695.29960	0.04786
3693.37095	0.04845
3691.44230	0.04841
3689.51365	0.04761
3687.58499	0.04700
3685.65634	0.04703
3683.72769	0.04711
3681.79903	0.04730
3679.87038	0.04770
3677.94173	0.04798
3676.01307	0.04780
3674.08442	0.04776
3672.15577	0.04750
3670.22711	0.04733
3668.29846	0.04817
3666.36981	0.04887
3664.44115	0.04873
3662.51250	0.04845
3660.58385	0.04847
3658.65519	0.04857
3656.72654	0.04854
3654.79789	0.04855
3652.86923	0.04843
3650.94058	0.04842
3649.01193	0.04921
3647.08327	0.05041
3645.15462	0.05124
3643.22597	0.05140
3641.29731	0.05117
3639.36866	0.05118
3637.44001	0.05145
3635.51135	0.05158
3633.58270	0.05143
3631.65405	0.05097
3629.72539	0.05065
3627.79674	0.05111
3625.86809	0.05154
3623.93943	0.05164
3622.01078	0.05250
3620.08213	0.05389
3618.15348	0.05500
3616.22482	0.05530
3614.29617	0.05494
3612.36752	0.05494
3610.43886	0.05546
3608.51021	0.05578
3606.58156	0.05589
3604.65290	0.05633
3602.72425	0.05706
3600.79560	0.05768
3598.86694	0.05813
3596.93829	0.05826
3595.00964	0.05825
3593.08098	0.05877
3591.15233	0.05957
3589.22368	0.05978
3587.29502	0.05958
3585.36637	0.05996
3583.43772	0.06118
3581.50906	0.06238
3579.58041	0.06283
3577.65176	0.06290
3575.72310	0.06310
3573.79445	0.06345
3571.86580	0.06405
3569.93714	0.06495
3568.00849	0.06586
3566.07984	0.06652
3564.15118	0.06693
3562.22253	0.06738
3560.29388	0.06807
3558.36522	0.06895
3556.43657	0.06979
3554.50792	0.07026
3552.57927	0.07039
3550.65061	0.07046
3548.72196	0.07081
3546.79331	0.07152
3544.86465	0.07228
3542.93600	0.07295
3541.00735	0.07352
3539.07869	0.07389
3537.15004	0.07416
3535.22139	0.07451
3533.29273	0.07493
3531.36408	0.07540
3529.43543	0.07588
3527.50677	0.07654
3525.57812	0.07750
3523.64947	0.07827
3521.72081	0.07873
3519.79216	0.07929
3517.86351	0.07994
3515.93485	0.08032
3514.00620	0.08046
3512.07755	0.08070
3510.14889	0.08128
3508.22024	0.08217
3506.29159	0.08315
3504.36293	0.08382
3502.43428	0.08398
3500.50563	0.08410
3498.57697	0.08466
3496.64832	0.08526
3494.71967	0.08556
3492.79101	0.08600
3490.86236	0.08683
3488.93371	0.08756
3487.00506	0.08787
3485.07640	0.08803
3483.14775	0.08826
3481.21910	0.08841
3479.29044	0.08857
3477.36179	0.08909
3475.43314	0.08989
3473.50448	0.09037
3471.57583	0.09027
3469.64718	0.09022
3467.71852	0.09085
3465.78987	0.09168
3463.86122	0.09201
3461.93256	0.09206
3460.00391	0.09241
3458.07526	0.09303
3456.14660	0.09352
3454.21795	0.09393
3452.28930	0.09449
3450.36064	0.09508
3448.43199	0.09550
3446.50334	0.09577
3444.57468	0.09575
3442.64603	0.09558
3440.71738	0.09570
3438.78872	0.09615
3436.86007	0.09667
3434.93142	0.09707
3433.00276	0.09761
3431.07411	0.09841
3429.14546	0.09898
3427.21680	0.09906
3425.28815	0.09915
3423.35950	0.09957
3421.43084	0.10005
3419.50219	0.10029
3417.57354	0.10052
3415.64489	0.10132
3413.71623	0.10249
3411.78758	0.10307
3409.85893	0.10303
3407.93027	0.10304
3406.00162	0.10318
3404.07297	0.10319
3402.14431	0.10333
3400.21566	0.10373
3398.28701	0.10421
3396.35835	0.10480
3394.42970	0.10538
3392.50105	0.10554
3390.57239	0.10540
3388.64374	0.10564
3386.71509	0.10652
3384.78643	0.10741
3382.85778	0.10771
3380.92913	0.10765
3379.00047	0.10784
3377.07182	0.10823
3375.14317	0.10861
3373.21451	0.10920
3371.28586	0.11011
3369.35721	0.11116
3367.42855	0.11208
3365.49990	0.11276
3363.57125	0.11327
3361.64259	0.11370
3359.71394	0.11417
3357.78529	0.11492
3355.85663	0.11600
3353.92798	0.11721
3351.99933	0.11834
3350.07068	0.11931
3348.14202	0.12027
3346.21337	0.12132
3344.28472	0.12235
3342.35606	0.12332
3340.42741	0.12407
3338.49876	0.12458
3336.57010	0.12517
3334.64145	0.12585
3332.71280	0.12658
3330.78414	0.12760
3328.85549	0.12873
3326.92684	0.12940
3324.99818	0.12948
3323.06953	0.12959
3321.14088	0.13020
3319.21222	0.13092
3317.28357	0.13135
3315.35492	0.13168
3313.42626	0.13214
3311.49761	0.13268
3309.56896	0.13301
3307.64030	0.13299
3305.71165	0.13298
3303.78300	0.13335
3301.85434	0.13377
3299.92569	0.13374
3297.99704	0.13355
3296.06838	0.13351
3294.13973	0.13339
3292.21108	0.13318
3290.28242	0.13314
3288.35377	0.13325
3286.42512	0.13329
3284.49646	0.13328
3282.56781	0.13346
3280.63916	0.13363
3278.71051	0.13337
3276.78185	0.13286
3274.85320	0.13240
3272.92455	0.13185
3270.99589	0.13125
3269.06724	0.13090
3267.13859	0.13065
3265.20993	0.13023
3263.28128	0.12961
3261.35263	0.12880
3259.42397	0.12796
3257.49532	0.12728
3255.56667	0.12673
3253.63801	0.12620
3251.70936	0.12562
3249.78071	0.12503
3247.85205	0.12444
3245.92340	0.12386
3243.99475	0.12340
3242.06609	0.12301
3240.13744	0.12270
3238.20879	0.12252
3236.28013	0.12229
3234.35148	0.12181
3232.42283	0.12128
3230.49417	0.12105
3228.56552	0.12109
3226.63687	0.12092
3224.70821	0.12043
3222.77956	0.11999
3220.85091	0.11966
3218.92225	0.11921
3216.99360	0.11851
3215.06495	0.11770
3213.13630	0.11702
3211.20764	0.11658
3209.27899	0.11634
3207.35034	0.11620
3205.42168	0.11598
3203.49303	0.11580
3201.56438	0.11579
3199.63572	0.11553
3197.70707	0.11464
3195.77842	0.11355
3193.84976	0.11280
3191.92111	0.11239
3189.99246	0.11204
3188.06380	0.11166
3186.13515	0.11135
3184.20650	0.11104
3182.27784	0.11059
3180.34919	0.10990
3178.42054	0.10890
3176.49188	0.10788
3174.56323	0.10727
3172.63458	0.10693
3170.70592	0.10619
3168.77727	0.10505
3166.84862	0.10423
3164.91996	0.10384
3162.99131	0.10328
3161.06266	0.10243
3159.13400	0.10173
3157.20535	0.10132
3155.27670	0.10076
3153.34804	0.09993
3151.41939	0.09916
3149.49074	0.09871
3147.56209	0.09844
3145.63343	0.09794
3143.70478	0.09716
3141.77613	0.09650
3139.84747	0.09600
3137.91882	0.09534
3135.99017	0.09463
3134.06151	0.09408
3132.13286	0.09359
3130.20421	0.09326
3128.27555	0.09314
3126.34690	0.09306
3124.41825	0.09277
3122.48959	0.09215
3120.56094	0.09153
3118.63229	0.09147
3116.70363	0.09177
3114.77498	0.09169
3112.84633	0.09124
3110.91767	0.09111
3108.98902	0.09142
3107.06037	0.09159
3105.13171	0.09153
3103.20306	0.09147
3101.27441	0.09150
3099.34575	0.09166
3097.41710	0.09174
3095.48845	0.09159
3093.55979	0.09149
3091.63114	0.09180
3089.70249	0.09235
3087.77383	0.09270
3085.84518	0.09293
3083.91653	0.09341
3081.98787	0.09413
3080.05922	0.09458
3078.13057	0.09453
3076.20192	0.09419
3074.27326	0.09380
3072.34461	0.09359
3070.41596	0.09362
3068.48730	0.09345
3066.55865	0.09292
3064.63000	0.09248
3062.70134	0.09218
3060.77269	0.09186
3058.84404	0.09151
3056.91538	0.09101
3054.98673	0.09046
3053.05808	0.09014
3051.12942	0.08994
3049.20077	0.08960
3047.27212	0.08897
3045.34346	0.08807
3043.41481	0.08721
3041.48616	0.08661
3039.55750	0.08608
3037.62885	0.08544
3035.70020	0.08486
3033.77154	0.08444
3031.84289	0.08407
3029.91424	0.08369
3027.98558	0.08327
3026.05693	0.08278
3024.12828	0.08233
3022.19962	0.08189
3020.27097	0.08125
3018.34232	0.08043
3016.41366	0.07978
3014.48501	0.07946
3012.55636	0.07918
3010.62771	0.07880
3008.69905	0.07866
3006.77040	0.07883
3004.84175	0.07887
3002.91309	0.07865
3000.98444	0.07852
2999.05579	0.07870
2997.12713	0.07894
2995.19848	0.07914
2993.26983	0.07939
2991.34117	0.07963
2989.41252	0.07983
2987.48387	0.08012
2985.55521	0.08056
2983.62656	0.08107
2981.69791	0.08157
2979.76925	0.08196
2977.84060	0.08215
2975.91195	0.08222
2973.98329	0.08233
2972.05464	0.08260
2970.12599	0.08293
2968.19733	0.08322
2966.26868	0.08344
2964.34003	0.08365
2962.41137	0.08401
2960.48272	0.08453
2958.55407	0.08488
2956.62541	0.08499
2954.69676	0.08494
2952.76811	0.08477
2950.83945	0.08465
2948.91080	0.08474
2946.98215	0.08498
2945.05349	0.08519
2943.12484	0.08535
2941.19619	0.08565
2939.26754	0.08614
2937.33888	0.08646
2935.41023	0.08617
2933.48158	0.08555
2931.55292	0.08506
2929.62427	0.08483
2927.69562	0.08485
2925.76696	0.08489
2923.83831	0.08474
2921.90966	0.08427
2919.98100	0.08352
2918.05235	0.08280
2916.12370	0.08212
2914.19504	0.08124
2912.26639	0.08036
2910.33774	0.07962
2908.40908	0.07891
2906.48043	0.07843
2904.55178	0.07808
2902.62312	0.07755
2900.69447	0.07696
2898.76582	0.07666
2896.83716	0.07662
2894.90851	0.07657
2892.97986	0.07630
2891.05120	0.07599
2889.12255	0.07592
2887.19390	0.07602
2885.26524	0.07600
2883.33659	0.07588
2881.40794	0.07583
2879.47928	0.07586
2877.55063	0.07581
2875.62198	0.07561
2873.69333	0.07533
2871.76467	0.07501
2869.83602	0.07471
2867.90737	0.07435
2865.97871	0.07371
2864.05006	0.07292
2862.12141	0.07221
2860.19275	0.07164
2858.26410	0.07134
2856.33545	0.07123
2854.40679	0.07104
2852.47814	0.07069
2850.54949	0.07023
2848.62083	0.06969
2846.69218	0.06924
2844.76353	0.06893
2842.83487	0.06847
2840.90622	0.06778
2838.97757	0.06715
2837.04891	0.06674
2835.12026	0.06652
2833.19161	0.06639
2831.26295	0.06622
2829.33430	0.06593
2827.40565	0.06545
2825.47699	0.06495
2823.54834	0.06472
2821.61969	0.06464
2819.69103	0.06460
2817.76238	0.06455
2815.83373	0.06437
2813.90507	0.06410
2811.97642	0.06392
2810.04777	0.06373
2808.11912	0.06341
2806.19046	0.06309
2804.26181	0.06285
2802.33316	0.06268
2800.40450	0.06260
2798.47585	0.06258
2796.54720	0.06248
2794.61854	0.06228
2792.68989	0.06202
2790.76124	0.06165
2788.83258	0.06131
2786.90393	0.06115
2784.97528	0.06098
2783.04662	0.06069
2781.11797	0.06050
2779.18932	0.06041
2777.26066	0.06030
2775.33201	0.06017
2773.40336	0.06001
2771.47470	0.05974
2769.54605	0.05943
2767.61740	0.05914
2765.68874	0.05892
2763.76009	0.05889
2761.83144	0.05897
2759.90278	0.05892
2757.97413	0.05863
2756.04548	0.05821
2754.11682	0.05791
2752.18817	0.05800
2750.25952	0.05824
2748.33086	0.05821
2746.40221	0.05792
2744.47356	0.05754
2742.54490	0.05711
2740.61625	0.05672
2738.68760	0.05643
2736.75895	0.05634
2734.83029	0.05636
2732.90164	0.05628
2730.97299	0.05614
2729.04433	0.05603
2727.11568	0.05594
2725.18703	0.05585
2723.25837	0.05578
2721.32972	0.05581
2719.40107	0.05571
2717.47241	0.05526
2715.54376	0.05479
2713.61511	0.05464
2711.68645	0.05469
2709.75780	0.05475
2707.82915	0.05474
2705.90049	0.05457
2703.97184	0.05427
2702.04319	0.05402
2700.11453	0.05382
2698.18588	0.05367
2696.25723	0.05362
2694.32857	0.05349
2692.39992	0.05322
2690.47127	0.05305
2688.54261	0.05302
2686.61396	0.05293
2684.68531	0.05272
2682.75665	0.05253
2680.82800	0.05243
2678.89935	0.05235
2676.97069	0.05223
2675.04204	0.05209
2673.11339	0.05209
2671.18474	0.05210
2669.25608	0.05188
2667.32743	0.05161
2665.39878	0.05147
2663.47012	0.05149
2661.54147	0.05145
2659.61282	0.05107
2657.68416	0.05047
2655.75551	0.04999
2653.82686	0.04977
2651.89820	0.04976
2649.96955	0.04976
2648.04090	0.04951
2646.11224	0.04906
2644.18359	0.04857
2642.25494	0.04822
2640.32628	0.04816
2638.39763	0.04809
2636.46898	0.04782
2634.54032	0.04752
2632.61167	0.04719
2630.68302	0.04685
2628.75436	0.04661
2626.82571	0.04654
2624.89706	0.04656
2622.96840	0.04640
2621.03975	0.04599
2619.11110	0.04561
2617.18244	0.04543
2615.25379	0.04531
2613.32514	0.04503
2611.39648	0.04463
2609.46783	0.04440
2607.53918	0.04439
2605.61052	0.04420
2603.68187	0.04375
2601.75322	0.04356
2599.82457	0.04367
2597.89591	0.04365
2595.96726	0.04351
2594.03861	0.04341
2592.10995	0.04318
2590.18130	0.04276
2588.25265	0.04227
2586.32399	0.04190
2584.39534	0.04187
2582.46669	0.04212
2580.53803	0.04225
2578.60938	0.04206
2576.68073	0.04172
2574.75207	0.04152
2572.82342	0.04159
2570.89477	0.04168
2568.96611	0.04142
2567.03746	0.04095
2565.10881	0.04067
2563.18015	0.04057
2561.25150	0.04043
2559.32285	0.04033
2557.39419	0.04041
2555.46554	0.04059
2553.53689	0.04063
2551.60823	0.04034
2549.67958	0.03988
2547.75093	0.03955
2545.82227	0.03950
2543.89362	0.03964
2541.96497	0.03971
2540.03631	0.03963
2538.10766	0.03945
2536.17901	0.03923
2534.25036	0.03923
2532.32170	0.03949
2530.39305	0.03958
2528.46440	0.03940
2526.53574	0.03904
2524.60709	0.03847
2522.67844	0.03809
2520.74978	0.03814
2518.82113	0.03828
2516.89248	0.03826
2514.96382	0.03805
2513.03517	0.03782
2511.10652	0.03790
2509.17786	0.03816
2507.24921	0.03828
2505.32056	0.03827
2503.39190	0.03818
2501.46325	0.03803
2499.53460	0.03778
2497.60594	0.03752
2495.67729	0.03750
2493.74864	0.03767
2491.81998	0.03769
2489.89133	0.03739
2487.96268	0.03701
2486.03402	0.03674
2484.10537	0.03653
2482.17672	0.03644
2480.24806	0.03644
2478.31941	0.03638
2476.39076	0.03635
2474.46210	0.03620
2472.53345	0.03587
2470.60480	0.03594
2468.67615	0.03637
2466.74749	0.03642
2464.81884	0.03625
2462.89019	0.03638
2460.96153	0.03647
2459.03288	0.03620
2457.10423	0.03569
2455.17557	0.03520
2453.24692	0.03502
2451.31827	0.03513
2449.38961	0.03520
2447.46096	0.03498
2445.53231	0.03468
2443.60365	0.03471
2441.67500	0.03497
2439.74635	0.03507
2437.81769	0.03512
2435.88904	0.03531
2433.96039	0.03536
2432.03173	0.03514
2430.10308	0.03494
2428.17443	0.03486
2426.24577	0.03479
2424.31712	0.03487
2422.38847	0.03521
2420.45981	0.03535
2418.53116	0.03522
2416.60251	0.03517
2414.67385	0.03516
2412.74520	0.03505
2410.81655	0.03501
2408.88789	0.03513
2406.95924	0.03535
2405.03059	0.03541
2403.10193	0.03521
2401.17328	0.03506
2399.24463	0.03497
2397.31598	0.03487
2395.38732	0.03489
2393.45867	0.03519
2391.53002	0.03539
2389.60136	0.03534
2387.67271	0.03536
2385.74406	0.03548
2383.81540	0.03548
2381.88675	0.03545
2379.95810	0.03556
2378.02944	0.03582
2376.10079	0.03616
2374.17214	0.03638
2372.24348	0.03624
2370.31483	0.03549
2368.38618	0.03649
2366.45752	0.03650
2364.52887	0.03657
2362.60022	0.03563
2360.67156	0.03691
2358.74291	0.03512
2356.81426	0.03714
2354.88560	0.03645
2352.95695	0.03537
2351.02830	0.03575
2349.09964	0.03574
2347.17099	0.03614
2345.24234	0.03708
2343.31368	0.03687
2341.38503	0.03489
2339.45638	0.03394
2337.52772	0.03425
2335.59907	0.03538
2333.67042	0.03637
2331.74177	0.03652
2329.81311	0.03600
2327.88446	0.03526
2325.95581	0.03438
2324.02715	0.03411
2322.09850	0.03437
2320.16985	0.03471
2318.24119	0.03444
2316.31254	0.03380
2314.38389	0.03316
2312.45523	0.03282
2310.52658	0.03280
2308.59793	0.03268
2306.66927	0.03217
2304.74062	0.03170
2302.81197	0.03144
2300.88331	0.03109
2298.95466	0.03056
2297.02601	0.02988
2295.09735	0.02938
2293.16870	0.02921
2291.24005	0.02924
2289.31139	0.02918
2287.38274	0.02873
2285.45409	0.02791
2283.52543	0.02737
2281.59678	0.02768
2279.66813	0.02821
2277.73947	0.02827
2275.81082	0.02802
2273.88217	0.02766
2271.95351	0.02729
2270.02486	0.02706
2268.09621	0.02661
2266.16755	0.02595
2264.23890	0.02583
2262.31025	0.02636
2260.38160	0.02665
2258.45294	0.02627
2256.52429	0.02590
2254.59564	0.02599
2252.66698	0.02584
2250.73833	0.02518
2248.80968	0.02495
2246.88102	0.02471
2244.95237	0.02432
2243.02372	0.02373
2241.09506	0.02304
2239.16641	0.02231
2237.23776	0.02203
2235.30910	0.02241
2233.38045	0.02300
2231.45180	0.02353
2229.52314	0.02401
2227.59449	0.02406
2225.66584	0.02335
2223.73718	0.02235
2221.80853	0.02164
2219.87988	0.02133
2217.95122	0.02152
2216.02257	0.02168
2214.09392	0.02100
2212.16526	0.02000
2210.23661	0.01977
2208.30796	0.02040
2206.37930	0.02073
2204.45065	0.01971
2202.52200	0.01866
2200.59334	0.01891
2198.66469	0.01955
2196.73604	0.01984
2194.80739	0.01976
2192.87873	0.01937
2190.95008	0.01911
2189.02143	0.01903
2187.09277	0.01899
2185.16412	0.01885
2183.23547	0.01817
2181.30681	0.01728
2179.37816	0.01725
2177.44951	0.01792
2175.52085	0.01772
2173.59220	0.01623
2171.66355	0.01491
2169.73489	0.01423
2167.80624	0.01339
2165.87759	0.01250
2163.94893	0.01225
2162.02028	0.01249
2160.09163	0.01303
2158.16297	0.01423
2156.23432	0.01580
2154.30567	0.01679
2152.37701	0.01692
2150.44836	0.01709
2148.51971	0.01770
2146.59105	0.01805
2144.66240	0.01817
2142.73375	0.01859
2140.80509	0.01935
2138.87644	0.02047
2136.94779	0.02150
2135.01913	0.02176
2133.09048	0.02178
2131.16183	0.02230
2129.23318	0.02284
2127.30452	0.02301
2125.37587	0.02310
2123.44722	0.02319
2121.51856	0.02302
2119.58991	0.02270
2117.66126	0.02257
2115.73260	0.02241
2113.80395	0.02211
2111.87530	0.02198
2109.94664	0.02211
2108.01799	0.02241
2106.08934	0.02257
2104.16068	0.02221
2102.23203	0.02142
2100.30338	0.02070
2098.37472	0.02016
2096.44607	0.02038
2094.51742	0.02123
2092.58876	0.02187
2090.66011	0.02185
2088.73146	0.02156
2086.80280	0.02119
2084.87415	0.02071
2082.94550	0.02023
2081.01684	0.01978
2079.08819	0.01910
2077.15954	0.01847
2075.23088	0.01837
2073.30223	0.01850
2071.37358	0.01816
2069.44492	0.01729
2067.51627	0.01668
2065.58762	0.01684
2063.65896	0.01727
2061.73031	0.01761
2059.80166	0.01787
2057.87301	0.01805
2055.94435	0.01832
2054.01570	0.01841
2052.08705	0.01761
2050.15839	0.01613
2048.22974	0.01521
2046.30109	0.01535
2044.37243	0.01527
2042.44378	0.01429
2040.51513	0.01344
2038.58647	0.01324
2036.65782	0.01321
2034.72917	0.01288
2032.80051	0.01250
2030.87186	0.01296
2028.94321	0.01374
2027.01455	0.01363
2025.08590	0.01283
2023.15725	0.01184
2021.22859	0.01106
2019.29994	0.01095
2017.37129	0.01158
2015.44263	0.01299
2013.51398	0.01441
2011.58533	0.01426
2009.65667	0.01285
2007.72802	0.01213
2005.79937	0.01263
2003.87071	0.01360
2001.94206	0.01449
2000.01341	0.01526
1998.08475	0.01602
1996.15610	0.01655
1994.22745	0.01663
1992.29880	0.01635
1990.37014	0.01578
1988.44149	0.01536
1986.51284	0.01522
1984.58418	0.01471
1982.65553	0.01358
1980.72688	0.01222
1978.79822	0.01143
1976.86957	0.01159
1974.94092	0.01128
1973.01226	0.01018
1971.08361	0.01002
1969.15496	0.01124
1967.22630	0.01290
1965.29765	0.01412
1963.36900	0.01433
1961.44034	0.01417
1959.51169	0.01436
1957.58304	0.01454
1955.65438	0.01466
1953.72573	0.01489
1951.79708	0.01477
1949.86842	0.01457
1947.93977	0.01498
1946.01112	0.01574
1944.08246	0.01616
1942.15381	0.01644
1940.22516	0.01698
1938.29650	0.01743
1936.36785	0.01743
1934.43920	0.01727
1932.51054	0.01716
1930.58189	0.01701
1928.65324	0.01685
1926.72458	0.01699
1924.79593	0.01740
1922.86728	0.01775
1920.93863	0.01779
1919.00997	0.01760
1917.08132	0.01758
1915.15267	0.01763
1913.22401	0.01768
1911.29536	0.01797
1909.36671	0.01830
1907.43805	0.01838
1905.50940	0.01822
1903.58075	0.01796
1901.65209	0.01791
1899.72344	0.01798
1897.79479	0.01793
1895.86613	0.01780
1893.93748	0.01783
1892.00883	0.01803
1890.08017	0.01823
1888.15152	0.01834
1886.22287	0.01838
1884.29421	0.01832
1882.36556	0.01824
1880.43691	0.01829
1878.50825	0.01837
1876.57960	0.01821
1874.65095	0.01779
1872.72229	0.01744
1870.79364	0.01736
1868.86499	0.01738
1866.93633	0.01748
1865.00768	0.01759
1863.07903	0.01768
1861.15037	0.01793
1859.22172	0.01826
1857.29307	0.01835
1855.36442	0.01827
1853.43576	0.01815
1851.50711	0.01785
1849.57846	0.01746
1847.64980	0.01740
1845.72115	0.01765
1843.79250	0.01791
1841.86384	0.01807
1839.93519	0.01805
1838.00654	0.01806
1836.07788	0.01816
1834.14923	0.01814
1832.22058	0.01794
1830.29192	0.01773
1828.36327	0.01768
1826.43462	0.01759
1824.50596	0.01738
1822.57731	0.01717
1820.64866	0.01708
1818.72000	0.01729
1816.79135	0.01777
1814.86270	0.01817
1812.93404	0.01819
1811.00539	0.01796
1809.07674	0.01772
1807.14808	0.01759
1805.21943	0.01761
1803.29078	0.01760
1801.36212	0.01740
1799.43347	0.01715
1797.50482	0.01708
1795.57616	0.01721
1793.64751	0.01725
1791.71886	0.01721
1789.79021	0.01725
1787.86155	0.01720
1785.93290	0.01706
1784.00425	0.01703
1782.07559	0.01705
1780.14694	0.01699
1778.21829	0.01694
1776.28963	0.01689
1774.36098	0.01680
1772.43233	0.01681
1770.50367	0.01697
1768.57502	0.01697
1766.64637	0.01694
1764.71771	0.01702
1762.78906	0.01703
1760.86041	0.01703
1758.93175	0.01705
1757.00310	0.01713
1755.07445	0.01738
1753.14579	0.01754
1751.21714	0.01765
1749.28849	0.01798
1747.35983	0.01831
1745.43118	0.01850
1743.50253	0.01875
1741.57387	0.01912
1739.64522	0.01955
1737.71657	0.02005
1735.78791	0.02034
1733.85926	0.02064
1731.93061	0.02118
1730.00195	0.02156
1728.07330	0.02187
1726.14465	0.02230
1724.21599	0.02278
1722.28734	0.02330
1720.35869	0.02374
1718.43004	0.02409
1716.50138	0.02477
1714.57273	0.02568
1712.64408	0.02662
1710.71542	0.02775
1708.78677	0.02918
1706.85812	0.03098
1704.92946	0.03328
1703.00081	0.03600
1701.07216	0.03893
1699.14350	0.04243
1697.21485	0.04598
1695.28620	0.04942
1693.35754	0.05314
1691.42889	0.05670
1689.50024	0.06033
1687.57158	0.06419
1685.64293	0.06810
1683.71428	0.07250
1681.78562	0.07743
1679.85697	0.08248
1677.92832	0.08785
1675.99966	0.09350
1674.07101	0.09948
1672.14236	0.10564
1670.21370	0.11184
1668.28505	0.11814
1666.35640	0.12435
1664.42774	0.13028
1662.49909	0.13597
1660.57044	0.14128
1658.64178	0.14598
1656.71313	0.15004
1654.78448	0.15333
1652.85583	0.15630
1650.92717	0.15926
1648.99852	0.16144
1647.06987	0.16302
1645.14121	0.16468
1643.21256	0.16628
1641.28391	0.16762
1639.35525	0.16878
1637.42660	0.16972
1635.49795	0.17043
1633.56929	0.17088
1631.64064	0.17049
1629.71199	0.16898
1627.78333	0.16638
1625.85468	0.16262
1623.92603	0.15770
1621.99737	0.15204
1620.06872	0.14597
1618.14007	0.13949
1616.21141	0.13300
1614.28276	0.12687
1612.35411	0.12088
1610.42545	0.11511
1608.49680	0.10968
1606.56815	0.10461
1604.63949	0.10001
1602.71084	0.09590
1600.78219	0.09227
1598.85353	0.08910
1596.92488	0.08630
1594.99623	0.08385
1593.06757	0.08191
1591.13892	0.08057
1589.21027	0.07968
1587.28161	0.07911
1585.35296	0.07891
1583.42431	0.07913
1581.49566	0.07982
1579.56700	0.08096
1577.63835	0.08233
1575.70970	0.08417
1573.78104	0.08678
1571.85239	0.08971
1569.92374	0.09293
1567.99508	0.09657
1566.06643	0.10042
1564.13778	0.10445
1562.20912	0.10842
1560.28047	0.11207
1558.35182	0.11585
1556.42316	0.11955
1554.49451	0.12250
1552.56586	0.12491
1550.63720	0.12682
1548.70855	0.12828
1546.77990	0.12939
1544.85124	0.13016
1542.92259	0.13053
1540.99394	0.13038
1539.06528	0.13001
1537.13663	0.12958
1535.20798	0.12868
1533.27932	0.12743
1531.35067	0.12613
1529.42202	0.12462
1527.49336	0.12290
1525.56471	0.12114
1523.63606	0.11927
1521.70740	0.11720
1519.77875	0.11520
1517.85010	0.11306
1515.92145	0.11059
1513.99279	0.10781
1512.06414	0.10472
1510.13549	0.10143
1508.20683	0.09777
1506.27818	0.09395
1504.34953	0.09044
1502.42087	0.08696
1500.49222	0.08341
1498.56357	0.08002
1496.63491	0.07681
1494.70626	0.07387
1492.77761	0.07114
1490.84895	0.06858
1488.92030	0.06638
1486.99165	0.06459
1485.06299	0.06328
1483.13434	0.06246
1481.20569	0.06213
1479.27703	0.06234
1477.34838	0.06301
1475.41973	0.06406
1473.49107	0.06536
1471.56242	0.06698
1469.63377	0.06887
1467.70511	0.07082
1465.77646	0.07281
1463.84781	0.07495
1461.91915	0.07724
1459.99050	0.07950
1458.06185	0.08147
1456.13319	0.08322
1454.20454	0.08464
1452.27589	0.08540
1450.34724	0.08556
1448.41858	0.08520
1446.48993	0.08443
1444.56128	0.08339
1442.63262	0.08220
1440.70397	0.08099
1438.77532	0.07958
1436.84666	0.07781
1434.91801	0.07593
1432.98936	0.07406
1431.06070	0.07239
1429.13205	0.07116
1427.20340	0.07042
1425.27474	0.06997
1423.34609	0.06970
1421.41744	0.06947
1419.48878	0.06923
1417.56013	0.06923
1415.63148	0.06942
1413.70282	0.06971
1411.77417	0.07014
1409.84552	0.07069
1407.91686	0.07133
1405.98821	0.07197
1404.05956	0.07244
1402.13090	0.07261
1400.20225	0.07249
1398.27360	0.07229
1396.34494	0.07199
1394.41629	0.07157
1392.48764	0.07123
1390.55898	0.07097
1388.63033	0.07070
1386.70168	0.07040
1384.77302	0.07001
1382.84437	0.06949
1380.91572	0.06894
1378.98707	0.06838
1377.05841	0.06772
1375.12976	0.06687
1373.20111	0.06592
1371.27245	0.06486
1369.34380	0.06364
1367.41515	0.06242
1365.48649	0.06131
1363.55784	0.06028
1361.62919	0.05938
1359.70053	0.05871
1357.77188	0.05837
1355.84323	0.05844
1353.91457	0.05885
1351.98592	0.05951
1350.05727	0.06039
1348.12861	0.06146
1346.19996	0.06261
1344.27131	0.06374
1342.34265	0.06481
1340.41400	0.06573
1338.48535	0.06636
1336.55669	0.06658
1334.62804	0.06628
1332.69939	0.06551
1330.77073	0.06444
1328.84208	0.06331
1326.91343	0.06229
1324.98477	0.06148
1323.05612	0.06088
1321.12747	0.06044
1319.19881	0.06016
1317.27016	0.05998
1315.34151	0.05975
1313.41286	0.05933
1311.48420	0.05877
1309.55555	0.05825
1307.62690	0.05785
1305.69824	0.05755
1303.76959	0.05728
1301.84094	0.05701
1299.91228	0.05675
1297.98363	0.05664
1296.05498	0.05673
1294.12632	0.05702
1292.19767	0.05756
1290.26902	0.05837
1288.34036	0.05932
1286.41171	0.06023
1284.48306	0.06102
1282.55440	0.06162
1280.62575	0.06202
1278.69710	0.06222
1276.76844	0.06228
1274.83979	0.06225
1272.91114	0.06224
1270.98248	0.06235
1269.05383	0.06264
1267.12518	0.06313
1265.19652	0.06375
1263.26787	0.06440
1261.33922	0.06508
1259.41056	0.06589
1257.48191	0.06688
1255.55326	0.06803
1253.62460	0.06929
1251.69595	0.07061
1249.76730	0.07199
1247.83864	0.07343
1245.90999	0.07486
1243.98134	0.07624
1242.05269	0.07753
1240.12403	0.07861
1238.19538	0.07931
1236.26673	0.07961
1234.33807	0.07955
1232.40942	0.07903
1230.48077	0.07798
1228.55211	0.07651
1226.62346	0.07473
1224.69481	0.07265
1222.76615	0.07044
1220.83750	0.06839
1218.90885	0.06672
1216.98019	0.06550
1215.05154	0.06468
1213.12289	0.06421
1211.19423	0.06414
1209.26558	0.06443
1207.33693	0.06489
1205.40827	0.06525
1203.47962	0.06532
1201.55097	0.06502
1199.62231	0.06438
1197.69366	0.06318
1195.76501	0.06173
1193.83635	0.06025
1191.90770	0.05889
1189.97905	0.05760
1188.05039	0.05642
1186.12174	0.05543
1184.19309	0.05464
1182.26443	0.05399
1180.33578	0.05349
1178.40713	0.05311
1176.47848	0.05278
1174.54982	0.05259
1172.62117	0.05251
1170.69252	0.05242
1168.76386	0.05230
1166.83521	0.05221
1164.90656	0.05220
1162.97790	0.05225
1161.04925	0.05214
1159.12060	0.05163
1157.19194	0.05077
1155.26329	0.04984
1153.33464	0.04891
1151.40598	0.04791
1149.47733	0.04691
1147.54868	0.04602
1145.62002	0.04528
1143.69137	0.04463
1141.76272	0.04401
1139.83406	0.04341
1137.90541	0.04295
1135.97676	0.04265
1134.04810	0.04245
1132.11945	0.04233
1130.19080	0.04226
1128.26214	0.04218
1126.33349	0.04199
1124.40484	0.04174
1122.47618	0.04159
1120.54753	0.04153
1118.61888	0.04150
1116.69022	0.04153
1114.76157	0.04154
1112.83292	0.04151
1110.90427	0.04160
1108.97561	0.04193
1107.04696	0.04234
1105.11831	0.04267
1103.18965	0.04299
1101.26100	0.04341
1099.33235	0.04392
1097.40369	0.04454
1095.47504	0.04521
1093.54639	0.04591
1091.61773	0.04679
1089.68908	0.04799
1087.76043	0.04936
1085.83177	0.05066
1083.90312	0.05172
1081.97447	0.05245
1080.04581	0.05280
1078.11716	0.05279
1076.18851	0.05243
1074.25985	0.05186
1072.33120	0.05134
1070.40255	0.05099
1068.47389	0.05079
1066.54524	0.05073
1064.61659	0.05071
1062.68793	0.05062
1060.75928	0.05042
1058.83063	0.05008
1056.90197	0.04959
1054.97332	0.04904
1053.04467	0.04854
1051.11601	0.04806
1049.18736	0.04750
1047.25871	0.04688
1045.33005	0.04642
1043.40140	0.04626
1041.47275	0.04629
1039.54410	0.04644
1037.61544	0.04672
1035.68679	0.04718
1033.75814	0.04767
1031.82948	0.04783
1029.90083	0.04740
1027.97218	0.04657
1026.04352	0.04561
1024.11487	0.04464
1022.18622	0.04365
1020.25756	0.04272
1018.32891	0.04200
1016.40026	0.04155
1014.47160	0.04114
1012.54295	0.04060
1010.61430	0.03996
1008.68564	0.03927
1006.75699	0.03855
1004.82834	0.03788
1002.89968	0.03728
1000.97103	0.03677
999.04238	0.03628
997.11372	0.03577
995.18507	0.03531
993.25642	0.03488
991.32776	0.03441
989.39911	0.03403
987.47046	0.03383
985.54180	0.03363
983.61315	0.03343
981.68450	0.03342
979.75584	0.03363
977.82719	0.03391
975.89854	0.03412
973.96989	0.03413
972.04123	0.03392
970.11258	0.03360
968.18393	0.03330
966.25527	0.03307
964.32662	0.03278
962.39797	0.03243
960.46931	0.03219
958.54066	0.03207
956.61201	0.03198
954.68335	0.03182
952.75470	0.03161
950.82605	0.03140
948.89739	0.03131
946.96874	0.03140
945.04009	0.03157
943.11143	0.03171
941.18278	0.03187
939.25413	0.03199
937.32547	0.03201
935.39682	0.03199
933.46817	0.03192
931.53951	0.03182
929.61086	0.03164
927.68221	0.03145
925.75355	0.03139
923.82490	0.03144
921.89625	0.03143
919.96759	0.03136
918.03894	0.03128
916.11029	0.03113
914.18163	0.03093
912.25298	0.03077
910.32433	0.03055
908.39567	0.03028
906.46702	0.03013
904.53837	0.03004
902.60972	0.02982
900.68106	0.02962
898.75241	0.02969
896.82376	0.02989
894.89510	0.02984
892.96645	0.02959
891.03780	0.02942
889.10914	0.02936
887.18049	0.02932
885.25184	0.02926
883.32318	0.02919
881.39453	0.02925
879.46588	0.02943
877.53722	0.02957
875.60857	0.02962
873.67992	0.02959
871.75126	0.02944
869.82261	0.02921
867.89396	0.02901
865.96530	0.02890
864.03665	0.02889
862.10800	0.02899
860.17934	0.02914
858.25069	0.02925
856.32204	0.02935
854.39338	0.02947
852.46473	0.02961
850.53608	0.02971
848.60742	0.02966
846.67877	0.02952
844.75012	0.02945
842.82146	0.02949
840.89281	0.02948
838.96416	0.02933
837.03551	0.02925
835.10685	0.02936
833.17820	0.02952
831.24955	0.02967
829.32089	0.02980
827.39224	0.02989
825.46359	0.03002
823.53493	0.03030
821.60628	0.03069
819.67763	0.03106
817.74897	0.03133
815.82032	0.03162
813.89167	0.03188
811.96301	0.03202
810.03436	0.03210
808.10571	0.03225
806.17705	0.03250
804.24840	0.03274
802.31975	0.03286
800.39109	0.03293
798.46244	0.03307
796.53379	0.03332
794.60513	0.03362
792.67648	0.03394
790.74783	0.03433
788.81917	0.03468
786.89052	0.03489
784.96187	0.03501
783.03321	0.03520
781.10456	0.03551
779.17591	0.03585
777.24725	0.03615
775.31860	0.03640
773.38995	0.03665
771.46130	0.03696
769.53264	0.03729
767.60399	0.03755
765.67534	0.03783
763.74668	0.03822
761.81803	0.03854
759.88938	0.03864
757.96072	0.03877
756.03207	0.03915
754.10342	0.03961
752.17476	0.04000
750.24611	0.04033
748.31746	0.04061
746.38880	0.04090
744.46015	0.04120
742.53150	0.04149
740.60284	0.04169
738.67419	0.04181
736.74554	0.04211
734.81688	0.04266
732.88823	0.04315
730.95958	0.04349
729.03092	0.04389
727.10227	0.04428
725.17362	0.04456
723.24496	0.04471
721.31631	0.04533
719.38766	0.04591
717.45900	0.04633
715.53035	0.04659
713.60170	0.04674
711.67304	0.04698
709.74439	0.04734
707.81574	0.04771
705.88708	0.04807
703.95843	0.04842
702.02978	0.04868
700.10113	0.04886
698.17247	0.04912
696.24382	0.04944
694.31517	0.04969
692.38651	0.04979
690.45786	0.04987
688.52921	0.05008
686.60055	0.05042
684.67190	0.05073
682.74325	0.05090
680.81459	0.05106
678.88594	0.05134
676.95729	0.05166
675.02863	0.05196
673.09998	0.05226
671.17133	0.05262
669.24267	0.05298
667.31402	0.05306
665.38537	0.05319
663.45671	0.05339
661.52806	0.05356
659.59941	0.05360
657.67075	0.05366
655.74210	0.05382
653.81345	0.05397
651.88479	0.05407
649.95614	0.05422
648.02749	0.05435
646.09883	0.05442
644.17018	0.05452
642.24153	0.05464
640.31287	0.05471
638.38422	0.05472
636.45557	0.05476
634.52692	0.05487
632.59826	0.05485
630.66961	0.05506
628.74096	0.05646
626.81230	0.05403
624.88365	0.05178
622.95500	0.05232
621.02634	0.05342
619.09769	0.05228
617.16904	0.05236
615.24038	0.05513
613.31173	0.05664
611.38308	0.05516
609.45442	0.05368
607.52577	0.05402
605.59712	0.05472
603.66846	0.05501
601.73981	0.05538
599.81116	0.05563
597.88250	0.05549
595.95385	0.05520
594.02520	0.05486
592.09654	0.05467
590.16789	0.05477
588.23924	0.05494
586.31058	0.05503
584.38193	0.05508
582.45328	0.05510
580.52462	0.05504
578.59597	0.05497
576.66732	0.05505
574.73866	0.05530
572.81001	0.05543
570.88136	0.05516
568.95270	0.05484
567.02405	0.05494
565.09540	0.05535
563.16675	0.05578
561.23809	0.05611
559.30944	0.05632
557.38079	0.05654
555.45213	0.05671
553.52348	0.05661
551.59483	0.05623
549.66617	0.05574
547.73752	0.05529
545.80887	0.05496
543.88021	0.05476
541.95156	0.05463
540.02291	0.05471
538.09425	0.05506
536.16560	0.05532
534.23695	0.05524
532.30829	0.05493
530.37964	0.05456
528.45099	0.05433
526.52233	0.05426
524.59368	0.05409
522.66503	0.05369
520.73637	0.05329
518.80772	0.05304
516.87907	0.05275
514.95041	0.05241
513.02176	0.05209
511.09311	0.05177
509.16445	0.05141
507.23580	0.05098
505.30715	0.05055
503.37849	0.05026
501.44984	0.05020
499.52119	0.05019
497.59254	0.05000
495.66388	0.04964
493.73523	0.04910
491.80658	0.04848
489.87792	0.04793
487.94927	0.04752
486.02062	0.04723
484.09196	0.04691
482.16331	0.04655
480.23466	0.04624
478.30600	0.04605
476.37735	0.04600
474.44870	0.04586
472.52004	0.04540
470.59139	0.04478
468.66274	0.04426
466.73408	0.04391
464.80543	0.04360
462.87678	0.04324
460.94812	0.04271
459.01947	0.04203
457.09082	0.04152
455.16216	0.04131
453.23351	0.04106
451.30486	0.04063
449.37620	0.04017
447.44755	0.03980
445.51890	0.03953
443.59024	0.03927
441.66159	0.03892
439.73294	0.03858
437.80428	0.03838
435.87563	0.03821
433.94698	0.03798
432.01833	0.03777
430.08967	0.03758
428.16102	0.03724
426.23237	0.03681
424.30371	0.03648
422.37506	0.03630
420.44641	0.03607
418.51775	0.03575
416.58910	0.03542
414.66045	0.03517
412.73179	0.03499
410.80314	0.03475
408.87449	0.03450
406.94583	0.03438
405.01718	0.03428
403.08853	0.03404
401.15987	0.03378
399.23122	0.03355
