3997.45528	0.05705
3996.16951	0.05708
3994.88374	0.05717
3993.59798	0.05729
3992.31221	0.05737
3991.02644	0.05747
3989.74067	0.05764
3988.45490	0.05786
3987.16913	0.05795
3985.88336	0.05773
3984.59759	0.05726
3983.31183	0.05686
3982.02606	0.05681
3980.74029	0.05702
3979.45452	0.05712
3978.16875	0.05681
3976.88298	0.05615
3975.59721	0.05548
3974.31144	0.05513
3973.02567	0.05527
3971.73991	0.05582
3970.45414	0.05645
3969.16837	0.05689
3967.88260	0.05701
3966.59683	0.05684
3965.31106	0.05644
3964.02529	0.05597
3962.73952	0.05566
3961.45376	0.05571
3960.16799	0.05611
3958.88222	0.05668
3957.59645	0.05718
3956.31068	0.05736
3955.02491	0.05708
3953.73914	0.05651
3952.45337	0.05602
3951.16760	0.05581
3949.88184	0.05571
3948.59607	0.05543
3947.31030	0.05494
3946.02453	0.05451
3944.73876	0.05432
3943.45299	0.05429
3942.16722	0.05433
3940.88145	0.05459
3939.59569	0.05522
3938.30992	0.05609
3937.02415	0.05677
3935.73838	0.05687
3934.45261	0.05632
3933.16684	0.05536
3931.88107	0.05441
3930.59530	0.05385
3929.30953	0.05382
3928.02377	0.05418
3926.73800	0.05461
3925.45223	0.05487
3924.16646	0.05494
3922.88069	0.05496
3921.59492	0.05505
3920.30915	0.05510
3919.02338	0.05483
3917.73762	0.05404
3916.45185	0.05292
3915.16608	0.05204
3913.88031	0.05186
3912.59454	0.05230
3911.30877	0.05284
3910.02300	0.05300
3908.73723	0.05270
3907.45146	0.05213
3906.16570	0.05170
3904.87993	0.05173
3903.59416	0.05227
3902.30839	0.05296
3901.02262	0.05338
3899.73685	0.05338
3898.45108	0.05317
3897.16531	0.05299
3895.87955	0.05287
3894.59378	0.05272
3893.30801	0.05252
3892.02224	0.05240
3890.73647	0.05251
3889.45070	0.05280
3888.16493	0.05304
3886.87916	0.05301
3885.59339	0.05279
3884.30763	0.05271
3883.02186	0.05295
3881.73609	0.05332
3880.45032	0.05344
3879.16455	0.05312
3877.87878	0.05250
3876.59301	0.05195
3875.30724	0.05177
3874.02148	0.05189
3872.73571	0.05208
3871.44994	0.05222
3870.16417	0.05242
3868.87840	0.05278
3867.59263	0.05311
3866.30686	0.05314
3865.02109	0.05283
3863.73532	0.05248
3862.44956	0.05236
3861.16379	0.05247
3859.87802	0.05251
3858.59225	0.05216
3857.30648	0.05138
3856.02071	0.05048
3854.73494	0.04989
3853.44917	0.04979
3852.16341	0.05001
3850.87764	0.05025
3849.59187	0.05032
3848.30610	0.05021
3847.02033	0.04999
3845.73456	0.04973
3844.44879	0.04956
3843.16302	0.04962
3841.87725	0.04994
3840.59149	0.05036
3839.30572	0.05058
3838.01995	0.05036
3836.73418	0.04973
3835.44841	0.04898
3834.16264	0.04859
3832.87687	0.04882
3831.59110	0.04950
3830.30534	0.05007
3829.01957	0.05011
3827.73380	0.04968
3826.44803	0.04927
3825.16226	0.04933
3823.87649	0.04996
3822.59072	0.05087
3821.30495	0.05163
3820.01918	0.05190
3818.73342	0.05164
3817.44765	0.05107
3816.16188	0.05044
3814.87611	0.04977
3813.59034	0.04902
3812.30457	0.04830
3811.01880	0.04782
3809.73303	0.04773
3808.44726	0.04793
3807.16150	0.04819
3805.87573	0.04838
3804.58996	0.04848
3803.30419	0.04857
3802.01842	0.04874
3800.73265	0.04892
3799.44688	0.04891
3798.16111	0.04852
3796.87535	0.04791
3795.58958	0.04749
3794.30381	0.04758
3793.01804	0.04809
3791.73227	0.04866
3790.44650	0.04893
3789.16073	0.04882
3787.87496	0.04853
3786.58919	0.04830
3785.30343	0.04820
3784.01766	0.04808
3782.73189	0.04783
3781.44612	0.04752
3780.16035	0.04732
3778.87458	0.04726
3777.58881	0.04724
3776.30304	0.04722
3775.01728	0.04728
3773.73151	0.04747
3772.44574	0.04767
3771.15997	0.04782
3769.87420	0.04794
3768.58843	0.04804
3767.30266	0.04803
3766.01689	0.04784
3764.73112	0.04757
3763.44536	0.04737
3762.15959	0.04726
3760.87382	0.04721
3759.58805	0.04718
3758.30228	0.04713
3757.01651	0.04690
3755.73074	0.04650
3754.44497	0.04613
3753.15921	0.04601
3751.87344	0.04615
3750.58767	0.04646
3749.30190	0.04695
3748.01613	0.04759
3746.73036	0.04819
3745.44459	0.04850
3744.15882	0.04854
3742.87305	0.04850
3741.58729	0.04847
3740.30152	0.04844
3739.01575	0.04837
3737.72998	0.04828
3736.44421	0.04814
3735.15844	0.04784
3733.87267	0.04731
3732.58690	0.04673
3731.30114	0.04645
3730.01537	0.04664
3728.72960	0.04704
3727.44383	0.04711
3726.15806	0.04648
3724.87229	0.04533
3723.58652	0.04411
3722.30075	0.04328
3721.01498	0.04296
3719.72922	0.04300
3718.44345	0.04315
3717.15768	0.04331
3715.87191	0.04345
3714.58614	0.04352
3713.30037	0.04338
3712.01460	0.04305
3710.72883	0.04272
3709.44307	0.04263
3708.15730	0.04283
3706.87153	0.04326
3705.58576	0.04388
3704.29999	0.04448
3703.01422	0.04490
3701.72845	0.04504
3700.44268	0.04491
3699.15691	0.04448
3697.87115	0.04409
3696.58538	0.04417
3695.29961	0.04463
3694.01384	0.04499
3692.72807	0.04485
3691.44230	0.04421
3690.15653	0.04342
3688.87076	0.04295
3687.58500	0.04291
3686.29923	0.04299
3685.01346	0.04304
3683.72769	0.04324
3682.44192	0.04372
3681.15615	0.04426
3679.87038	0.04456
3678.58461	0.04459
3677.29884	0.04458
3676.01308	0.04472
3674.72731	0.04504
3673.44154	0.04547
3672.15577	0.04593
3670.87000	0.04636
3669.58423	0.04666
3668.29846	0.04678
3667.01269	0.04680
3665.72693	0.04683
3664.44116	0.04681
3663.15539	0.04665
3661.86962	0.04635
3660.58385	0.04615
3659.29808	0.04625
3658.01231	0.04662
3656.72654	0.04707
3655.44077	0.04743
3654.15501	0.04762
3652.86924	0.04766
3651.58347	0.04771
3650.29770	0.04797
3649.01193	0.04851
3647.72616	0.04918
3646.44039	0.04967
3645.15462	0.04977
3643.86886	0.04963
3642.58309	0.04957
3641.29732	0.04987
3640.01155	0.05053
3638.72578	0.05135
3637.44001	0.05211
3636.15424	0.05270
3634.86847	0.05301
3633.58270	0.05295
3632.29694	0.05257
3631.01117	0.05225
3629.72540	0.05248
3628.43963	0.05349
3627.15386	0.05488
3625.86809	0.05595
3624.58232	0.05628
3623.29655	0.05603
3622.01079	0.05562
3620.72502	0.05538
3619.43925	0.05533
3618.15348	0.05539
3616.86771	0.05553
3615.58194	0.05578
3614.29617	0.05629
3613.01040	0.05723
3611.72463	0.05860
3610.43887	0.06018
3609.15310	0.06166
3607.86733	0.06290
3606.58156	0.06398
3605.29579	0.06494
3604.01002	0.06555
3602.72425	0.06562
3601.43848	0.06530
3600.15272	0.06499
3598.86695	0.06495
3597.58118	0.06538
3596.29541	0.06629
3595.00964	0.06747
3593.72387	0.06836
3592.43810	0.06875
3591.15233	0.06884
3589.86656	0.06889
3588.58080	0.06897
3587.29503	0.06904
3586.00926	0.06914
3584.72349	0.06940
3583.43772	0.07000
3582.15195	0.07103
3580.86618	0.07239
3579.58041	0.07393
3578.29464	0.07542
3577.00888	0.07657
3575.72311	0.07724
3574.43734	0.07754
3573.15157	0.07773
3571.86580	0.07802
3570.58003	0.07845
3569.29426	0.07892
3568.00849	0.07934
3566.72273	0.07981
3565.43696	0.08053
3564.15119	0.08149
3562.86542	0.08231
3561.57965	0.08264
3560.29388	0.08254
3559.00811	0.08257
3557.72234	0.08318
3556.43657	0.08428
3555.15081	0.08533
3553.86504	0.08593
3552.57927	0.08615
3551.29350	0.08637
3550.00773	0.08689
3548.72196	0.08771
3547.43619	0.08861
3546.15042	0.08940
3544.86466	0.08998
3543.57889	0.09036
3542.29312	0.09072
3541.00735	0.09128
3539.72158	0.09220
3538.43581	0.09332
3537.15004	0.09434
3535.86427	0.09510
3534.57850	0.09568
3533.29274	0.09627
3532.00697	0.09690
3530.72120	0.09743
3529.43543	0.09784
3528.14966	0.09827
3526.86389	0.09895
3525.57812	0.09989
3524.29235	0.10089
3523.00659	0.10175
3521.72082	0.10252
3520.43505	0.10338
3519.14928	0.10447
3517.86351	0.10562
3516.57774	0.10657
3515.29197	0.10709
3514.00620	0.10718
3512.72043	0.10700
3511.43467	0.10678
3510.14890	0.10667
3508.86313	0.10679
3507.57736	0.10716
3506.29159	0.10777
3505.00582	0.10847
3503.72005	0.10910
3502.43428	0.10957
3501.14852	0.10996
3499.86275	0.11040
3498.57698	0.11090
3497.29121	0.11132
3496.00544	0.11160
3494.71967	0.11192
3493.43390	0.11253
3492.14813	0.11347
3490.86236	0.11457
3489.57660	0.11554
3488.29083	0.11616
3487.00506	0.11638
3485.71929	0.11639
3484.43352	0.11659
3483.14775	0.11723
3481.86198	0.11813
3480.57621	0.11881
3479.29045	0.11904
3478.00468	0.11904
3476.71891	0.11919
3475.43314	0.11958
3474.14737	0.12003
3472.86160	0.12039
3471.57583	0.12082
3470.29006	0.12150
3469.00429	0.12238
3467.71853	0.12317
3466.43276	0.12368
3465.14699	0.12399
3463.86122	0.12430
3462.57545	0.12468
3461.28968	0.12500
3460.00391	0.12511
3458.71814	0.12503
3457.43238	0.12495
3456.14661	0.12505
3454.86084	0.12531
3453.57507	0.12565
3452.28930	0.12609
3451.00353	0.12677
3449.71776	0.12781
3448.43199	0.12906
3447.14622	0.13027
3445.86046	0.13118
3444.57469	0.13166
3443.28892	0.13180
3442.00315	0.13185
3440.71738	0.13204
3439.43161	0.13237
3438.14584	0.13272
3436.86007	0.13308
3435.57431	0.13354
3434.28854	0.13416
3433.00277	0.13479
3431.71700	0.13519
3430.43123	0.13531
3429.14546	0.13532
3427.85969	0.13547
3426.57392	0.13583
3425.28815	0.13622
3424.00239	0.13647
3422.71662	0.13673
3421.43085	0.13732
3420.14508	0.13830
3418.85931	0.13930
3417.57354	0.13993
3416.28777	0.14015
3415.00200	0.14030
3413.71624	0.14066
3412.43047	0.14124
3411.14470	0.14192
3409.85893	0.14259
3408.57316	0.14321
3407.28739	0.14372
3406.00162	0.14417
3404.71585	0.14470
3403.43008	0.14538
3402.14432	0.14602
3400.85855	0.14633
3399.57278	0.14628
3398.28701	0.14600
3397.00124	0.14582
3395.71547	0.14591
3394.42970	0.14621
3393.14393	0.14656
3391.85817	0.14689
3390.57240	0.14723
3389.28663	0.14764
3388.00086	0.14816
3386.71509	0.14875
3385.42932	0.14939
3384.14355	0.15010
3382.85778	0.15090
3381.57201	0.15177
3380.28625	0.15257
3379.00048	0.15318
3377.71471	0.15359
3376.42894	0.15394
3375.14317	0.15443
3373.85740	0.15520
3372.57163	0.15615
3371.28586	0.15698
3370.00010	0.15746
3368.71433	0.15773
3367.42856	0.15821
3366.14279	0.15927
3364.85702	0.16077
3363.57125	0.16228
3362.28548	0.16350
3360.99971	0.16451
3359.71394	0.16555
3358.42818	0.16662
3357.14241	0.16750
3355.85664	0.16807
3354.57087	0.16849
3353.28510	0.16898
3351.99933	0.16957
3350.71356	0.17018
3349.42779	0.17075
3348.14202	0.17135
3346.85626	0.17207
3345.57049	0.17295
3344.28472	0.17395
3342.99895	0.17500
3341.71318	0.17603
3340.42741	0.17696
3339.14164	0.17776
3337.85587	0.17848
3336.57011	0.17921
3335.28434	0.17998
3333.99857	0.18075
3332.71280	0.18142
3331.42703	0.18195
3330.14126	0.18244
3328.85549	0.18309
3327.56972	0.18394
3326.28395	0.18472
3324.99819	0.18516
3323.71242	0.18526
3322.42665	0.18537
3321.14088	0.18577
3319.85511	0.18650
3318.56934	0.18734
3317.28357	0.18805
3315.99780	0.18850
3314.71204	0.18876
3313.42627	0.18905
3312.14050	0.18950
3310.85473	0.19008
3309.56896	0.19064
3308.28319	0.19107
3306.99742	0.19143
3305.71165	0.19182
3304.42588	0.19229
3303.14012	0.19275
3301.85435	0.19311
3300.56858	0.19336
3299.28281	0.19353
3297.99704	0.19360
3296.71127	0.19357
3295.42550	0.19346
3294.13973	0.19338
3292.85397	0.19341
3291.56820	0.19355
3290.28243	0.19370
3288.99666	0.19371
3287.71089	0.19366
3286.42512	0.19371
3285.13935	0.19389
3283.85358	0.19401
3282.56781	0.19391
3281.28205	0.19360
3279.99628	0.19322
3278.71051	0.19290
3277.42474	0.19271
3276.13897	0.19263
3274.85320	0.19249
3273.56743	0.19215
3272.28166	0.19159
3270.99590	0.19090
3269.71013	0.19017
3268.42436	0.18948
3267.13859	0.18886
3265.85282	0.18832
3264.56705	0.18782
3263.28128	0.18732
3261.99551	0.18683
3260.70974	0.18639
3259.42398	0.18594
3258.13821	0.18541
3256.85244	0.18479
3255.56667	0.18423
3254.28090	0.18377
3252.99513	0.18332
3251.70936	0.18281
3250.42359	0.18233
3249.13783	0.18202
3247.85206	0.18177
3246.56629	0.18128
3245.28052	0.18042
3243.99475	0.17936
3242.70898	0.17843
3241.42321	0.17782
3240.13744	0.17753
3238.85167	0.17747
3237.56591	0.17744
3236.28014	0.17722
3234.99437	0.17676
3233.70860	0.17618
3232.42283	0.17560
3231.13706	0.17501
3229.85129	0.17436
3228.56552	0.17365
3227.27976	0.17293
3225.99399	0.17220
3224.70822	0.17157
3223.42245	0.17124
3222.13668	0.17134
3220.85091	0.17166
3219.56514	0.17182
3218.27937	0.17163
3216.99360	0.17120
3215.70784	0.17075
3214.42207	0.17045
3213.13630	0.17027
3211.85053	0.17008
3210.56476	0.16975
3209.27899	0.16925
3207.99322	0.16874
3206.70745	0.16832
3205.42169	0.16794
3204.13592	0.16748
3202.85015	0.16691
3201.56438	0.16628
3200.27861	0.16560
3198.99284	0.16486
3197.70707	0.16406
3196.42130	0.16329
3195.13553	0.16272
3193.84977	0.16240
3192.56400	0.16224
3191.27823	0.16201
3189.99246	0.16151
3188.70669	0.16076
3187.42092	0.15996
3186.13515	0.15925
3184.84938	0.15858
3183.56362	0.15783
3182.27785	0.15701
3180.99208	0.15629
3179.70631	0.15580
3178.42054	0.15544
3177.13477	0.15490
3175.84900	0.15399
3174.56323	0.15283
3173.27746	0.15172
3171.99170	0.15096
3170.70593	0.15064
3169.42016	0.15054
3168.13439	0.15026
3166.84862	0.14955
3165.56285	0.14848
3164.27708	0.14740
3162.99131	0.14663
3161.70555	0.14623
3160.41978	0.14599
3159.13401	0.14564
3157.84824	0.14510
3156.56247	0.14435
3155.27670	0.14342
3153.99093	0.14239
3152.70516	0.14142
3151.41939	0.14065
3150.13363	0.14009
3148.84786	0.13958
3147.56209	0.13893
3146.27632	0.13802
3144.99055	0.13686
3143.70478	0.13564
3142.41901	0.13460
3141.13324	0.13389
3139.84748	0.13346
3138.56171	0.13324
3137.27594	0.13311
3135.99017	0.13296
3134.70440	0.13275
3133.41863	0.13248
3132.13286	0.13218
3130.84709	0.13178
3129.56132	0.13127
3128.27556	0.13067
3126.98979	0.13006
3125.70402	0.12952
3124.41825	0.12916
3123.13248	0.12903
3121.84671	0.12905
3120.56094	0.12898
3119.27517	0.12866
3117.98940	0.12818
3116.70364	0.12783
3115.41787	0.12780
3114.13210	0.12799
3112.84633	0.12816
3111.56056	0.12816
3110.27479	0.12807
3108.98902	0.12802
3107.70325	0.12807
3106.41749	0.12818
3105.13172	0.12830
3103.84595	0.12842
3102.56018	0.12854
3101.27441	0.12861
3099.98864	0.12863
3098.70287	0.12868
3097.41710	0.12883
3096.13133	0.12910
3094.84557	0.12942
3093.55980	0.12977
3092.27403	0.13015
3090.98826	0.13053
3089.70249	0.13079
3088.41672	0.13089
3087.13095	0.13088
3085.84518	0.13083
3084.55942	0.13081
3083.27365	0.13080
3081.98788	0.13078
3080.70211	0.13080
3079.41634	0.13086
3078.13057	0.13092
3076.84480	0.13092
3075.55903	0.13085
3074.27326	0.13079
3072.98750	0.13074
3071.70173	0.13066
3070.41596	0.13053
3069.13019	0.13047
3067.84442	0.13060
3066.55865	0.13094
3065.27288	0.13132
3063.98711	0.13145
3062.70135	0.13105
3061.41558	0.13001
3060.12981	0.12848
3058.84404	0.12690
3057.55827	0.12568
3056.27250	0.12500
3054.98673	0.12475
3053.70096	0.12479
3052.41519	0.12502
3051.12943	0.12531
3049.84366	0.12541
3048.55789	0.12507
3047.27212	0.12427
3045.98635	0.12325
3044.70058	0.12232
3043.41481	0.12166
3042.12904	0.12126
3040.84328	0.12094
3039.55751	0.12050
3038.27174	0.11982
3036.98597	0.11893
3035.70020	0.11800
3034.41443	0.11718
3033.12866	0.11646
3031.84289	0.11576
3030.55712	0.11505
3029.27136	0.11442
3027.98559	0.11394
3026.69982	0.11362
3025.41405	0.11335
3024.12828	0.11301
3022.84251	0.11252
3021.55674	0.11187
3020.27097	0.11113
3018.98521	0.11038
3017.69944	0.10973
3016.41367	0.10925
3015.12790	0.10892
3013.84213	0.10867
3012.55636	0.10837
3011.27059	0.10798
3009.98482	0.10753
3008.69905	0.10715
3007.41329	0.10691
3006.12752	0.10680
3004.84175	0.10677
3003.55598	0.10677
3002.27021	0.10681
3000.98444	0.10691
2999.69867	0.10711
2998.41290	0.10745
2997.12714	0.10792
2995.84137	0.10833
2994.55560	0.10854
2993.26983	0.10854
2991.98406	0.10849
2990.69829	0.10853
2989.41252	0.10876
2988.12675	0.10919
2986.84098	0.10975
2985.55522	0.11033
2984.26945	0.11083
2982.98368	0.11125
2981.69791	0.11165
2980.41214	0.11204
2979.12637	0.11245
2977.84060	0.11291
2976.55483	0.11345
2975.26907	0.11399
2973.98330	0.11439
2972.69753	0.11468
2971.41176	0.11509
2970.12599	0.11576
2968.84022	0.11656
2967.55445	0.11719
2966.26868	0.11753
2964.98291	0.11773
2963.69715	0.11795
2962.41138	0.11824
2961.12561	0.11857
2959.83984	0.11893
2958.55407	0.11928
2957.26830	0.11945
2955.98253	0.11935
2954.69676	0.11906
2953.41100	0.11873
2952.12523	0.11843
2950.83946	0.11820
2949.55369	0.11812
2948.26792	0.11828
2946.98215	0.11861
2945.69638	0.11890
2944.41061	0.11897
2943.12484	0.11883
2941.83908	0.11860
2940.55331	0.11851
2939.26754	0.11868
2937.98177	0.11905
2936.69600	0.11935
2935.41023	0.11935
2934.12446	0.11901
2932.83869	0.11851
2931.55293	0.11803
2930.26716	0.11766
2928.98139	0.11743
2927.69562	0.11735
2926.40985	0.11734
2925.12408	0.11729
2923.83831	0.11712
2922.55254	0.11678
2921.26677	0.11626
2919.98101	0.11563
2918.69524	0.11505
2917.40947	0.11464
2916.12370	0.11429
2914.83793	0.11378
2913.55216	0.11295
2912.26639	0.11194
2910.98062	0.11099
2909.69486	0.11027
2908.40909	0.10974
2907.12332	0.10926
2905.83755	0.10869
2904.55178	0.10800
2903.26601	0.10730
2901.98024	0.10670
2900.69447	0.10622
2899.40870	0.10577
2898.12294	0.10527
2896.83717	0.10477
2895.55140	0.10441
2894.26563	0.10416
2892.97986	0.10393
2891.69409	0.10369
2890.40832	0.10351
2889.12255	0.10347
2887.83678	0.10353
2886.55102	0.10367
2885.26525	0.10388
2883.97948	0.10410
2882.69371	0.10421
2881.40794	0.10414
2880.12217	0.10398
2878.83640	0.10389
2877.55063	0.10392
2876.26487	0.10393
2874.97910	0.10374
2873.69333	0.10324
2872.40756	0.10250
2871.12179	0.10171
2869.83602	0.10103
2868.55025	0.10046
2867.26448	0.09991
2865.97871	0.09929
2864.69295	0.09860
2863.40718	0.09793
2862.12141	0.09736
2860.83564	0.09691
2859.54987	0.09656
2858.26410	0.09622
2856.97833	0.09583
2855.69256	0.09535
2854.40680	0.09482
2853.12103	0.09425
2851.83526	0.09369
2850.54949	0.09321
2849.26372	0.09287
2847.97795	0.09259
2846.69218	0.09223
2845.40641	0.09174
2844.12064	0.09124
2842.83488	0.09092
2841.54911	0.09078
2840.26334	0.09068
2838.97757	0.09040
2837.69180	0.08983
2836.40603	0.08910
2835.12026	0.08845
2833.83449	0.08802
2832.54873	0.08777
2831.26296	0.08752
2829.97719	0.08723
2828.69142	0.08693
2827.40565	0.08670
2826.11988	0.08653
2824.83411	0.08635
2823.54834	0.08607
2822.26257	0.08563
2820.97681	0.08503
2819.69104	0.08443
2818.40527	0.08400
2817.11950	0.08378
2815.83373	0.08368
2814.54796	0.08357
2813.26219	0.08339
2811.97642	0.08320
2810.69066	0.08306
2809.40489	0.08292
2808.11912	0.08272
2806.83335	0.08249
2805.54758	0.08232
2804.26181	0.08227
2802.97604	0.08221
2801.69027	0.08200
2800.40450	0.08166
2799.11874	0.08136
2797.83297	0.08117
2796.54720	0.08105
2795.26143	0.08089
2793.97566	0.08068
2792.68989	0.08046
2791.40412	0.08027
2790.11835	0.08006
2788.83259	0.07980
2787.54682	0.07951
2786.26105	0.07926
2784.97528	0.07917
2783.68951	0.07930
2782.40374	0.07953
2781.11797	0.07963
2779.83220	0.07942
2778.54643	0.07893
2777.26067	0.07839
2775.97490	0.07808
2774.68913	0.07808
2773.40336	0.07821
2772.11759	0.07820
2770.83182	0.07789
2769.54605	0.07734
2768.26028	0.07671
2766.97452	0.07618
2765.68875	0.07588
2764.40298	0.07576
2763.11721	0.07569
2761.83144	0.07557
2760.54567	0.07541
2759.25990	0.07531
2757.97413	0.07528
2756.68836	0.07524
2755.40260	0.07511
2754.11683	0.07488
2752.83106	0.07457
2751.54529	0.07422
2750.25952	0.07389
2748.97375	0.07366
2747.68798	0.07355
2746.40221	0.07353
2745.11645	0.07348
2743.83068	0.07338
2742.54491	0.07326
2741.25914	0.07312
2739.97337	0.07285
2738.68760	0.07242
2737.40183	0.07190
2736.11606	0.07149
2734.83029	0.07130
2733.54453	0.07126
2732.25876	0.07125
2730.97299	0.07116
2729.68722	0.07099
2728.40145	0.07075
2727.11568	0.07053
2725.82991	0.07037
2724.54414	0.07027
2723.25838	0.07013
2721.97261	0.06988
2720.68684	0.06950
2719.40107	0.06911
2718.11530	0.06886
2716.82953	0.06879
2715.54376	0.06881
2714.25799	0.06876
2712.97222	0.06861
2711.68646	0.06847
2710.40069	0.06841
2709.11492	0.06843
2707.82915	0.06841
2706.54338	0.06833
2705.25761	0.06820
2703.97184	0.06804
2702.68607	0.06785
2701.40031	0.06764
2700.11454	0.06746
2698.82877	0.06729
2697.54300	0.06708
2696.25723	0.06681
2694.97146	0.06657
2693.68569	0.06645
2692.39992	0.06642
2691.11415	0.06637
2689.82839	0.06622
2688.54262	0.06603
2687.25685	0.06594
2685.97108	0.06599
2684.68531	0.06611
2683.39954	0.06615
2682.11377	0.06606
2680.82800	0.06593
2679.54224	0.06588
2678.25647	0.06594
2676.97070	0.06602
2675.68493	0.06605
2674.39916	0.06601
2673.11339	0.06594
2671.82762	0.06586
2670.54185	0.06578
2669.25608	0.06570
2667.97032	0.06567
2666.68455	0.06570
2665.39878	0.06575
2664.11301	0.06575
2662.82724	0.06567
2661.54147	0.06551
2660.25570	0.06528
2658.96993	0.06503
2657.68417	0.06482
2656.39840	0.06469
2655.11263	0.06457
2653.82686	0.06440
2652.54109	0.06416
2651.25532	0.06393
2649.96955	0.06372
2648.68378	0.06351
2647.39801	0.06316
2646.11225	0.06268
2644.82648	0.06217
2643.54071	0.06177
2642.25494	0.06150
2640.96917	0.06123
2639.68340	0.06089
2638.39763	0.06053
2637.11186	0.06017
2635.82609	0.05986
2634.54033	0.05959
2633.25456	0.05937
2631.96879	0.05919
2630.68302	0.05906
2629.39725	0.05903
2628.11148	0.05911
2626.82571	0.05926
2625.53994	0.05934
2624.25418	0.05920
2622.96841	0.05875
2621.68264	0.05809
2620.39687	0.05743
2619.11110	0.05694
2617.82533	0.05666
2616.53956	0.05654
2615.25379	0.05651
2613.96802	0.05650
2612.68226	0.05646
2611.39649	0.05638
2610.11072	0.05628
2608.82495	0.05615
2607.53918	0.05600
2606.25341	0.05590
2604.96764	0.05585
2603.68187	0.05571
2602.39611	0.05534
2601.11034	0.05478
2599.82457	0.05418
2598.53880	0.05375
2597.25303	0.05362
2595.96726	0.05379
2594.68149	0.05408
2593.39572	0.05419
2592.10995	0.05398
2590.82419	0.05364
2589.53842	0.05340
2588.25265	0.05320
2586.96688	0.05287
2585.68111	0.05241
2584.39534	0.05209
2583.10957	0.05206
2581.82380	0.05220
2580.53804	0.05232
2579.25227	0.05230
2577.96650	0.05221
2576.68073	0.05215
2575.39496	0.05217
2574.10919	0.05218
2572.82342	0.05205
2571.53765	0.05180
2570.25188	0.05161
2568.96612	0.05156
2567.68035	0.05153
2566.39458	0.05140
2565.10881	0.05116
2563.82304	0.05088
2562.53727	0.05061
2561.25150	0.05041
2559.96573	0.05026
2558.67997	0.05005
2557.39420	0.04973
2556.10843	0.04944
2554.82266	0.04930
2553.53689	0.04929
2552.25112	0.04930
2550.96535	0.04924
2549.67958	0.04912
2548.39381	0.04899
2547.10805	0.04891
2545.82228	0.04890
2544.53651	0.04895
2543.25074	0.04900
2541.96497	0.04890
2540.67920	0.04855
2539.39343	0.04802
2538.10766	0.04751
2536.82190	0.04720
2535.53613	0.04711
2534.25036	0.04707
2532.96459	0.04689
2531.67882	0.04654
2530.39305	0.04622
2529.10728	0.04619
2527.82151	0.04652
2526.53574	0.04702
2525.24998	0.04741
2523.96421	0.04757
2522.67844	0.04753
2521.39267	0.04741
2520.10690	0.04731
2518.82113	0.04724
2517.53536	0.04714
2516.24959	0.04697
2514.96383	0.04674
2513.67806	0.04650
2512.39229	0.04630
2511.10652	0.04619
2509.82075	0.04615
2508.53498	0.04605
2507.24921	0.04578
2505.96344	0.04545
2504.67767	0.04523
2503.39191	0.04513
2502.10614	0.04504
2500.82037	0.04497
2499.53460	0.04504
2498.24883	0.04525
2496.96306	0.04538
2495.67729	0.04522
2494.39152	0.04488
2493.10576	0.04461
2491.81999	0.04451
2490.53422	0.04448
2489.24845	0.04439
2487.96268	0.04424
2486.67691	0.04403
2485.39114	0.04369
2484.10537	0.04328
2482.81960	0.04299
2481.53384	0.04298
2480.24807	0.04324
2478.96230	0.04366
2477.67653	0.04410
2476.39076	0.04445
2475.10499	0.04461
2473.81922	0.04455
2472.53345	0.04443
2471.24769	0.04438
2469.96192	0.04436
2468.67615	0.04417
2467.39038	0.04372
2466.10461	0.04325
2464.81884	0.04307
2463.53307	0.04324
2462.24730	0.04346
2460.96153	0.04341
2459.67577	0.04306
2458.39000	0.04271
2457.10423	0.04268
2455.81846	0.04303
2454.53269	0.04358
2453.24692	0.04403
2451.96115	0.04424
2450.67538	0.04421
2449.38962	0.04409
2448.10385	0.04399
2446.81808	0.04386
2445.53231	0.04357
2444.24654	0.04311
2442.96077	0.04270
2441.67500	0.04261
2440.38923	0.04292
2439.10346	0.04336
2437.81770	0.04355
2436.53193	0.04342
2435.24616	0.04324
2433.96039	0.04330
2432.67462	0.04357
2431.38885	0.04376
2430.10308	0.04373
2428.81731	0.04362
2427.53155	0.04356
2426.24578	0.04349
2424.96001	0.04325
2423.67424	0.04284
2422.38847	0.04248
2421.10270	0.04241
2419.81693	0.04269
2418.53116	0.04306
2417.24539	0.04329
2415.95963	0.04334
2414.67386	0.04332
2413.38809	0.04326
2412.10232	0.04308
2410.81655	0.04275
2409.53078	0.04232
2408.24501	0.04188
2406.95924	0.04148
2405.67347	0.04119
2404.38771	0.04106
2403.10194	0.04114
2401.81617	0.04143
2400.53040	0.04185
2399.24463	0.04211
2397.95886	0.04217
2396.67309	0.04199
2395.38732	0.04170
2394.10156	0.04142
2392.81579	0.04120
2391.53002	0.04103
2390.24425	0.04099
2388.95848	0.04110
2387.67271	0.04128
2386.38694	0.04142
2385.10117	0.04152
2383.81540	0.04170
2382.52964	0.04192
2381.24387	0.04209
2379.95810	0.04207
2378.67233	0.04222
2377.38656	0.04235
2376.10079	0.04209
2374.81502	0.04164
2373.52925	0.04219
2372.24349	0.04341
2370.95772	0.04420
2369.67195	0.04446
2368.38618	0.04454
2367.10041	0.04490
2365.81464	0.04537
2364.52887	0.04584
2363.24310	0.04617
2361.95733	0.04643
2360.67157	0.04678
2359.38580	0.04682
2358.10003	0.04635
2356.81426	0.04548
2355.52849	0.04431
2354.24272	0.04285
2352.95695	0.04166
2351.67118	0.04194
2350.38542	0.04277
2349.09965	0.04300
2347.81388	0.04317
2346.52811	0.04409
2345.24234	0.04473
2343.95657	0.04387
2342.67080	0.04183
2341.38503	0.04253
2340.09926	0.04497
2338.81350	0.04473
2337.52773	0.04238
2336.24196	0.04278
2334.95619	0.04439
2333.67042	0.04360
2332.38465	0.04137
2331.09888	0.04290
2329.81311	0.04348
2328.52735	0.04220
2327.24158	0.04303
2325.95581	0.04444
2324.67004	0.04448
2323.38427	0.04379
2322.09850	0.04418
2320.81273	0.04376
2319.52696	0.04324
2318.24119	0.04283
2316.95543	0.04214
2315.66966	0.04171
2314.38389	0.04115
2313.09812	0.04047
2311.81235	0.04017
2310.52658	0.03971
2309.24081	0.03928
2307.95504	0.03936
2306.66928	0.03961
2305.38351	0.03990
2304.09774	0.03991
2302.81197	0.03969
2301.52620	0.03954
2300.24043	0.03937
2298.95466	0.03916
2297.66889	0.03888
2296.38312	0.03858
2295.09736	0.03830
2293.81159	0.03804
2292.52582	0.03782
2291.24005	0.03757
2289.95428	0.03733
2288.66851	0.03719
2287.38274	0.03717
2286.09697	0.03714
2284.81121	0.03692
2283.52544	0.03646
2282.23967	0.03600
2280.95390	0.03585
2279.66813	0.03599
2278.38236	0.03612
2277.09659	0.03595
2275.81082	0.03549
2274.52505	0.03483
2273.23929	0.03417
2271.95352	0.03375
2270.66775	0.03368
2269.38198	0.03375
2268.09621	0.03363
2266.81044	0.03321
2265.52467	0.03272
2264.23890	0.03233
2262.95314	0.03219
2261.66737	0.03237
2260.38160	0.03270
2259.09583	0.03298
2257.81006	0.03304
2256.52429	0.03282
2255.23852	0.03238
2253.95275	0.03188
2252.66698	0.03152
2251.38122	0.03141
2250.09545	0.03165
2248.80968	0.03222
2247.52391	0.03259
2246.23814	0.03278
2244.95237	0.03261
2243.66660	0.03212
2242.38083	0.03154
2241.09507	0.03119
2239.80930	0.03128
2238.52353	0.03182
2237.23776	0.03248
2235.95199	0.03281
2234.66622	0.03259
2233.38045	0.03201
2232.09468	0.03143
2230.80891	0.03109
2229.52315	0.03106
2228.23738	0.03120
2226.95161	0.03125
2225.66584	0.03096
2224.38007	0.03032
2223.09430	0.02954
2221.80853	0.02875
2220.52276	0.02797
2219.23700	0.02725
2217.95123	0.02683
2216.66546	0.02687
2215.37969	0.02719
2214.09392	0.02739
2212.80815	0.02736
2211.52238	0.02736
2210.23661	0.02762
2208.95084	0.02807
2207.66508	0.02842
2206.37931	0.02854
2205.09354	0.02854
2203.80777	0.02850
2202.52200	0.02831
2201.23623	0.02780
2199.95046	0.02695
2198.66469	0.02600
2197.37893	0.02524
2196.09316	0.02479
2194.80739	0.02467
2193.52162	0.02494
2192.23585	0.02546
2190.95008	0.02572
2189.66431	0.02523
2188.37854	0.02425
2187.09277	0.02364
2185.80701	0.02377
2184.52124	0.02415
2183.23547	0.02418
2181.94970	0.02393
2180.66393	0.02388
2179.37816	0.02412
2178.09239	0.02429
2176.80662	0.02408
2175.52085	0.02353
2174.23509	0.02290
2172.94932	0.02238
2171.66355	0.02194
2170.37778	0.02141
2169.09201	0.02075
2167.80624	0.01996
2166.52047	0.01901
2165.23470	0.01791
2163.94894	0.01694
2162.66317	0.01643
2161.37740	0.01631
2160.09163	0.01622
2158.80586	0.01612
2157.52009	0.01629
2156.23432	0.01687
2154.94855	0.01766
2153.66278	0.01847
2152.37702	0.01920
2151.09125	0.01974
2149.80548	0.02011
2148.51971	0.02053
2147.23394	0.02116
2145.94817	0.02183
2144.66240	0.02224
2143.37663	0.02228
2142.09087	0.02196
2140.80510	0.02136
2139.51933	0.02073
2138.23356	0.02050
2136.94779	0.02095
2135.66202	0.02193
2134.37625	0.02292
2133.09048	0.02363
2131.80471	0.02421
2130.51895	0.02489
2129.23318	0.02560
2127.94741	0.02612
2126.66164	0.02642
2125.37587	0.02671
2124.09010	0.02708
2122.80433	0.02747
2121.51856	0.02778
2120.23280	0.02802
2118.94703	0.02827
2117.66126	0.02850
2116.37549	0.02861
2115.08972	0.02843
2113.80395	0.02790
2112.51818	0.02714
2111.23241	0.02650
2109.94664	0.02628
2108.66088	0.02660
2107.37511	0.02731
2106.08934	0.02804
2104.80357	0.02842
2103.51780	0.02831
2102.23203	0.02795
2100.94626	0.02765
2099.66049	0.02655
2098.37473	0.02609
2097.08896	0.02597
2095.80319	0.02567
2094.51742	0.02534
2093.23165	0.02533
2091.94588	0.02561
2090.66011	0.02586
2089.37434	0.02585
2088.08857	0.02574
2086.80281	0.02573
2085.51704	0.02571
2084.23127	0.02537
2082.94550	0.02466
2081.65973	0.02390
2080.37396	0.02347
2079.08819	0.02340
2077.80242	0.02346
2076.51666	0.02340
2075.23089	0.02314
2073.94512	0.02284
2072.65935	0.02266
2071.37358	0.02263
2070.08781	0.02265
2068.80204	0.02268
2067.51627	0.02286
2066.23050	0.02325
2064.94474	0.02365
2063.65897	0.02376
2062.37320	0.02350
2061.08743	0.02307
2059.80166	0.02267
2058.51589	0.02231
2057.23012	0.02199
2055.94435	0.02174
2054.65859	0.02155
2053.37282	0.02134
2052.08705	0.02104
2050.80128	0.02058
2049.51551	0.01993
2048.22974	0.01904
2046.94397	0.01809
2045.65820	0.01745
2044.37243	0.01738
2043.08667	0.01761
2041.80090	0.01751
2040.51513	0.01667
2039.22936	0.01539
2037.94359	0.01448
2036.65782	0.01447
2035.37205	0.01514
2034.08628	0.01585
2032.80052	0.01616
2031.51475	0.01609
2030.22898	0.01598
2028.94321	0.01611
2027.65744	0.01658
2026.37167	0.01730
2025.08590	0.01817
2023.80013	0.01895
2022.51436	0.01919
2021.22860	0.01852
2019.94283	0.01712
2018.65706	0.01568
2017.37129	0.01474
2016.08552	0.01440
2014.79975	0.01454
2013.51398	0.01511
2012.22821	0.01593
2010.94245	0.01660
2009.65668	0.01673
2008.37091	0.01634
2007.08514	0.01584
2005.79937	0.01566
2004.51360	0.01595
2003.22783	0.01660
2001.94206	0.01729
2000.65629	0.01779
1999.37053	0.01803
1998.08476	0.01811
1996.79899	0.01814
1995.51322	0.01818
1994.22745	0.01822
1992.94168	0.01812
1991.65591	0.01777
1990.37014	0.01730
1989.08438	0.01721
1987.79861	0.01784
1986.51284	0.01893
1985.22707	0.01977
1983.94130	0.01973
1982.65553	0.01869
1981.36976	0.01684
1980.08399	0.01451
1978.79822	0.01213
1977.51246	0.01035
1976.22669	0.00976
1974.94092	0.01053
1973.65515	0.01228
1972.36938	0.01439
1971.08361	0.01622
1969.79784	0.01727
1968.51207	0.01731
1967.22631	0.01659
1965.94054	0.01576
1964.65477	0.01531
1963.36900	0.01536
1962.08323	0.01579
1960.79746	0.01642
1959.51169	0.01708
1958.22592	0.01758
1956.94015	0.01786
1955.65439	0.01794
1954.36862	0.01792
1953.08285	0.01792
1951.79708	0.01808
1950.51131	0.01840
1949.22554	0.01869
1947.93977	0.01873
1946.65400	0.01852
1945.36823	0.01827
1944.08247	0.01816
1942.79670	0.01828
1941.51093	0.01856
1940.22516	0.01889
1938.93939	0.01919
1937.65362	0.01952
1936.36785	0.01991
1935.08208	0.02019
1933.79632	0.02011
1932.51055	0.01960
1931.22478	0.01892
1929.93901	0.01846
1928.65324	0.01846
1927.36747	0.01886
1926.08170	0.01943
1924.79593	0.01996
1923.51016	0.02037
1922.22440	0.02070
1920.93863	0.02103
1919.65286	0.02135
1918.36709	0.02154
1917.08132	0.02152
1915.79555	0.02133
1914.50978	0.02114
1913.22401	0.02109
1911.93825	0.02116
1910.65248	0.02119
1909.36671	0.02108
1908.08094	0.02086
1906.79517	0.02069
1905.50940	0.02071
1904.22363	0.02092
1902.93786	0.02126
1901.65209	0.02156
1900.36633	0.02168
1899.08056	0.02159
1897.79479	0.02139
1896.50902	0.02123
1895.22325	0.02116
1893.93748	0.02120
1892.65171	0.02137
1891.36594	0.02164
1890.08018	0.02191
1888.79441	0.02206
1887.50864	0.02203
1886.22287	0.02185
1884.93710	0.02162
1883.65133	0.02143
1882.36556	0.02127
1881.07979	0.02108
1879.79402	0.02083
1878.50826	0.02065
1877.22249	0.02066
1875.93672	0.02090
1874.65095	0.02125
1873.36518	0.02159
1872.07941	0.02186
1870.79364	0.02203
1869.50787	0.02207
1868.22211	0.02203
1866.93634	0.02196
1865.65057	0.02184
1864.36480	0.02166
1863.07903	0.02139
1861.79326	0.02115
1860.50749	0.02102
1859.22172	0.02101
1857.93595	0.02103
1856.65019	0.02102
1855.36442	0.02101
1854.07865	0.02102
1852.79288	0.02104
1851.50711	0.02101
1850.22134	0.02097
1848.93557	0.02100
1847.64980	0.02111
1846.36404	0.02120
1845.07827	0.02119
1843.79250	0.02105
1842.50673	0.02085
1841.22096	0.02068
1839.93519	0.02063
1838.64942	0.02070
1837.36365	0.02078
1836.07788	0.02079
1834.79212	0.02073
1833.50635	0.02069
1832.22058	0.02074
1830.93481	0.02087
1829.64904	0.02103
1828.36327	0.02116
1827.07750	0.02117
1825.79173	0.02101
1824.50597	0.02070
1823.22020	0.02030
1821.93443	0.01993
1820.64866	0.01969
1819.36289	0.01963
1818.07712	0.01977
1816.79135	0.02005
1815.50558	0.02043
1814.21981	0.02081
1812.93405	0.02107
1811.64828	0.02114
1810.36251	0.02104
1809.07674	0.02090
1807.79097	0.02084
1806.50520	0.02088
1805.21943	0.02093
1803.93366	0.02093
1802.64790	0.02087
1801.36213	0.02081
1800.07636	0.02080
1798.79059	0.02082
1797.50482	0.02083
1796.21905	0.02082
1794.93328	0.02081
1793.64751	0.02084
1792.36174	0.02092
1791.07598	0.02101
1789.79021	0.02099
1788.50444	0.02081
1787.21867	0.02053
1785.93290	0.02029
1784.64713	0.02017
1783.36136	0.02015
1782.07559	0.02016
1780.78983	0.02014
1779.50406	0.02011
1778.21829	0.02009
1776.93252	0.02009
1775.64675	0.02011
1774.36098	0.02014
1773.07521	0.02020
1771.78944	0.02030
1770.50367	0.02042
1769.21791	0.02052
1767.93214	0.02056
1766.64637	0.02054
1765.36060	0.02048
1764.07483	0.02038
1762.78906	0.02027
1761.50329	0.02020
1760.21752	0.02020
1758.93176	0.02028
1757.64599	0.02041
1756.36022	0.02058
1755.07445	0.02076
1753.78868	0.02090
1752.50291	0.02101
1751.21714	0.02110
1749.93137	0.02122
1748.64560	0.02141
1747.35984	0.02163
1746.07407	0.02187
1744.78830	0.02209
1743.50253	0.02232
1742.21676	0.02256
1740.93099	0.02285
1739.64522	0.02323
1738.35945	0.02369
1737.07369	0.02418
1735.78792	0.02460
1734.50215	0.02497
1733.21638	0.02534
1731.93061	0.02579
1730.64484	0.02626
1729.35907	0.02666
1728.07330	0.02697
1726.78753	0.02729
1725.50177	0.02773
1724.21600	0.02828
1722.93023	0.02882
1721.64446	0.02923
1720.35869	0.02954
1719.07292	0.02985
1717.78715	0.03029
1716.50138	0.03090
1715.21561	0.03166
1713.92985	0.03256
1712.64408	0.03360
1711.35831	0.03483
1710.07254	0.03623
1708.78677	0.03779
1707.50100	0.03948
1706.21523	0.04130
1704.92946	0.04323
1703.64370	0.04525
1702.35793	0.04739
1701.07216	0.04968
1699.78639	0.05218
1698.50062	0.05487
1697.21485	0.05772
1695.92908	0.06068
1694.64331	0.06368
1693.35754	0.06667
1692.07178	0.06960
1690.78601	0.07247
1689.50024	0.07529
1688.21447	0.07810
1686.92870	0.08098
1685.64293	0.08401
1684.35716	0.08724
1683.07139	0.09058
1681.78563	0.09396
1680.49986	0.09740
1679.21409	0.10094
1677.92832	0.10462
1676.64255	0.10844
1675.35678	0.11239
1674.07101	0.11643
1672.78524	0.12051
1671.49947	0.12467
1670.21371	0.12896
1668.92794	0.13333
1667.64217	0.13763
1666.35640	0.14176
1665.07063	0.14575
1663.78486	0.14968
1662.49909	0.15359
1661.21332	0.15742
1659.92756	0.16108
1658.64179	0.16449
1657.35602	0.16761
1656.07025	0.17048
1654.78448	0.17324
1653.49871	0.17603
1652.21294	0.17883
1650.92717	0.18143
1649.64140	0.18371
1648.35564	0.18572
1647.06987	0.18762
1645.78410	0.18952
1644.49833	0.19141
1643.21256	0.19322
1641.92679	0.19492
1640.64102	0.19651
1639.35525	0.19799
1638.06949	0.19940
1636.78372	0.20073
1635.49795	0.20200
1634.21218	0.20315
1632.92641	0.20410
1631.64064	0.20476
1630.35487	0.20503
1629.06910	0.20483
1627.78333	0.20411
1626.49757	0.20286
1625.21180	0.20115
1623.92603	0.19907
1622.64026	0.19662
1621.35449	0.19378
1620.06872	0.19055
1618.78295	0.18702
1617.49718	0.18331
1616.21142	0.17956
1614.92565	0.17579
1613.63988	0.17194
1612.35411	0.16795
1611.06834	0.16383
1609.78257	0.15965
1608.49680	0.15552
1607.21103	0.15150
1605.92526	0.14763
1604.63950	0.14393
1603.35373	0.14038
1602.06796	0.13697
1600.78219	0.13376
1599.49642	0.13080
1598.21065	0.12809
1596.92488	0.12559
1595.63911	0.12327
1594.35335	0.12110
1593.06758	0.11914
1591.78181	0.11743
1590.49604	0.11603
1589.21027	0.11493
1587.92450	0.11408
1586.63873	0.11344
1585.35296	0.11297
1584.06719	0.11268
1582.78143	0.11258
1581.49566	0.11267
1580.20989	0.11296
1578.92412	0.11349
1577.63835	0.11431
1576.35258	0.11547
1575.06681	0.11695
1573.78104	0.11863
1572.49528	0.12045
1571.20951	0.12238
1569.92374	0.12447
1568.63797	0.12673
1567.35220	0.12916
1566.06643	0.13170
1564.78066	0.13428
1563.49489	0.13684
1562.20912	0.13936
1560.92336	0.14187
1559.63759	0.14442
1558.35182	0.14699
1557.06605	0.14951
1555.78028	0.15189
1554.49451	0.15410
1553.20874	0.15612
1551.92297	0.15796
1550.63721	0.15964
1549.35144	0.16117
1548.06567	0.16253
1546.77990	0.16370
1545.49413	0.16467
1544.20836	0.16543
1542.92259	0.16600
1541.63682	0.16646
1540.35105	0.16689
1539.06529	0.16733
1537.77952	0.16769
1536.49375	0.16786
1535.20798	0.16784
1533.92221	0.16770
1532.63644	0.16750
1531.35067	0.16725
1530.06490	0.16690
1528.77914	0.16643
1527.49337	0.16585
1526.20760	0.16519
1524.92183	0.16445
1523.63606	0.16359
1522.35029	0.16264
1521.06452	0.16163
1519.77875	0.16060
1518.49298	0.15954
1517.20722	0.15836
1515.92145	0.15699
1514.63568	0.15537
1513.34991	0.15352
1512.06414	0.15146
1510.77837	0.14923
1509.49260	0.14684
1508.20683	0.14432
1506.92107	0.14171
1505.63530	0.13906
1504.34953	0.13635
1503.06376	0.13358
1501.77799	0.13075
1500.49222	0.12788
1499.20645	0.12497
1497.92068	0.12202
1496.63491	0.11907
1495.34915	0.11614
1494.06338	0.11328
1492.77761	0.11048
1491.49184	0.10776
1490.20607	0.10519
1488.92030	0.10285
1487.63453	0.10080
1486.34876	0.09906
1485.06299	0.09761
1483.77723	0.09640
1482.49146	0.09542
1481.20569	0.09469
1479.91992	0.09423
1478.63415	0.09409
1477.34838	0.09426
1476.06261	0.09472
1474.77684	0.09548
1473.49108	0.09650
1472.20531	0.09775
1470.91954	0.09913
1469.63377	0.10055
1468.34800	0.10192
1467.06223	0.10324
1465.77646	0.10458
1464.49069	0.10602
1463.20492	0.10759
1461.91916	0.10924
1460.63339	0.11093
1459.34762	0.11263
1458.06185	0.11438
1456.77608	0.11615
1455.49031	0.11786
1454.20454	0.11936
1452.91877	0.12055
1451.63301	0.12141
1450.34724	0.12198
1449.06147	0.12230
1447.77570	0.12241
1446.48993	0.12228
1445.20416	0.12193
1443.91839	0.12137
1442.63262	0.12064
1441.34685	0.11977
1440.06109	0.11875
1438.77532	0.11759
1437.48955	0.11632
1436.20378	0.11498
1434.91801	0.11360
1433.63224	0.11219
1432.34647	0.11078
1431.06070	0.10942
1429.77494	0.10818
1428.48917	0.10708
1427.20340	0.10612
1425.91763	0.10533
1424.63186	0.10474
1423.34609	0.10432
1422.06032	0.10402
1420.77455	0.10383
1419.48878	0.10376
1418.20302	0.10380
1416.91725	0.10389
1415.63148	0.10401
1414.34571	0.10418
1413.05994	0.10445
1411.77417	0.10481
1410.48840	0.10523
1409.20263	0.10565
1407.91687	0.10603
1406.63110	0.10640
1405.34533	0.10677
1404.05956	0.10718
1402.77379	0.10757
1401.48802	0.10785
1400.20225	0.10793
1398.91648	0.10780
1397.63071	0.10754
1396.34495	0.10725
1395.05918	0.10700
1393.77341	0.10680
1392.48764	0.10661
1391.20187	0.10641
1389.91610	0.10615
1388.63033	0.10581
1387.34456	0.10543
1386.05880	0.10500
1384.77303	0.10455
1383.48726	0.10407
1382.20149	0.10359
1380.91572	0.10311
1379.62995	0.10263
1378.34418	0.10211
1377.05841	0.10153
1375.77264	0.10088
1374.48688	0.10014
1373.20111	0.09930
1371.91534	0.09836
1370.62957	0.09734
1369.34380	0.09627
1368.05803	0.09516
1366.77226	0.09401
1365.48649	0.09286
1364.20073	0.09178
1362.91496	0.09083
1361.62919	0.09002
1360.34342	0.08936
1359.05765	0.08884
1357.77188	0.08847
1356.48611	0.08826
1355.20034	0.08823
1353.91457	0.08839
1352.62881	0.08873
1351.34304	0.08923
1350.05727	0.08985
1348.77150	0.09059
1347.48573	0.09142
1346.19996	0.09232
1344.91419	0.09325
1343.62842	0.09418
1342.34266	0.09508
1341.05689	0.09590
1339.77112	0.09659
1338.48535	0.09710
1337.19958	0.09740
1335.91381	0.09745
1334.62804	0.09726
1333.34227	0.09684
1332.05650	0.09628
1330.77074	0.09561
1329.48497	0.09488
1328.19920	0.09411
1326.91343	0.09332
1325.62766	0.09255
1324.34189	0.09186
1323.05612	0.09128
1321.77035	0.09086
1320.48459	0.09056
1319.19882	0.09033
1317.91305	0.09010
1316.62728	0.08982
1315.34151	0.08945
1314.05574	0.08901
1312.76997	0.08851
1311.48420	0.08800
1310.19843	0.08749
1308.91267	0.08695
1307.62690	0.08643
1306.34113	0.08594
1305.05536	0.08553
1303.76959	0.08519
1302.48382	0.08489
1301.19805	0.08461
1299.91228	0.08433
1298.62652	0.08404
1297.34075	0.08376
1296.05498	0.08357
1294.76921	0.08357
1293.48344	0.08378
1292.19767	0.08417
1290.91190	0.08466
1289.62613	0.08519
1288.34036	0.08572
1287.05460	0.08627
1285.76883	0.08686
1284.48306	0.08748
1283.19729	0.08805
1281.91152	0.08852
1280.62575	0.08885
1279.33998	0.08906
1278.05421	0.08924
1276.76845	0.08941
1275.48268	0.08958
1274.19691	0.08972
1272.91114	0.08985
1271.62537	0.09001
1270.33960	0.09027
1269.05383	0.09067
1267.76806	0.09122
1266.48229	0.09191
1265.19653	0.09265
1263.91076	0.09339
1262.62499	0.09409
1261.33922	0.09475
1260.05345	0.09538
1258.76768	0.09596
1257.48191	0.09648
1256.19614	0.09699
1254.91037	0.09753
1253.62461	0.09816
1252.33884	0.09889
1251.05307	0.09971
1249.76730	0.10062
1248.48153	0.10163
1247.19576	0.10274
1245.90999	0.10391
1244.62422	0.10509
1243.33846	0.10622
1242.05269	0.10727
1240.76692	0.10821
1239.48115	0.10899
1238.19538	0.10958
1236.90961	0.10998
1235.62384	0.11023
1234.33807	0.11036
1233.05230	0.11033
1231.76654	0.11010
1230.48077	0.10961
1229.19500	0.10886
1227.90923	0.10790
1226.62346	0.10676
1225.33769	0.10547
1224.05192	0.10409
1222.76615	0.10263
1221.48039	0.10118
1220.19462	0.09978
1218.90885	0.09848
1217.62308	0.09729
1216.33731	0.09623
1215.05154	0.09535
1213.76577	0.09471
1212.48000	0.09432
1211.19423	0.09413
1209.90847	0.09407
1208.62270	0.09411
1207.33693	0.09426
1206.05116	0.09449
1204.76539	0.09470
1203.47962	0.09481
1202.19385	0.09472
1200.90808	0.09447
1199.62232	0.09410
1198.33655	0.09334
1197.05078	0.09240
1195.76501	0.09133
1194.47924	0.09019
1193.19347	0.08904
1191.90770	0.08790
1190.62193	0.08678
1189.33616	0.08567
1188.05040	0.08463
1186.76463	0.08371
1185.47886	0.08291
1184.19309	0.08218
1182.90732	0.08149
1181.62155	0.08090
1180.33578	0.08045
1179.05001	0.08012
1177.76425	0.07981
1176.47848	0.07946
1175.19271	0.07910
1173.90694	0.07879
1172.62117	0.07859
1171.33540	0.07848
1170.04963	0.07845
1168.76386	0.07848
1167.47809	0.07854
1166.19233	0.07862
1164.90656	0.07872
1163.62079	0.07882
1162.33502	0.07887
1161.04925	0.07881
1159.76348	0.07860
1158.47771	0.07820
1157.19194	0.07762
1155.90618	0.07693
1154.62041	0.07622
1153.33464	0.07550
1152.04887	0.07477
1150.76310	0.07396
1149.47733	0.07307
1148.19156	0.07218
1146.90579	0.07137
1145.62002	0.07067
1144.33426	0.07008
1143.04849	0.06955
1141.76272	0.06902
1140.47695	0.06847
1139.19118	0.06792
1137.90541	0.06741
1136.61964	0.06697
1135.33387	0.06659
1134.04811	0.06625
1132.76234	0.06598
1131.47657	0.06583
1130.19080	0.06578
1128.90503	0.06574
1127.61926	0.06569
1126.33349	0.06562
1125.04772	0.06557
1123.76195	0.06556
1122.47619	0.06561
1121.19042	0.06573
1119.90465	0.06591
1118.61888	0.06606
1117.33311	0.06613
1116.04734	0.06614
1114.76157	0.06619
1113.47580	0.06632
1112.19004	0.06650
1110.90427	0.06667
1109.61850	0.06684
1108.33273	0.06707
1107.04696	0.06737
1105.76119	0.06772
1104.47542	0.06814
1103.18965	0.06859
1101.90388	0.06904
1100.61812	0.06944
1099.33235	0.06980
1098.04658	0.07020
1096.76081	0.07066
1095.47504	0.07116
1094.18927	0.07168
1092.90350	0.07226
1091.61773	0.07293
1090.33197	0.07375
1089.04620	0.07471
1087.76043	0.07579
1086.47466	0.07694
1085.18889	0.07806
1083.90312	0.07901
1082.61735	0.07971
1081.33158	0.08013
1080.04581	0.08032
1078.76005	0.08030
1077.47428	0.08006
1076.18851	0.07966
1074.90274	0.07914
1073.61697	0.07861
1072.33120	0.07813
1071.04543	0.07778
1069.75966	0.07756
1068.47390	0.07745
1067.18813	0.07738
1065.90236	0.07734
1064.61659	0.07733
1063.33082	0.07731
1062.04505	0.07723
1060.75928	0.07702
1059.47351	0.07672
1058.18774	0.07642
1056.90198	0.07617
1055.61621	0.07594
1054.33044	0.07567
1053.04467	0.07534
1051.75890	0.07493
1050.47313	0.07449
1049.18736	0.07406
1047.90159	0.07372
1046.61583	0.07352
1045.33006	0.07341
1044.04429	0.07331
1042.75852	0.07322
1041.47275	0.07321
1040.18698	0.07334
1038.90121	0.07360
1037.61544	0.07396
1036.32967	0.07437
1035.04391	0.07477
1033.75814	0.07516
1032.47237	0.07550
1031.18660	0.07574
1029.90083	0.07579
1028.61506	0.07559
1027.32929	0.07514
1026.04352	0.07451
1024.75775	0.07372
1023.47199	0.07284
1022.18622	0.07194
1020.90045	0.07114
1019.61468	0.07048
1018.32891	0.06996
1017.04314	0.06951
1015.75737	0.06908
1014.47160	0.06862
1013.18584	0.06811
1011.90007	0.06751
1010.61430	0.06680
1009.32853	0.06600
1008.04276	0.06520
1006.75699	0.06443
1005.47122	0.06367
1004.18545	0.06289
1002.89968	0.06211
1001.61392	0.06140
1000.32815	0.06078
999.04238	0.06019
997.75661	0.05960
996.47084	0.05903
995.18507	0.05850
993.89930	0.05798
992.61353	0.05744
991.32777	0.05684
990.04200	0.05626
988.75623	0.05574
987.47046	0.05536
986.18469	0.05511
984.89892	0.05492
983.61315	0.05471
982.32738	0.05449
981.04161	0.05434
979.75585	0.05433
978.47008	0.05448
977.18431	0.05468
975.89854	0.05484
974.61277	0.05485
973.32700	0.05470
972.04123	0.05441
970.75546	0.05406
969.46970	0.05369
968.18393	0.05331
966.89816	0.05291
965.61239	0.05251
964.32662	0.05214
963.04085	0.05184
961.75508	0.05162
960.46931	0.05145
959.18354	0.05119
957.89778	0.05080
956.61201	0.05030
955.32624	0.04983
954.04047	0.04947
952.75470	0.04925
951.46893	0.04913
950.18316	0.04906
948.89739	0.04903
947.61163	0.04898
946.32586	0.04891
945.04009	0.04885
943.75432	0.04881
942.46855	0.04879
941.18278	0.04871
939.89701	0.04857
938.61124	0.04839
937.32547	0.04823
936.03971	0.04813
934.75394	0.04810
933.46817	0.04810
932.18240	0.04812
930.89663	0.04807
929.61086	0.04795
928.32509	0.04780
927.03932	0.04773
925.75356	0.04777
924.46779	0.04784
923.18202	0.04783
921.89625	0.04772
920.61048	0.04753
919.32471	0.04730
918.03894	0.04702
916.75317	0.04671
915.46740	0.04644
914.18164	0.04624
912.89587	0.04607
911.61010	0.04586
910.32433	0.04557
909.03856	0.04528
907.75279	0.04508
906.46702	0.04498
905.18125	0.04492
903.89549	0.04487
902.60972	0.04481
901.32395	0.04473
900.03818	0.04464
898.75241	0.04452
897.46664	0.04440
896.18087	0.04426
894.89510	0.04411
893.60933	0.04397
892.32357	0.04389
891.03780	0.04387
889.75203	0.04389
888.46626	0.04393
887.18049	0.04400
885.89472	0.04410
884.60895	0.04423
883.32318	0.04431
882.03742	0.04428
880.75165	0.04412
879.46588	0.04394
878.18011	0.04387
876.89434	0.04394
875.60857	0.04406
874.32280	0.04414
873.03703	0.04416
871.75126	0.04411
870.46550	0.04404
869.17973	0.04394
867.89396	0.04385
866.60819	0.04377
865.32242	0.04366
864.03665	0.04351
862.75088	0.04334
861.46511	0.04321
860.17935	0.04314
858.89358	0.04313
857.60781	0.04312
856.32204	0.04311
855.03627	0.04313
853.75050	0.04322
852.46473	0.04337
851.17896	0.04352
849.89319	0.04359
848.60743	0.04356
847.32166	0.04346
846.03589	0.04329
844.75012	0.04306
843.46435	0.04285
842.17858	0.04273
840.89281	0.04270
839.60704	0.04272
838.32128	0.04272
837.03551	0.04269
835.74974	0.04269
834.46397	0.04275
833.17820	0.04285
831.89243	0.04297
830.60666	0.04307
829.32089	0.04321
828.03512	0.04341
826.74936	0.04368
825.46359	0.04393
824.17782	0.04413
822.89205	0.04430
821.60628	0.04452
820.32051	0.04484
819.03474	0.04519
817.74897	0.04550
816.46321	0.04573
815.17744	0.04588
813.89167	0.04596
812.60590	0.04603
811.32013	0.04617
810.03436	0.04640
808.74859	0.04668
807.46282	0.04697
806.17705	0.04724
804.89129	0.04747
803.60552	0.04768
802.31975	0.04788
801.03398	0.04809
799.74821	0.04827
798.46244	0.04838
797.17667	0.04841
795.89090	0.04842
794.60513	0.04846
793.31937	0.04859
792.03360	0.04879
790.74783	0.04899
789.46206	0.04910
788.17629	0.04908
786.89052	0.04902
785.60475	0.04898
784.31898	0.04898
783.03322	0.04895
781.74745	0.04889
780.46168	0.04888
779.17591	0.04900
777.89014	0.04922
776.60437	0.04947
775.31860	0.04966
774.03283	0.04982
772.74706	0.04999
771.46130	0.05021
770.17553	0.05045
768.88976	0.05066
767.60399	0.05084
766.31822	0.05104
765.03245	0.05127
763.74668	0.05150
762.46091	0.05168
761.17515	0.05182
759.88938	0.05198
758.60361	0.05215
757.31784	0.05235
756.03207	0.05255
754.74630	0.05279
753.46053	0.05302
752.17476	0.05323
750.88899	0.05341
749.60323	0.05361
748.31746	0.05388
747.03169	0.05420
745.74592	0.05452
744.46015	0.05478
743.17438	0.05497
741.88861	0.05507
740.60284	0.05512
739.31708	0.05520
738.03131	0.05541
736.74554	0.05575
735.45977	0.05618
734.17400	0.05663
732.88823	0.05708
731.60246	0.05753
730.31669	0.05795
729.03092	0.05831
727.74516	0.05862
726.45939	0.05887
725.17362	0.05907
723.88785	0.05920
722.60208	0.05950
721.31631	0.05990
720.03054	0.06029
718.74477	0.06063
717.45901	0.06088
716.17324	0.06103
714.88747	0.06109
713.60170	0.06109
712.31593	0.06113
711.03016	0.06129
709.74439	0.06158
708.45862	0.06198
707.17285	0.06244
705.88709	0.06291
704.60132	0.06331
703.31555	0.06361
702.02978	0.06384
700.74401	0.06404
699.45824	0.06423
698.17247	0.06442
696.88670	0.06458
695.60094	0.06474
694.31517	0.06484
693.02940	0.06487
691.74363	0.06486
690.45786	0.06486
689.17209	0.06497
687.88632	0.06514
686.60055	0.06529
685.31478	0.06539
684.02902	0.06550
682.74325	0.06569
681.45748	0.06592
680.17171	0.06612
678.88594	0.06626
677.60017	0.06639
676.31440	0.06660
675.02863	0.06685
673.74287	0.06709
672.45710	0.06731
671.17133	0.06753
669.88556	0.06782
668.59979	0.06809
667.31402	0.06817
666.02825	0.06828
664.74248	0.06836
663.45671	0.06841
662.17095	0.06848
660.88518	0.06856
659.59941	0.06867
658.31364	0.06884
657.02787	0.06903
655.74210	0.06918
654.45633	0.06927
653.17056	0.06931
651.88480	0.06934
650.59903	0.06942
649.31326	0.06954
648.02749	0.06963
646.74172	0.06970
645.45595	0.06976
644.17018	0.06982
642.88441	0.06988
641.59864	0.06994
640.31288	0.06997
639.02711	0.06997
637.74134	0.07001
636.45557	0.07011
635.16980	0.07023
633.88403	0.07034
632.59826	0.07040
631.31249	0.07022
630.02673	0.06919
628.74096	0.06766
627.45519	0.06819
626.16942	0.06634
624.88365	0.06266
623.59788	0.05878
622.31211	0.05568
621.02634	0.05427
619.74057	0.05504
618.45481	0.05784
617.16904	0.06202
615.88327	0.06654
614.59750	0.07016
613.31173	0.07187
612.02596	0.07147
610.74019	0.06980
609.45442	0.06822
608.16866	0.06768
606.88289	0.06804
605.59712	0.06862
604.31135	0.06894
603.02558	0.06900
601.73981	0.06912
600.45404	0.06946
599.16827	0.06997
597.88250	0.07047
596.59674	0.07081
595.31097	0.07096
594.02520	0.07094
592.73943	0.07080
591.45366	0.07060
590.16789	0.07043
588.88212	0.07037
587.59635	0.07041
586.31059	0.07050
585.02482	0.07053
583.73905	0.07051
582.45328	0.07051
581.16751	0.07062
579.88174	0.07079
578.59597	0.07089
577.31020	0.07085
576.02443	0.07075
574.73867	0.07072
573.45290	0.07077
572.16713	0.07081
570.88136	0.07076
569.59559	0.07066
568.30982	0.07064
567.02405	0.07086
565.73828	0.07130
564.45251	0.07174
563.16675	0.07200
561.88098	0.07207
560.59521	0.07208
559.30944	0.07218
558.02367	0.07236
556.73790	0.07254
555.45213	0.07267
554.16636	0.07273
552.88060	0.07276
551.59483	0.07281
550.30906	0.07288
549.02329	0.07290
547.73752	0.07284
546.45175	0.07270
545.16598	0.07255
543.88021	0.07244
542.59444	0.07235
541.30868	0.07220
540.02291	0.07198
538.73714	0.07179
537.45137	0.07178
536.16560	0.07201
534.87983	0.07239
533.59406	0.07268
532.30829	0.07274
531.02253	0.07262
529.73676	0.07252
528.45099	0.07258
527.16522	0.07276
525.87945	0.07286
524.59368	0.07273
523.30791	0.07235
522.02214	0.07187
520.73637	0.07148
519.45061	0.07122
518.16484	0.07098
516.87907	0.07070
515.59330	0.07047
514.30753	0.07039
513.02176	0.07047
511.73599	0.07054
510.45022	0.07049
509.16446	0.07032
507.87869	0.07014
506.59292	0.07003
505.30715	0.06997
504.02138	0.06989
502.73561	0.06972
501.44984	0.06948
500.16407	0.06925
498.87830	0.06904
497.59254	0.06883
496.30677	0.06859
495.02100	0.06829
493.73523	0.06794
492.44946	0.06758
491.16369	0.06724
489.87792	0.06693
488.59215	0.06663
487.30639	0.06634
486.02062	0.06609
484.73485	0.06596
483.44908	0.06598
482.16331	0.06604
480.87754	0.06604
479.59177	0.06595
478.30600	0.06584
477.02023	0.06580
475.73447	0.06580
474.44870	0.06575
473.16293	0.06558
471.87716	0.06528
470.59139	0.06484
469.30562	0.06436
468.01985	0.06398
466.73408	0.06378
465.44832	0.06371
464.16255	0.06362
462.87678	0.06339
461.59101	0.06300
460.30524	0.06253
459.01947	0.06203
457.73370	0.06159
456.44793	0.06127
455.16216	0.06111
453.87640	0.06105
452.59063	0.06098
451.30486	0.06079
450.01909	0.06045
448.73332	0.06001
447.44755	0.05959
446.16178	0.05927
444.87601	0.05906
443.59025	0.05891
442.30448	0.05874
441.01871	0.05851
439.73294	0.05822
438.44717	0.05790
437.16140	0.05756
435.87563	0.05724
434.58986	0.05694
433.30409	0.05669
432.01833	0.05649
430.73256	0.05635
429.44679	0.05625
428.16102	0.05612
426.87525	0.05594
425.58948	0.05568
424.30371	0.05537
423.01794	0.05503
421.73218	0.05469
420.44641	0.05437
419.16064	0.05410
417.87487	0.05389
416.58910	0.05372
415.30333	0.05354
414.01756	0.05335
412.73179	0.05315
411.44602	0.05297
410.16026	0.05279
408.87449	0.05261
407.58872	0.05241
406.30295	0.05218
405.01718	0.05194
403.73141	0.05175
402.44564	0.05163
401.15987	0.05157
399.87411	0.05152
