3996.16951	0.03671
3994.24086	0.03692
3992.31220	0.03772
3990.38355	0.03825
3988.45490	0.03809
3986.52624	0.03770
3984.59759	0.03744
3982.66894	0.03752
3980.74028	0.03778
3978.81163	0.03762
3976.88298	0.03713
3974.95432	0.03679
3973.02567	0.03688
3971.09702	0.03744
3969.16836	0.03788
3967.23971	0.03774
3965.31106	0.03727
3963.38240	0.03681
3961.45375	0.03660
3959.52510	0.03668
3957.59645	0.03667
3955.66779	0.03648
3953.73914	0.03657
3951.81049	0.03687
3949.88183	0.03697
3947.95318	0.03679
3946.02453	0.03641
3944.09587	0.03612
3942.16722	0.03622
3940.23857	0.03650
3938.30991	0.03649
3936.38126	0.03617
3934.45261	0.03589
3932.52395	0.03582
3930.59530	0.03589
3928.66665	0.03597
3926.73799	0.03580
3924.80934	0.03549
3922.88069	0.03538
3920.95203	0.03554
3919.02338	0.03581
3917.09473	0.03626
3915.16607	0.03667
3913.23742	0.03664
3911.30877	0.03625
3909.38011	0.03610
3907.45146	0.03604
3905.52281	0.03558
3903.59415	0.03523
3901.66550	0.03556
3899.73685	0.03603
3897.80819	0.03594
3895.87954	0.03555
3893.95089	0.03518
3892.02224	0.03492
3890.09358	0.03454
3888.16493	0.03445
3886.23628	0.03504
3884.30762	0.03528
3882.37897	0.03511
3880.45032	0.03533
3878.52166	0.03595
3876.59301	0.03652
3874.66436	0.03640
3872.73570	0.03574
3870.80705	0.03534
3868.87840	0.03479
3866.94974	0.03432
3865.02109	0.03442
3863.09244	0.03476
3861.16378	0.03556
3859.23513	0.03625
3857.30648	0.03597
3855.37782	0.03527
3853.44917	0.03467
3851.52052	0.03420
3849.59186	0.03413
3847.66321	0.03405
3845.73456	0.03399
3843.80590	0.03426
3841.87725	0.03449
3839.94860	0.03449
3838.01994	0.03437
3836.09129	0.03418
3834.16264	0.03431
3832.23398	0.03445
3830.30533	0.03420
3828.37668	0.03383
3826.44803	0.03334
3824.51937	0.03281
3822.59072	0.03288
3820.66207	0.03288
3818.73341	0.03248
3816.80476	0.03249
3814.87611	0.03249
3812.94745	0.03300
3811.01880	0.03402
3809.09015	0.03442
3807.16149	0.03404
3805.23284	0.03317
3803.30419	0.03282
3801.37553	0.03279
3799.44688	0.03253
3797.51823	0.03290
3795.58957	0.03328
3793.66092	0.03306
3791.73227	0.03256
3789.80361	0.03233
3787.87496	0.03254
3785.94631	0.03254
3784.01765	0.03219
3782.08900	0.03225
3780.16035	0.03286
3778.23169	0.03311
3776.30304	0.03288
3774.37439	0.03270
3772.44573	0.03254
3770.51708	0.03227
3768.58843	0.03188
3766.65977	0.03171
3764.73112	0.03165
3762.80247	0.03144
3760.87381	0.03141
3758.94516	0.03158
3757.01651	0.03185
3755.08786	0.03223
3753.15920	0.03258
3751.23055	0.03205
3749.30190	0.03093
3747.37324	0.03026
3745.44459	0.03062
3743.51594	0.03049
3741.58728	0.03024
3739.65863	0.03095
3737.72998	0.03155
3735.80132	0.03148
3733.87267	0.03083
3731.94402	0.03021
3730.01536	0.02983
3728.08671	0.02997
3726.15806	0.03033
3724.22940	0.03049
3722.30075	0.03031
3720.37210	0.03004
3718.44344	0.02980
3716.51479	0.02968
3714.58614	0.02962
3712.65748	0.02950
3710.72883	0.02928
3708.80018	0.02947
3706.87152	0.02980
3704.94287	0.02966
3703.01422	0.02945
3701.08556	0.02929
3699.15691	0.02901
3697.22826	0.02880
3695.29960	0.02859
3693.37095	0.02841
3691.44230	0.02881
3689.51365	0.02994
3687.58499	0.03067
3685.65634	0.03033
3683.72769	0.02960
3681.79903	0.02905
3679.87038	0.02908
3677.94173	0.02951
3676.01307	0.02986
3674.08442	0.02937
3672.15577	0.02912
3670.22711	0.02957
3668.29846	0.02981
3666.36981	0.03005
3664.44115	0.03027
3662.51250	0.03026
3660.58385	0.03004
3658.65519	0.02995
3656.72654	0.03012
3654.79789	0.03000
3652.86923	0.02999
3650.94058	0.03053
3649.01193	0.03103
3647.08327	0.03115
3645.15462	0.03115
3643.22597	0.03158
3641.29731	0.03235
3639.36866	0.03258
3637.44001	0.03233
3635.51135	0.03258
3633.58270	0.03329
3631.65405	0.03396
3629.72539	0.03461
3627.79674	0.03482
3625.86809	0.03446
3623.93943	0.03406
3622.01078	0.03393
3620.08213	0.03450
3618.15348	0.03484
3616.22482	0.03485
3614.29617	0.03523
3612.36752	0.03545
3610.43886	0.03539
3608.51021	0.03582
3606.58156	0.03653
3604.65290	0.03660
3602.72425	0.03606
3600.79560	0.03602
3598.86694	0.03689
3596.93829	0.03781
3595.00964	0.03803
3593.08098	0.03789
3591.15233	0.03808
3589.22368	0.03881
3587.29502	0.03955
3585.36637	0.03994
3583.43772	0.04026
3581.50906	0.04090
3579.58041	0.04191
3577.65176	0.04276
3575.72310	0.04299
3573.79445	0.04300
3571.86580	0.04324
3569.93714	0.04349
3568.00849	0.04358
3566.07984	0.04374
3564.15118	0.04427
3562.22253	0.04498
3560.29388	0.04550
3558.36522	0.04575
3556.43657	0.04604
3554.50792	0.04651
3552.57927	0.04691
3550.65061	0.04716
3548.72196	0.04772
3546.79331	0.04858
3544.86465	0.04898
3542.93600	0.04894
3541.00735	0.04921
3539.07869	0.04987
3537.15004	0.05045
3535.22139	0.05080
3533.29273	0.05116
3531.36408	0.05165
3529.43543	0.05216
3527.50677	0.05246
3525.57812	0.05251
3523.64947	0.05266
3521.72081	0.05305
3519.79216	0.05344
3517.86351	0.05384
3515.93485	0.05444
3514.00620	0.05504
3512.07755	0.05534
3510.14889	0.05544
3508.22024	0.05583
3506.29159	0.05676
3504.36293	0.05760
3502.43428	0.05766
3500.50563	0.05730
3498.57697	0.05741
3496.64832	0.05807
3494.71967	0.05868
3492.79101	0.05914
3490.86236	0.05980
3488.93371	0.06043
3487.00506	0.06054
3485.07640	0.06040
3483.14775	0.06050
3481.21910	0.06057
3479.29044	0.06050
3477.36179	0.06083
3475.43314	0.06151
3473.50448	0.06200
3471.57583	0.06244
3469.64718	0.06329
3467.71852	0.06414
3465.78987	0.06427
3463.86122	0.06381
3461.93256	0.06355
3460.00391	0.06376
3458.07526	0.06431
3456.14660	0.06504
3454.21795	0.06579
3452.28930	0.06646
3450.36064	0.06679
3448.43199	0.06656
3446.50334	0.06616
3444.57468	0.06621
3442.64603	0.06670
3440.71738	0.06737
3438.78872	0.06811
3436.86007	0.06856
3434.93142	0.06851
3433.00276	0.06836
3431.07411	0.06841
3429.14546	0.06868
3427.21680	0.06922
3425.28815	0.06974
3423.35950	0.06985
3421.43084	0.06979
3419.50219	0.07009
3417.57354	0.07079
3415.64489	0.07144
3413.71623	0.07180
3411.78758	0.07201
3409.85893	0.07228
3407.93027	0.07266
3406.00162	0.07299
3404.07297	0.07312
3402.14431	0.07317
3400.21566	0.07338
3398.28701	0.07377
3396.35835	0.07405
3394.42970	0.07413
3392.50105	0.07429
3390.57239	0.07470
3388.64374	0.07512
3386.71509	0.07520
3384.78643	0.07517
3382.85778	0.07558
3380.92913	0.07630
3379.00047	0.07684
3377.07182	0.07721
3375.14317	0.07752
3373.21451	0.07786
3371.28586	0.07845
3369.35721	0.07900
3367.42855	0.07932
3365.49990	0.07972
3363.57125	0.08035
3361.64259	0.08106
3359.71394	0.08177
3357.78529	0.08248
3355.85663	0.08319
3353.92798	0.08385
3351.99933	0.08452
3350.07068	0.08512
3348.14202	0.08563
3346.21337	0.08604
3344.28472	0.08653
3342.35606	0.08734
3340.42741	0.08822
3338.49876	0.08874
3336.57010	0.08915
3334.64145	0.08995
3332.71280	0.09095
3330.78414	0.09152
3328.85549	0.09163
3326.92684	0.09170
3324.99818	0.09190
3323.06953	0.09219
3321.14088	0.09244
3319.21222	0.09273
3317.28357	0.09323
3315.35492	0.09367
3313.42626	0.09378
3311.49761	0.09388
3309.56896	0.09405
3307.64030	0.09421
3305.71165	0.09451
3303.78300	0.09481
3301.85434	0.09476
3299.92569	0.09460
3297.99704	0.09467
3296.06838	0.09488
3294.13973	0.09491
3292.21108	0.09470
3290.28242	0.09460
3288.35377	0.09478
3286.42512	0.09494
3284.49646	0.09488
3282.56781	0.09455
3280.63916	0.09403
3278.71051	0.09389
3276.78185	0.09414
3274.85320	0.09406
3272.92455	0.09350
3270.99589	0.09303
3269.06724	0.09285
3267.13859	0.09256
3265.20993	0.09193
3263.28128	0.09125
3261.35263	0.09084
3259.42397	0.09065
3257.49532	0.09035
3255.56667	0.08969
3253.63801	0.08895
3251.70936	0.08862
3249.78071	0.08867
3247.85205	0.08867
3245.92340	0.08858
3243.99475	0.08849
3242.06609	0.08818
3240.13744	0.08755
3238.20879	0.08689
3236.28013	0.08649
3234.35148	0.08622
3232.42283	0.08584
3230.49417	0.08560
3228.56552	0.08562
3226.63687	0.08555
3224.70821	0.08531
3222.77956	0.08505
3220.85091	0.08478
3218.92225	0.08439
3216.99360	0.08383
3215.06495	0.08335
3213.13630	0.08308
3211.20764	0.08280
3209.27899	0.08238
3207.35034	0.08205
3205.42168	0.08203
3203.49303	0.08224
3201.56438	0.08242
3199.63572	0.08234
3197.70707	0.08185
3195.77842	0.08115
3193.84976	0.08053
3191.92111	0.07988
3189.99246	0.07920
3188.06380	0.07870
3186.13515	0.07831
3184.20650	0.07786
3182.27784	0.07743
3180.34919	0.07709
3178.42054	0.07666
3176.49188	0.07599
3174.56323	0.07526
3172.63458	0.07463
3170.70592	0.07408
3168.77727	0.07366
3166.84862	0.07340
3164.91996	0.07322
3162.99131	0.07293
3161.06266	0.07242
3159.13400	0.07190
3157.20535	0.07159
3155.27670	0.07138
3153.34804	0.07087
3151.41939	0.07003
3149.49074	0.06929
3147.56209	0.06888
3145.63343	0.06865
3143.70478	0.06837
3141.77613	0.06808
3139.84747	0.06779
3137.91882	0.06749
3135.99017	0.06722
3134.06151	0.06694
3132.13286	0.06663
3130.20421	0.06629
3128.27555	0.06576
3126.34690	0.06518
3124.41825	0.06496
3122.48959	0.06498
3120.56094	0.06481
3118.63229	0.06457
3116.70363	0.06445
3114.77498	0.06426
3112.84633	0.06409
3110.91767	0.06407
3108.98902	0.06397
3107.06037	0.06374
3105.13171	0.06365
3103.20306	0.06371
3101.27441	0.06395
3099.34575	0.06443
3097.41710	0.06488
3095.48845	0.06502
3093.55979	0.06502
3091.63114	0.06509
3089.70249	0.06515
3087.77383	0.06518
3085.84518	0.06543
3083.91653	0.06581
3081.98787	0.06597
3080.05922	0.06591
3078.13057	0.06582
3076.20192	0.06573
3074.27326	0.06571
3072.34461	0.06584
3070.41596	0.06593
3068.48730	0.06574
3066.55865	0.06537
3064.63000	0.06502
3062.70134	0.06495
3060.77269	0.06507
3058.84404	0.06498
3056.91538	0.06468
3054.98673	0.06430
3053.05808	0.06375
3051.12942	0.06310
3049.20077	0.06250
3047.27212	0.06197
3045.34346	0.06169
3043.41481	0.06170
3041.48616	0.06150
3039.55750	0.06086
3037.62885	0.06016
3035.70020	0.05967
3033.77154	0.05934
3031.84289	0.05923
3029.91424	0.05920
3027.98558	0.05883
3026.05693	0.05813
3024.12828	0.05747
3022.19962	0.05704
3020.27097	0.05673
3018.34232	0.05639
3016.41366	0.05610
3014.48501	0.05594
3012.55636	0.05577
3010.62771	0.05544
3008.69905	0.05511
3006.77040	0.05514
3004.84175	0.05539
3002.91309	0.05547
3000.98444	0.05535
2999.05579	0.05532
2997.12713	0.05551
2995.19848	0.05570
2993.26983	0.05578
2991.34117	0.05593
2989.41252	0.05624
2987.48387	0.05651
2985.55521	0.05674
2983.62656	0.05699
2981.69791	0.05720
2979.76925	0.05745
2977.84060	0.05769
2975.91195	0.05773
2973.98329	0.05774
2972.05464	0.05783
2970.12599	0.05793
2968.19733	0.05824
2966.26868	0.05877
2964.34003	0.05914
2962.41137	0.05928
2960.48272	0.05941
2958.55407	0.05957
2956.62541	0.05982
2954.69676	0.06008
2952.76811	0.06017
2950.83945	0.06014
2948.91080	0.06001
2946.98215	0.05972
2945.05349	0.05936
2943.12484	0.05915
2941.19619	0.05936
2939.26754	0.05992
2937.33888	0.06038
2935.41023	0.06028
2933.48158	0.05990
2931.55292	0.05979
2929.62427	0.05979
2927.69562	0.05963
2925.76696	0.05933
2923.83831	0.05897
2921.90966	0.05870
2919.98100	0.05848
2918.05235	0.05821
2916.12370	0.05792
2914.19504	0.05761
2912.26639	0.05720
2910.33774	0.05659
2908.40908	0.05590
2906.48043	0.05544
2904.55178	0.05512
2902.62312	0.05481
2900.69447	0.05457
2898.76582	0.05429
2896.83716	0.05393
2894.90851	0.05364
2892.97986	0.05349
2891.05120	0.05345
2889.12255	0.05340
2887.19390	0.05333
2885.26524	0.05332
2883.33659	0.05337
2881.40794	0.05342
2879.47928	0.05339
2877.55063	0.05324
2875.62198	0.05310
2873.69333	0.05302
2871.76467	0.05290
2869.83602	0.05257
2867.90737	0.05205
2865.97871	0.05166
2864.05006	0.05143
2862.12141	0.05112
2860.19275	0.05079
2858.26410	0.05052
2856.33545	0.05014
2854.40679	0.04960
2852.47814	0.04917
2850.54949	0.04904
2848.62083	0.04897
2846.69218	0.04865
2844.76353	0.04817
2842.83487	0.04784
2840.90622	0.04770
2838.97757	0.04761
2837.04891	0.04745
2835.12026	0.04714
2833.19161	0.04679
2831.26295	0.04658
2829.33430	0.04645
2827.40565	0.04634
2825.47699	0.04629
2823.54834	0.04612
2821.61969	0.04574
2819.69103	0.04548
2817.76238	0.04545
2815.83373	0.04541
2813.90507	0.04529
2811.97642	0.04516
2810.04777	0.04501
2808.11912	0.04494
2806.19046	0.04492
2804.26181	0.04471
2802.33316	0.04436
2800.40450	0.04414
2798.47585	0.04403
2796.54720	0.04386
2794.61854	0.04378
2792.68989	0.04380
2790.76124	0.04375
2788.83258	0.04370
2786.90393	0.04362
2784.97528	0.04349
2783.04662	0.04344
2781.11797	0.04339
2779.18932	0.04315
2777.26066	0.04285
2775.33201	0.04265
2773.40336	0.04252
2771.47470	0.04238
2769.54605	0.04222
2767.61740	0.04203
2765.68874	0.04176
2763.76009	0.04147
2761.83144	0.04141
2759.90278	0.04166
2757.97413	0.04188
2756.04548	0.04188
2754.11682	0.04173
2752.18817	0.04146
2750.25952	0.04121
2748.33086	0.04105
2746.40221	0.04082
2744.47356	0.04056
2742.54490	0.04043
2740.61625	0.04033
2738.68760	0.04018
2736.75895	0.04018
2734.83029	0.04032
2732.90164	0.04037
2730.97299	0.04024
2729.04433	0.03992
2727.11568	0.03958
2725.18703	0.03939
2723.25837	0.03935
2721.32972	0.03936
2719.40107	0.03927
2717.47241	0.03906
2715.54376	0.03882
2713.61511	0.03876
2711.68645	0.03893
2709.75780	0.03907
2707.82915	0.03895
2705.90049	0.03873
2703.97184	0.03870
2702.04319	0.03871
2700.11453	0.03841
2698.18588	0.03797
2696.25723	0.03781
2694.32857	0.03791
2692.39992	0.03792
2690.47127	0.03782
2688.54261	0.03779
2686.61396	0.03767
2684.68531	0.03742
2682.75665	0.03726
2680.82800	0.03724
2678.89935	0.03723
2676.97069	0.03713
2675.04204	0.03696
2673.11339	0.03681
2671.18474	0.03681
2669.25608	0.03692
2667.32743	0.03692
2665.39878	0.03677
2663.47012	0.03657
2661.54147	0.03635
2659.61282	0.03622
2657.68416	0.03619
2655.75551	0.03616
2653.82686	0.03617
2651.89820	0.03616
2649.96955	0.03591
2648.04090	0.03552
2646.11224	0.03527
2644.18359	0.03509
2642.25494	0.03485
2640.32628	0.03470
2638.39763	0.03465
2636.46898	0.03445
2634.54032	0.03409
2632.61167	0.03376
2630.68302	0.03352
2628.75436	0.03330
2626.82571	0.03314
2624.89706	0.03320
2622.96840	0.03338
2621.03975	0.03330
2619.11110	0.03291
2617.18244	0.03258
2615.25379	0.03252
2613.32514	0.03248
2611.39648	0.03228
2609.46783	0.03212
2607.53918	0.03204
2605.61052	0.03184
2603.68187	0.03168
2601.75322	0.03163
2599.82457	0.03143
2597.89591	0.03117
2595.96726	0.03116
2594.03861	0.03140
2592.10995	0.03147
2590.18130	0.03102
2588.25265	0.03045
2586.32399	0.03029
2584.39534	0.03043
2582.46669	0.03037
2580.53803	0.03000
2578.60938	0.02979
2576.68073	0.02992
2574.75207	0.03004
2572.82342	0.02985
2570.89477	0.02935
2568.96611	0.02900
2567.03746	0.02919
2565.10881	0.02957
2563.18015	0.02959
2561.25150	0.02923
2559.32285	0.02898
2557.39419	0.02908
2555.46554	0.02916
2553.53689	0.02893
2551.60823	0.02880
2549.67958	0.02897
2547.75093	0.02912
2545.82227	0.02899
2543.89362	0.02856
2541.96497	0.02807
2540.03631	0.02778
2538.10766	0.02762
2536.17901	0.02750
2534.25036	0.02758
2532.32170	0.02775
2530.39305	0.02769
2528.46440	0.02748
2526.53574	0.02720
2524.60709	0.02702
2522.67844	0.02732
2520.74978	0.02779
2518.82113	0.02786
2516.89248	0.02775
2514.96382	0.02762
2513.03517	0.02735
2511.10652	0.02722
2509.17786	0.02749
2507.24921	0.02769
2505.32056	0.02747
2503.39190	0.02706
2501.46325	0.02661
2499.53460	0.02630
2497.60594	0.02636
2495.67729	0.02663
2493.74864	0.02680
2491.81998	0.02682
2489.89133	0.02684
2487.96268	0.02683
2486.03402	0.02695
2484.10537	0.02706
2482.17672	0.02685
2480.24806	0.02658
2478.31941	0.02648
2476.39076	0.02628
2474.46210	0.02613
2472.53345	0.02629
2470.60480	0.02652
2468.67615	0.02670
2466.74749	0.02680
2464.81884	0.02665
2462.89019	0.02633
2460.96153	0.02600
2459.03288	0.02563
2457.10423	0.02538
2455.17557	0.02539
2453.24692	0.02557
2451.31827	0.02584
2449.38961	0.02606
2447.46096	0.02603
2445.53231	0.02581
2443.60365	0.02546
2441.67500	0.02514
2439.74635	0.02505
2437.81769	0.02521
2435.88904	0.02545
2433.96039	0.02553
2432.03173	0.02542
2430.10308	0.02528
2428.17443	0.02517
2426.24577	0.02509
2424.31712	0.02502
2422.38847	0.02501
2420.45981	0.02520
2418.53116	0.02536
2416.60251	0.02506
2414.67385	0.02459
2412.74520	0.02442
2410.81655	0.02437
2408.88789	0.02429
2406.95924	0.02449
2405.03059	0.02494
2403.10193	0.02529
2401.17328	0.02551
2399.24463	0.02555
2397.31598	0.02528
2395.38732	0.02503
2393.45867	0.02517
2391.53002	0.02540
2389.60136	0.02545
2387.67271	0.02541
2385.74406	0.02529
2383.81540	0.02500
2381.88675	0.02469
2379.95810	0.02462
2378.02944	0.02485
2376.10079	0.02498
2374.17214	0.02473
2372.24348	0.02450
2370.31483	0.02541
2368.38618	0.02397
2366.45752	0.02441
2364.52887	0.02430
2362.60022	0.02558
2360.67156	0.02350
2358.74291	0.02728
2356.81426	0.02444
2354.88560	0.02581
2352.95695	0.02707
2351.02830	0.02542
2349.09964	0.02510
2347.17099	0.02479
2345.24234	0.02350
2343.31368	0.02385
2341.38503	0.02721
2339.45638	0.02870
2337.52772	0.02774
2335.59907	0.02510
2333.67042	0.02281
2331.74177	0.02192
2329.81311	0.02177
2327.88446	0.02166
2325.95581	0.02215
2324.02715	0.02258
2322.09850	0.02298
2320.16985	0.02300
2318.24119	0.02322
2316.31254	0.02348
2314.38389	0.02362
2312.45523	0.02360
2310.52658	0.02360
2308.59793	0.02360
2306.66927	0.02353
2304.74062	0.02328
2302.81197	0.02296
2300.88331	0.02288
2298.95466	0.02275
2297.02601	0.02244
2295.09735	0.02221
2293.16870	0.02239
2291.24005	0.02255
2289.31139	0.02268
2287.38274	0.02269
2285.45409	0.02218
2283.52543	0.02138
2281.59678	0.02093
2279.66813	0.02095
2277.73947	0.02096
2275.81082	0.02066
2273.88217	0.02035
2271.95351	0.02033
2270.02486	0.02037
2268.09621	0.02016
2266.16755	0.01983
2264.23890	0.01951
2262.31025	0.01930
2260.38160	0.01934
2258.45294	0.01945
2256.52429	0.01956
2254.59564	0.01977
2252.66698	0.01964
2250.73833	0.01880
2248.80968	0.01796
2246.88102	0.01773
2244.95237	0.01792
2243.02372	0.01787
2241.09506	0.01762
2239.16641	0.01741
2237.23776	0.01727
2235.30910	0.01717
2233.38045	0.01722
2231.45180	0.01752
2229.52314	0.01787
2227.59449	0.01787
2225.66584	0.01703
2223.73718	0.01584
2221.80853	0.01557
2219.87988	0.01593
2217.95122	0.01591
2216.02257	0.01586
2214.09392	0.01615
2212.16526	0.01602
2210.23661	0.01514
2208.30796	0.01465
2206.37930	0.01453
2204.45065	0.01374
2202.52200	0.01329
2200.59334	0.01420
2198.66469	0.01534
2196.73604	0.01597
2194.80739	0.01635
2192.87873	0.01603
2190.95008	0.01462
2189.02143	0.01311
2187.09277	0.01247
2185.16412	0.01268
2183.23547	0.01313
2181.30681	0.01312
2179.37816	0.01241
2177.44951	0.01145
2175.52085	0.01126
2173.59220	0.01180
2171.66355	0.01194
2169.73489	0.01179
2167.80624	0.01188
2165.87759	0.01175
2163.94893	0.01136
2162.02028	0.01112
2160.09163	0.01123
2158.16297	0.01159
2156.23432	0.01186
2154.30567	0.01256
2152.37701	0.01390
2150.44836	0.01461
2148.51971	0.01414
2146.59105	0.01352
2144.66240	0.01358
2142.73375	0.01398
2140.80509	0.01407
2138.87644	0.01416
2136.94779	0.01460
2135.01913	0.01497
2133.09048	0.01494
2131.16183	0.01484
2129.23318	0.01511
2127.30452	0.01563
2125.37587	0.01607
2123.44722	0.01625
2121.51856	0.01623
2119.58991	0.01638
2117.66126	0.01676
2115.73260	0.01691
2113.80395	0.01661
2111.87530	0.01636
2109.94664	0.01642
2108.01799	0.01634
2106.08934	0.01613
2104.16068	0.01617
2102.23203	0.01629
2100.30338	0.01629
2098.37472	0.01601
2096.44607	0.01559
2094.51742	0.01523
2092.58876	0.01522
2090.66011	0.01556
2088.73146	0.01601
2086.80280	0.01615
2084.87415	0.01566
2082.94550	0.01500
2081.01684	0.01496
2079.08819	0.01510
2077.15954	0.01476
2075.23088	0.01430
2073.30223	0.01410
2071.37358	0.01373
2069.44492	0.01310
2067.51627	0.01268
2065.58762	0.01270
2063.65896	0.01265
2061.73031	0.01236
2059.80166	0.01238
2057.87301	0.01277
2055.94435	0.01294
2054.01570	0.01282
2052.08705	0.01268
2050.15839	0.01219
2048.22974	0.01125
2046.30109	0.01060
2044.37243	0.01064
2042.44378	0.01073
2040.51513	0.01009
2038.58647	0.00910
2036.65782	0.00892
2034.72917	0.00954
2032.80051	0.00942
2030.87186	0.00808
2028.94321	0.00745
2027.01455	0.00848
2025.08590	0.00950
2023.15725	0.01002
2021.22859	0.01097
2019.29994	0.01192
2017.37129	0.01200
2015.44263	0.01107
2013.51398	0.00973
2011.58533	0.00866
2009.65667	0.00810
2007.72802	0.00818
2005.79937	0.00886
2003.87071	0.00993
2001.94206	0.01106
2000.01341	0.01173
1998.08475	0.01201
1996.15610	0.01214
1994.22745	0.01201
1992.29880	0.01174
1990.37014	0.01155
1988.44149	0.01161
1986.51284	0.01206
1984.58418	0.01225
1982.65553	0.01118
1980.72688	0.00931
1978.79822	0.00809
1976.86957	0.00823
1974.94092	0.00937
1973.01226	0.01048
1971.08361	0.01077
1969.15496	0.01041
1967.22630	0.01029
1965.29765	0.01089
1963.36900	0.01154
1961.44034	0.01148
1959.51169	0.01116
1957.58304	0.01116
1955.65438	0.01139
1953.72573	0.01198
1951.79708	0.01288
1949.86842	0.01339
1947.93977	0.01303
1946.01112	0.01218
1944.08246	0.01172
1942.15381	0.01174
1940.22516	0.01180
1938.29650	0.01214
1936.36785	0.01298
1934.43920	0.01361
1932.51054	0.01362
1930.58189	0.01344
1928.65324	0.01331
1926.72458	0.01315
1924.79593	0.01307
1922.86728	0.01315
1920.93863	0.01331
1919.00997	0.01348
1917.08132	0.01368
1915.15267	0.01395
1913.22401	0.01407
1911.29536	0.01400
1909.36671	0.01392
1907.43805	0.01380
1905.50940	0.01353
1903.58075	0.01318
1901.65209	0.01295
1899.72344	0.01297
1897.79479	0.01309
1895.86613	0.01326
1893.93748	0.01345
1892.00883	0.01342
1890.08017	0.01315
1888.15152	0.01285
1886.22287	0.01277
1884.29421	0.01298
1882.36556	0.01326
1880.43691	0.01345
1878.50825	0.01356
1876.57960	0.01357
1874.65095	0.01353
1872.72229	0.01354
1870.79364	0.01354
1868.86499	0.01344
1866.93633	0.01324
1865.00768	0.01308
1863.07903	0.01316
1861.15037	0.01342
1859.22172	0.01336
1857.29307	0.01299
1855.36442	0.01284
1853.43576	0.01289
1851.50711	0.01281
1849.57846	0.01267
1847.64980	0.01262
1845.72115	0.01274
1843.79250	0.01290
1841.86384	0.01296
1839.93519	0.01302
1838.00654	0.01307
1836.07788	0.01313
1834.14923	0.01309
1832.22058	0.01289
1830.29192	0.01268
1828.36327	0.01251
1826.43462	0.01242
1824.50596	0.01235
1822.57731	0.01231
1820.64866	0.01236
1818.72000	0.01242
1816.79135	0.01258
1814.86270	0.01288
1812.93404	0.01308
1811.00539	0.01303
1809.07674	0.01288
1807.14808	0.01283
1805.21943	0.01283
1803.29078	0.01283
1801.36212	0.01278
1799.43347	0.01265
1797.50482	0.01252
1795.57616	0.01245
1793.64751	0.01243
1791.71886	0.01244
1789.79021	0.01249
1787.86155	0.01252
1785.93290	0.01240
1784.00425	0.01227
1782.07559	0.01235
1780.14694	0.01246
1778.21829	0.01240
1776.28963	0.01221
1774.36098	0.01205
1772.43233	0.01201
1770.50367	0.01210
1768.57502	0.01245
1766.64637	0.01265
1764.71771	0.01253
1762.78906	0.01237
1760.86041	0.01225
1758.93175	0.01226
1757.00310	0.01240
1755.07445	0.01243
1753.14579	0.01253
1751.21714	0.01275
1749.28849	0.01287
1747.35983	0.01296
1745.43118	0.01308
1743.50253	0.01335
1741.57387	0.01373
1739.64522	0.01400
1737.71657	0.01409
1735.78791	0.01443
1733.85926	0.01488
1731.93061	0.01507
1730.00195	0.01532
1728.07330	0.01573
1726.14465	0.01623
1724.21599	0.01670
1722.28734	0.01685
1720.35869	0.01688
1718.43004	0.01724
1716.50138	0.01771
1714.57273	0.01821
1712.64408	0.01893
1710.71542	0.01991
1708.78677	0.02106
1706.85812	0.02241
1704.92946	0.02401
1703.00081	0.02595
1701.07216	0.02833
1699.14350	0.03061
1697.21485	0.03304
1695.28620	0.03580
1693.35754	0.03843
1691.42889	0.04121
1689.50024	0.04391
1687.57158	0.04650
1685.64293	0.04949
1683.71428	0.05270
1681.78562	0.05590
1679.85697	0.05942
1677.92832	0.06311
1675.99966	0.06706
1674.07101	0.07117
1672.14236	0.07542
1670.21370	0.07985
1668.28505	0.08416
1666.35640	0.08835
1664.42774	0.09252
1662.49909	0.09645
1660.57044	0.09994
1658.64178	0.10296
1656.71313	0.10548
1654.78448	0.10790
1652.85583	0.11018
1650.92717	0.11178
1648.99852	0.11326
1647.06987	0.11481
1645.14121	0.11610
1643.21256	0.11720
1641.28391	0.11823
1639.35525	0.11908
1637.42660	0.11985
1635.49795	0.12048
1633.56929	0.12062
1631.64064	0.12039
1629.71199	0.11963
1627.78333	0.11800
1625.85468	0.11551
1623.92603	0.11243
1621.99737	0.10877
1620.06872	0.10471
1618.14007	0.10066
1616.21141	0.09645
1614.28276	0.09205
1612.35411	0.08795
1610.42545	0.08413
1608.49680	0.08054
1606.56815	0.07713
1604.63949	0.07389
1602.71084	0.07094
1600.78219	0.06833
1598.85353	0.06599
1596.92488	0.06393
1594.99623	0.06221
1593.06757	0.06083
1591.13892	0.05975
1589.21027	0.05895
1587.28161	0.05840
1585.35296	0.05809
1583.42431	0.05809
1581.49566	0.05845
1579.56700	0.05910
1577.63835	0.06017
1575.70970	0.06158
1573.78104	0.06311
1571.85239	0.06502
1569.92374	0.06721
1567.99508	0.06952
1566.06643	0.07203
1564.13778	0.07454
1562.20912	0.07699
1560.28047	0.07974
1558.35182	0.08238
1556.42316	0.08460
1554.49451	0.08670
1552.56586	0.08852
1550.63720	0.09006
1548.70855	0.09130
1546.77990	0.09214
1544.85124	0.09260
1542.92259	0.09277
1540.99394	0.09294
1539.06528	0.09297
1537.13663	0.09264
1535.20798	0.09224
1533.27932	0.09172
1531.35067	0.09096
1529.42202	0.09014
1527.49336	0.08922
1525.56471	0.08813
1523.63606	0.08694
1521.70740	0.08574
1519.77875	0.08437
1517.85010	0.08297
1515.92145	0.08144
1513.99279	0.07955
1512.06414	0.07735
1510.13549	0.07491
1508.20683	0.07252
1506.27818	0.07012
1504.34953	0.06756
1502.42087	0.06514
1500.49222	0.06283
1498.56357	0.06053
1496.63491	0.05831
1494.70626	0.05608
1492.77761	0.05394
1490.84895	0.05204
1488.92030	0.05037
1486.99165	0.04902
1485.06299	0.04803
1483.13434	0.04740
1481.20569	0.04711
1479.27703	0.04707
1477.34838	0.04731
1475.41973	0.04792
1473.49107	0.04891
1471.56242	0.05008
1469.63377	0.05127
1467.70511	0.05254
1465.77646	0.05394
1463.84781	0.05537
1461.91915	0.05680
1459.99050	0.05831
1458.06185	0.05996
1456.13319	0.06138
1454.20454	0.06232
1452.27589	0.06297
1450.34724	0.06318
1448.41858	0.06298
1446.48993	0.06248
1444.56128	0.06180
1442.63262	0.06104
1440.70397	0.06014
1438.77532	0.05911
1436.84666	0.05799
1434.91801	0.05672
1432.98936	0.05551
1431.06070	0.05443
1429.13205	0.05345
1427.20340	0.05270
1425.27474	0.05225
1423.34609	0.05200
1421.41744	0.05194
1419.48878	0.05199
1417.56013	0.05192
1415.63148	0.05195
1413.70282	0.05215
1411.77417	0.05245
1409.84552	0.05284
1407.91686	0.05327
1405.98821	0.05365
1404.05956	0.05392
1402.13090	0.05403
1400.20225	0.05398
1398.27360	0.05381
1396.34494	0.05363
1394.41629	0.05344
1392.48764	0.05317
1390.55898	0.05290
1388.63033	0.05267
1386.70168	0.05244
1384.77302	0.05221
1382.84437	0.05202
1380.91572	0.05174
1378.98707	0.05130
1377.05841	0.05075
1375.12976	0.05014
1373.20111	0.04948
1371.27245	0.04876
1369.34380	0.04798
1367.41515	0.04714
1365.48649	0.04631
1363.55784	0.04554
1361.62919	0.04484
1359.70053	0.04433
1357.77188	0.04412
1355.84323	0.04417
1353.91457	0.04444
1351.98592	0.04490
1350.05727	0.04548
1348.12861	0.04614
1346.19996	0.04691
1344.27131	0.04771
1342.34265	0.04847
1340.41400	0.04913
1338.48535	0.04962
1336.55669	0.04983
1334.62804	0.04967
1332.69939	0.04918
1330.77073	0.04851
1328.84208	0.04782
1326.91343	0.04714
1324.98477	0.04652
1323.05612	0.04602
1321.12747	0.04568
1319.19881	0.04541
1317.27016	0.04517
1315.34151	0.04493
1313.41286	0.04466
1311.48420	0.04430
1309.55555	0.04393
1307.62690	0.04360
1305.69824	0.04332
1303.76959	0.04310
1301.84094	0.04294
1299.91228	0.04281
1297.98363	0.04269
1296.05498	0.04268
1294.12632	0.04287
1292.19767	0.04324
1290.26902	0.04378
1288.34036	0.04443
1286.41171	0.04508
1284.48306	0.04559
1282.55440	0.04599
1280.62575	0.04631
1278.69710	0.04648
1276.76844	0.04644
1274.83979	0.04637
1272.91114	0.04646
1270.98248	0.04670
1269.05383	0.04700
1267.12518	0.04737
1265.19652	0.04778
1263.26787	0.04820
1261.33922	0.04864
1259.41056	0.04918
1257.48191	0.04982
1255.55326	0.05056
1253.62460	0.05140
1251.69595	0.05233
1249.76730	0.05331
1247.83864	0.05432
1245.90999	0.05534
1243.98134	0.05632
1242.05269	0.05721
1240.12403	0.05797
1238.19538	0.05854
1236.26673	0.05883
1234.33807	0.05881
1232.40942	0.05852
1230.48077	0.05793
1228.55211	0.05703
1226.62346	0.05589
1224.69481	0.05460
1222.76615	0.05322
1220.83750	0.05187
1218.90885	0.05069
1216.98019	0.04977
1215.05154	0.04908
1213.12289	0.04862
1211.19423	0.04847
1209.26558	0.04863
1207.33693	0.04896
1205.40827	0.04930
1203.47962	0.04945
1201.55097	0.04928
1199.62231	0.04885
1197.69366	0.04806
1195.76501	0.04712
1193.83635	0.04615
1191.90770	0.04515
1189.97905	0.04413
1188.05039	0.04323
1186.12174	0.04251
1184.19309	0.04195
1182.26443	0.04155
1180.33578	0.04129
1178.40713	0.04102
1176.47848	0.04071
1174.54982	0.04041
1172.62117	0.04026
1170.69252	0.04024
1168.76386	0.04027
1166.83521	0.04024
1164.90656	0.04019
1162.97790	0.04018
1161.04925	0.04014
1159.12060	0.03984
1157.19194	0.03923
1155.26329	0.03852
1153.33464	0.03792
1151.40598	0.03739
1149.47733	0.03676
1147.54868	0.03592
1145.62002	0.03510
1143.69137	0.03460
1141.76272	0.03427
1139.83406	0.03386
1137.90541	0.03346
1135.97676	0.03328
1134.04810	0.03326
1132.11945	0.03314
1130.19080	0.03290
1128.26214	0.03275
1126.33349	0.03275
1124.40484	0.03276
1122.47618	0.03266
1120.54753	0.03249
1118.61888	0.03240
1116.69022	0.03242
1114.76157	0.03253
1112.83292	0.03264
1110.90427	0.03276
1108.97561	0.03299
1107.04696	0.03331
1105.11831	0.03364
1103.18965	0.03394
1101.26100	0.03422
1099.33235	0.03445
1097.40369	0.03469
1095.47504	0.03506
1093.54639	0.03561
1091.61773	0.03634
1089.68908	0.03716
1087.76043	0.03800
1085.83177	0.03895
1083.90312	0.03992
1081.97447	0.04063
1080.04581	0.04089
1078.11716	0.04084
1076.18851	0.04066
1074.25985	0.04039
1072.33120	0.04000
1070.40255	0.03964
1068.47389	0.03948
1066.54524	0.03951
1064.61659	0.03955
1062.68793	0.03945
1060.75928	0.03939
1058.83063	0.03937
1056.90197	0.03921
1054.97332	0.03886
1053.04467	0.03838
1051.11601	0.03785
1049.18736	0.03749
1047.25871	0.03741
1045.33005	0.03740
1043.40140	0.03722
1041.47275	0.03695
1039.54410	0.03691
1037.61544	0.03722
1035.68679	0.03771
1033.75814	0.03806
1031.82948	0.03811
1029.90083	0.03788
1027.97218	0.03744
1026.04352	0.03686
1024.11487	0.03612
1022.18622	0.03529
1020.25756	0.03460
1018.32891	0.03412
1016.40026	0.03372
1014.47160	0.03328
1012.54295	0.03280
1010.61430	0.03236
1008.68564	0.03196
1006.75699	0.03156
1004.82834	0.03115
1002.89968	0.03077
1000.97103	0.03036
999.04238	0.02989
997.11372	0.02947
995.18507	0.02913
993.25642	0.02878
991.32776	0.02843
989.39911	0.02812
987.47046	0.02788
985.54180	0.02767
983.61315	0.02751
981.68450	0.02741
979.75584	0.02737
977.82719	0.02734
975.89854	0.02732
973.96989	0.02733
972.04123	0.02731
970.11258	0.02715
968.18393	0.02687
966.25527	0.02658
964.32662	0.02632
962.39797	0.02616
960.46931	0.02600
958.54066	0.02579
956.61201	0.02555
954.68335	0.02531
952.75470	0.02508
950.82605	0.02488
948.89739	0.02479
946.96874	0.02488
945.04009	0.02503
943.11143	0.02516
941.18278	0.02537
939.25413	0.02559
937.32547	0.02563
935.39682	0.02552
933.46817	0.02539
931.53951	0.02526
929.61086	0.02513
927.68221	0.02499
925.75355	0.02496
923.82490	0.02504
921.89625	0.02504
919.96759	0.02496
918.03894	0.02487
916.11029	0.02473
914.18163	0.02456
912.25298	0.02449
910.32433	0.02443
908.39567	0.02424
906.46702	0.02398
904.53837	0.02376
902.60972	0.02361
900.68106	0.02357
898.75241	0.02359
896.82376	0.02342
894.89510	0.02306
892.96645	0.02280
891.03780	0.02273
889.10914	0.02270
887.18049	0.02267
885.25184	0.02268
883.32318	0.02273
881.39453	0.02280
879.46588	0.02297
877.53722	0.02321
875.60857	0.02348
873.67992	0.02360
871.75126	0.02344
869.82261	0.02318
867.89396	0.02299
865.96530	0.02293
864.03665	0.02294
862.10800	0.02291
860.17934	0.02279
858.25069	0.02266
856.32204	0.02272
854.39338	0.02292
852.46473	0.02301
850.53608	0.02299
848.60742	0.02297
846.67877	0.02297
844.75012	0.02299
842.82146	0.02298
840.89281	0.02286
838.96416	0.02270
837.03551	0.02260
835.10685	0.02258
833.17820	0.02259
831.24955	0.02266
829.32089	0.02284
827.39224	0.02318
825.46359	0.02354
823.53493	0.02367
821.60628	0.02359
819.67763	0.02370
817.74897	0.02412
815.82032	0.02450
813.89167	0.02465
811.96301	0.02467
810.03436	0.02459
808.10571	0.02453
806.17705	0.02463
804.24840	0.02485
802.31975	0.02508
800.39109	0.02531
798.46244	0.02555
796.53379	0.02577
794.60513	0.02590
792.67648	0.02596
790.74783	0.02608
788.81917	0.02629
786.89052	0.02654
784.96187	0.02688
783.03321	0.02727
781.10456	0.02752
779.17591	0.02756
777.24725	0.02756
775.31860	0.02764
773.38995	0.02775
771.46130	0.02784
769.53264	0.02797
767.60399	0.02820
765.67534	0.02851
763.74668	0.02874
761.81803	0.02889
759.88938	0.02913
757.96072	0.02939
756.03207	0.02957
754.10342	0.02969
752.17476	0.02986
750.24611	0.03014
748.31746	0.03053
746.38880	0.03078
744.46015	0.03084
742.53150	0.03097
740.60284	0.03118
738.67419	0.03138
736.74554	0.03165
734.81688	0.03199
732.88823	0.03222
730.95958	0.03239
729.03092	0.03258
727.10227	0.03279
725.17362	0.03315
723.24496	0.03361
721.31631	0.03402
719.38766	0.03429
717.45900	0.03449
715.53035	0.03467
713.60170	0.03490
711.67304	0.03520
709.74439	0.03546
707.81574	0.03567
705.88708	0.03585
703.95843	0.03608
702.02978	0.03636
700.10113	0.03664
698.17247	0.03687
696.24382	0.03702
694.31517	0.03708
692.38651	0.03713
690.45786	0.03720
688.52921	0.03724
686.60055	0.03726
684.67190	0.03738
682.74325	0.03770
680.81459	0.03807
678.88594	0.03831
676.95729	0.03849
675.02863	0.03869
673.09998	0.03890
671.17133	0.03895
669.24267	0.03886
667.31402	0.03919
665.38537	0.03942
663.45671	0.03959
661.52806	0.03971
659.59941	0.03977
657.67075	0.03979
655.74210	0.03988
653.81345	0.04007
651.88479	0.04029
649.95614	0.04038
648.02749	0.04036
646.09883	0.04039
644.17018	0.04047
642.24153	0.04059
640.31287	0.04072
638.38422	0.04082
636.45557	0.04085
634.52692	0.04085
632.59826	0.04080
630.66961	0.04113
628.74096	0.04244
626.81230	0.04106
624.88365	0.03890
622.95500	0.03701
621.02634	0.03558
619.09769	0.03537
617.16904	0.03652
615.24038	0.03743
613.31173	0.03731
611.38308	0.03684
609.45442	0.03659
607.52577	0.03704
605.59712	0.03853
603.66846	0.03970
601.73981	0.03985
599.81116	0.04011
597.88250	0.04064
595.95385	0.04073
594.02520	0.04064
592.09654	0.04094
590.16789	0.04148
588.23924	0.04177
586.31058	0.04168
584.38193	0.04147
582.45328	0.04138
580.52462	0.04132
578.59597	0.04132
576.66732	0.04151
574.73866	0.04182
572.81001	0.04206
570.88136	0.04222
568.95270	0.04237
567.02405	0.04246
565.09540	0.04237
563.16675	0.04221
561.23809	0.04225
559.30944	0.04246
557.38079	0.04258
555.45213	0.04258
553.52348	0.04255
551.59483	0.04261
549.66617	0.04270
547.73752	0.04246
545.80887	0.04191
543.88021	0.04154
541.95156	0.04151
540.02291	0.04150
538.09425	0.04144
536.16560	0.04151
534.23695	0.04159
532.30829	0.04162
530.37964	0.04181
528.45099	0.04202
526.52233	0.04193
524.59368	0.04164
522.66503	0.04142
520.73637	0.04120
518.80772	0.04079
516.87907	0.04027
514.95041	0.03984
513.02176	0.03950
511.09311	0.03926
509.16445	0.03916
507.23580	0.03902
505.30715	0.03866
503.37849	0.03827
501.44984	0.03804
499.52119	0.03789
497.59254	0.03769
495.66388	0.03747
493.73523	0.03735
491.80658	0.03720
489.87792	0.03692
487.94927	0.03668
486.02062	0.03655
484.09196	0.03632
482.16331	0.03606
480.23466	0.03600
478.30600	0.03604
476.37735	0.03594
474.44870	0.03568
472.52004	0.03536
470.59139	0.03507
468.66274	0.03480
466.73408	0.03452
464.80543	0.03417
462.87678	0.03377
460.94812	0.03350
459.01947	0.03328
457.09082	0.03287
455.16216	0.03238
453.23351	0.03211
451.30486	0.03204
449.37620	0.03193
447.44755	0.03168
445.51890	0.03145
443.59024	0.03130
441.66159	0.03111
439.73294	0.03092
437.80428	0.03079
435.87563	0.03060
433.94698	0.03030
432.01833	0.03002
430.08967	0.02987
428.16102	0.02979
426.23237	0.02959
424.30371	0.02929
422.37506	0.02906
420.44641	0.02891
418.51775	0.02875
416.58910	0.02860
414.66045	0.02849
412.73179	0.02834
410.80314	0.02819
408.87449	0.02808
406.94583	0.02796
405.01718	0.02772
403.08853	0.02741
401.15987	0.02709
399.23122	0.02683
