3996.16951	0.06318
3994.24086	0.06301
3992.31221	0.06254
3990.38355	0.06205
3988.45490	0.06160
3986.52625	0.06121
3984.59759	0.06131
3982.66894	0.06202
3980.74029	0.06272
3978.81163	0.06278
3976.88298	0.06239
3974.95433	0.06200
3973.02567	0.06164
3971.09702	0.06107
3969.16837	0.06053
3967.23972	0.06064
3965.31106	0.06122
3963.38241	0.06149
3961.45376	0.06149
3959.52510	0.06170
3957.59645	0.06199
3955.66780	0.06202
3953.73914	0.06177
3951.81049	0.06161
3949.88184	0.06176
3947.95318	0.06183
3946.02453	0.06144
3944.09588	0.06061
3942.16722	0.05981
3940.23857	0.05955
3938.30992	0.05966
3936.38126	0.05993
3934.45261	0.06039
3932.52396	0.06077
3930.59530	0.06067
3928.66665	0.06026
3926.73800	0.05998
3924.80934	0.05994
3922.88069	0.05984
3920.95204	0.05943
3919.02338	0.05912
3917.09473	0.05946
3915.16608	0.05983
3913.23742	0.05961
3911.30877	0.05944
3909.38012	0.05985
3907.45146	0.06020
3905.52281	0.05991
3903.59416	0.05934
3901.66550	0.05898
3899.73685	0.05871
3897.80820	0.05839
3895.87955	0.05821
3893.95089	0.05827
3892.02224	0.05852
3890.09359	0.05875
3888.16493	0.05889
3886.23628	0.05896
3884.30763	0.05876
3882.37897	0.05825
3880.45032	0.05776
3878.52167	0.05759
3876.59301	0.05776
3874.66436	0.05793
3872.73571	0.05798
3870.80705	0.05794
3868.87840	0.05779
3866.94975	0.05767
3865.02109	0.05778
3863.09244	0.05797
3861.16379	0.05779
3859.23513	0.05752
3857.30648	0.05782
3855.37783	0.05811
3853.44917	0.05739
3851.52052	0.05645
3849.59187	0.05643
3847.66321	0.05658
3845.73456	0.05601
3843.80591	0.05521
3841.87725	0.05485
3839.94860	0.05497
3838.01995	0.05510
3836.09129	0.05491
3834.16264	0.05478
3832.23399	0.05500
3830.30534	0.05523
3828.37668	0.05533
3826.44803	0.05547
3824.51938	0.05570
3822.59072	0.05594
3820.66207	0.05623
3818.73342	0.05655
3816.80476	0.05650
3814.87611	0.05581
3812.94746	0.05504
3811.01880	0.05478
3809.09015	0.05471
3807.16150	0.05444
3805.23284	0.05409
3803.30419	0.05358
3801.37554	0.05306
3799.44688	0.05322
3797.51823	0.05367
3795.58958	0.05350
3793.66092	0.05323
3791.73227	0.05379
3789.80362	0.05454
3787.87496	0.05458
3785.94631	0.05409
3784.01766	0.05347
3782.08900	0.05314
3780.16035	0.05330
3778.23170	0.05341
3776.30304	0.05312
3774.37439	0.05307
3772.44574	0.05346
3770.51708	0.05361
3768.58843	0.05337
3766.65978	0.05313
3764.73112	0.05269
3762.80247	0.05200
3760.87382	0.05167
3758.94517	0.05214
3757.01651	0.05297
3755.08786	0.05347
3753.15921	0.05342
3751.23055	0.05292
3749.30190	0.05236
3747.37325	0.05205
3745.44459	0.05147
3743.51594	0.05056
3741.58729	0.05032
3739.65863	0.05081
3737.72998	0.05109
3735.80133	0.05110
3733.87267	0.05116
3731.94402	0.05090
3730.01537	0.05029
3728.08671	0.05006
3726.15806	0.05036
3724.22941	0.05062
3722.30075	0.05039
3720.37210	0.04993
3718.44345	0.04982
3716.51479	0.04996
3714.58614	0.04951
3712.65749	0.04845
3710.72883	0.04791
3708.80018	0.04841
3706.87153	0.04889
3704.94287	0.04884
3703.01422	0.04872
3701.08557	0.04863
3699.15691	0.04852
3697.22826	0.04864
3695.29961	0.04899
3693.37095	0.04936
3691.44230	0.04943
3689.51365	0.04902
3687.58500	0.04843
3685.65634	0.04809
3683.72769	0.04815
3681.79904	0.04850
3679.87038	0.04895
3677.94173	0.04925
3676.01308	0.04904
3674.08442	0.04852
3672.15577	0.04826
3670.22712	0.04828
3668.29846	0.04829
3666.36981	0.04802
3664.44116	0.04771
3662.51250	0.04811
3660.58385	0.04907
3658.65520	0.04972
3656.72654	0.04989
3654.79789	0.04997
3652.86924	0.05026
3650.94058	0.05051
3649.01193	0.05048
3647.08328	0.05064
3645.15462	0.05143
3643.22597	0.05222
3641.29732	0.05235
3639.36866	0.05236
3637.44001	0.05279
3635.51136	0.05344
3633.58270	0.05380
3631.65405	0.05355
3629.72540	0.05291
3627.79674	0.05260
3625.86809	0.05297
3623.93944	0.05386
3622.01079	0.05504
3620.08213	0.05623
3618.15348	0.05707
3616.22483	0.05733
3614.29617	0.05726
3612.36752	0.05745
3610.43887	0.05804
3608.51021	0.05848
3606.58156	0.05840
3604.65291	0.05830
3602.72425	0.05890
3600.79560	0.06016
3598.86695	0.06139
3596.93829	0.06202
3595.00964	0.06224
3593.08099	0.06259
3591.15233	0.06302
3589.22368	0.06316
3587.29503	0.06316
3585.36637	0.06356
3583.43772	0.06449
3581.50907	0.06557
3579.58041	0.06660
3577.65176	0.06755
3575.72311	0.06805
3573.79445	0.06793
3571.86580	0.06790
3569.93715	0.06841
3568.00849	0.06897
3566.07984	0.06936
3564.15119	0.06984
3562.22253	0.07047
3560.29388	0.07123
3558.36523	0.07241
3556.43657	0.07380
3554.50792	0.07474
3552.57927	0.07499
3550.65062	0.07488
3548.72196	0.07505
3546.79331	0.07573
3544.86466	0.07662
3542.93600	0.07754
3541.00735	0.07827
3539.07870	0.07868
3537.15004	0.07906
3535.22139	0.07955
3533.29274	0.08007
3531.36408	0.08069
3529.43543	0.08144
3527.50678	0.08236
3525.57812	0.08344
3523.64947	0.08430
3521.72082	0.08461
3519.79216	0.08473
3517.86351	0.08529
3515.93486	0.08622
3514.00620	0.08696
3512.07755	0.08736
3510.14890	0.08773
3508.22024	0.08827
3506.29159	0.08897
3504.36294	0.08961
3502.43428	0.08997
3500.50563	0.09019
3498.57698	0.09061
3496.64832	0.09126
3494.71967	0.09210
3492.79102	0.09316
3490.86236	0.09399
3488.93371	0.09423
3487.00506	0.09419
3485.07641	0.09427
3483.14775	0.09455
3481.21910	0.09494
3479.29045	0.09532
3477.36179	0.09573
3475.43314	0.09623
3473.50449	0.09679
3471.57583	0.09724
3469.64718	0.09762
3467.71853	0.09815
3465.78987	0.09886
3463.86122	0.09950
3461.93257	0.09979
3460.00391	0.10000
3458.07526	0.10055
3456.14661	0.10124
3454.21795	0.10174
3452.28930	0.10207
3450.36065	0.10234
3448.43199	0.10273
3446.50334	0.10325
3444.57469	0.10362
3442.64603	0.10397
3440.71738	0.10445
3438.78873	0.10493
3436.86007	0.10548
3434.93142	0.10609
3433.00277	0.10664
3431.07411	0.10721
3429.14546	0.10763
3427.21681	0.10756
3425.28815	0.10751
3423.35950	0.10829
3421.43085	0.10957
3419.50219	0.11040
3417.57354	0.11068
3415.64489	0.11096
3413.71624	0.11134
3411.78758	0.11147
3409.85893	0.11146
3407.93028	0.11161
3406.00162	0.11176
3404.07297	0.11189
3402.14432	0.11233
3400.21566	0.11312
3398.28701	0.11379
3396.35836	0.11427
3394.42970	0.11512
3392.50105	0.11607
3390.57240	0.11628
3388.64374	0.11617
3386.71509	0.11652
3384.78644	0.11702
3382.85778	0.11717
3380.92913	0.11731
3379.00048	0.11790
3377.07182	0.11868
3375.14317	0.11930
3373.21452	0.11989
3371.28586	0.12047
3369.35721	0.12100
3367.42856	0.12175
3365.49990	0.12276
3363.57125	0.12385
3361.64260	0.12500
3359.71394	0.12602
3357.78529	0.12673
3355.85664	0.12735
3353.92798	0.12823
3351.99933	0.12938
3350.07068	0.13059
3348.14202	0.13161
3346.21337	0.13249
3344.28472	0.13333
3342.35607	0.13433
3340.42741	0.13563
3338.49876	0.13690
3336.57011	0.13778
3334.64145	0.13842
3332.71280	0.13911
3330.78415	0.13991
3328.85549	0.14085
3326.92684	0.14182
3324.99819	0.14257
3323.06953	0.14314
3321.14088	0.14370
3319.21223	0.14400
3317.28357	0.14389
3315.35492	0.14386
3313.42627	0.14421
3311.49761	0.14473
3309.56896	0.14530
3307.64031	0.14579
3305.71165	0.14600
3303.78300	0.14606
3301.85435	0.14620
3299.92569	0.14647
3297.99704	0.14673
3296.06839	0.14672
3294.13973	0.14634
3292.21108	0.14594
3290.28243	0.14592
3288.35377	0.14620
3286.42512	0.14636
3284.49647	0.14628
3282.56781	0.14619
3280.63916	0.14619
3278.71051	0.14607
3276.78186	0.14571
3274.85320	0.14505
3272.92455	0.14407
3270.99590	0.14306
3269.06724	0.14236
3267.13859	0.14200
3265.20994	0.14164
3263.28128	0.14115
3261.35263	0.14065
3259.42398	0.14017
3257.49532	0.13949
3255.56667	0.13869
3253.63802	0.13809
3251.70936	0.13752
3249.78071	0.13664
3247.85206	0.13572
3245.92340	0.13523
3243.99475	0.13506
3242.06610	0.13485
3240.13744	0.13460
3238.20879	0.13437
3236.28014	0.13388
3234.35148	0.13300
3232.42283	0.13206
3230.49418	0.13133
3228.56552	0.13079
3226.63687	0.13056
3224.70822	0.13048
3222.77956	0.13019
3220.85091	0.12974
3218.92226	0.12946
3216.99360	0.12920
3215.06495	0.12866
3213.13630	0.12804
3211.20764	0.12766
3209.27899	0.12737
3207.35034	0.12697
3205.42169	0.12654
3203.49303	0.12616
3201.56438	0.12586
3199.63573	0.12547
3197.70707	0.12473
3195.77842	0.12375
3193.84977	0.12276
3191.92111	0.12195
3189.99246	0.12152
3188.06381	0.12141
3186.13515	0.12113
3184.20650	0.12027
3182.27785	0.11931
3180.34919	0.11876
3178.42054	0.11833
3176.49189	0.11758
3174.56323	0.11650
3172.63458	0.11540
3170.70593	0.11448
3168.77727	0.11367
3166.84862	0.11291
3164.91997	0.11202
3162.99131	0.11099
3161.06266	0.11012
3159.13401	0.10963
3157.20535	0.10917
3155.27670	0.10845
3153.34805	0.10770
3151.41939	0.10714
3149.49074	0.10660
3147.56209	0.10588
3145.63343	0.10507
3143.70478	0.10430
3141.77613	0.10374
3139.84748	0.10334
3137.91882	0.10283
3135.99017	0.10226
3134.06152	0.10179
3132.13286	0.10130
3130.20421	0.10081
3128.27556	0.10045
3126.34690	0.10013
3124.41825	0.09977
3122.48960	0.09935
3120.56094	0.09903
3118.63229	0.09898
3116.70364	0.09894
3114.77498	0.09870
3112.84633	0.09849
3110.91768	0.09866
3108.98902	0.09902
3107.06037	0.09920
3105.13172	0.09922
3103.20306	0.09913
3101.27441	0.09889
3099.34576	0.09874
3097.41710	0.09883
3095.48845	0.09894
3093.55980	0.09922
3091.63114	0.09982
3089.70249	0.10027
3087.77384	0.10030
3085.84518	0.10022
3083.91653	0.10029
3081.98788	0.10064
3080.05922	0.10107
3078.13057	0.10116
3076.20192	0.10106
3074.27326	0.10108
3072.34461	0.10101
3070.41596	0.10080
3068.48731	0.10064
3066.55865	0.10048
3064.63000	0.10020
3062.70135	0.09982
3060.77269	0.09932
3058.84404	0.09888
3056.91539	0.09863
3054.98673	0.09830
3053.05808	0.09766
3051.12943	0.09689
3049.20077	0.09622
3047.27212	0.09553
3045.34347	0.09469
3043.41481	0.09389
3041.48616	0.09344
3039.55751	0.09319
3037.62885	0.09266
3035.70020	0.09167
3033.77155	0.09069
3031.84289	0.09008
3029.91424	0.08969
3027.98559	0.08920
3026.05693	0.08856
3024.12828	0.08788
3022.19963	0.08724
3020.27097	0.08672
3018.34232	0.08623
3016.41367	0.08577
3014.48501	0.08545
3012.55636	0.08517
3010.62771	0.08481
3008.69905	0.08464
3006.77040	0.08475
3004.84175	0.08464
3002.91309	0.08428
3000.98444	0.08431
2999.05579	0.08470
2997.12714	0.08494
2995.19848	0.08499
2993.26983	0.08514
2991.34118	0.08538
2989.41252	0.08563
2987.48387	0.08585
2985.55522	0.08618
2983.62656	0.08677
2981.69791	0.08749
2979.76926	0.08813
2977.84060	0.08850
2975.91195	0.08864
2973.98330	0.08893
2972.05464	0.08946
2970.12599	0.08984
2968.19734	0.08990
2966.26868	0.08987
2964.34003	0.09003
2962.41138	0.09042
2960.48272	0.09085
2958.55407	0.09118
2956.62542	0.09152
2954.69676	0.09167
2952.76811	0.09142
2950.83946	0.09121
2948.91080	0.09128
2946.98215	0.09139
2945.05350	0.09152
2943.12484	0.09176
2941.19619	0.09210
2939.26754	0.09243
2937.33888	0.09252
2935.41023	0.09225
2933.48158	0.09202
2931.55293	0.09200
2929.62427	0.09200
2927.69562	0.09186
2925.76697	0.09146
2923.83831	0.09084
2921.90966	0.09015
2919.98101	0.08946
2918.05235	0.08888
2916.12370	0.08831
2914.19505	0.08744
2912.26639	0.08641
2910.33774	0.08549
2908.40909	0.08465
2906.48043	0.08390
2904.55178	0.08329
2902.62313	0.08277
2900.69447	0.08238
2898.76582	0.08219
2896.83717	0.08205
2894.90851	0.08177
2892.97986	0.08130
2891.05121	0.08088
2889.12255	0.08076
2887.19390	0.08094
2885.26525	0.08108
2883.33659	0.08096
2881.40794	0.08071
2879.47929	0.08069
2877.55063	0.08086
2875.62198	0.08079
2873.69333	0.08042
2871.76467	0.07998
2869.83602	0.07955
2867.90737	0.07897
2865.97871	0.07831
2864.05006	0.07777
2862.12141	0.07722
2860.19276	0.07653
2858.26410	0.07585
2856.33545	0.07537
2854.40680	0.07508
2852.47814	0.07478
2850.54949	0.07437
2848.62084	0.07382
2846.69218	0.07335
2844.76353	0.07309
2842.83488	0.07268
2840.90622	0.07196
2838.97757	0.07131
2837.04892	0.07095
2835.12026	0.07074
2833.19161	0.07047
2831.26296	0.07005
2829.33430	0.06957
2827.40565	0.06923
2825.47700	0.06909
2823.54834	0.06897
2821.61969	0.06873
2819.69104	0.06846
2817.76238	0.06834
2815.83373	0.06827
2813.90508	0.06792
2811.97642	0.06736
2810.04777	0.06696
2808.11912	0.06679
2806.19046	0.06675
2804.26181	0.06671
2802.33316	0.06657
2800.40450	0.06637
2798.47585	0.06614
2796.54720	0.06580
2794.61855	0.06533
2792.68989	0.06495
2790.76124	0.06475
2788.83259	0.06459
2786.90393	0.06446
2784.97528	0.06426
2783.04663	0.06394
2781.11797	0.06368
2779.18932	0.06360
2777.26067	0.06354
2775.33201	0.06339
2773.40336	0.06326
2771.47471	0.06314
2769.54605	0.06293
2767.61740	0.06266
2765.68875	0.06236
2763.76009	0.06208
2761.83144	0.06190
2759.90279	0.06179
2757.97413	0.06161
2756.04548	0.06125
2754.11683	0.06090
2752.18817	0.06086
2750.25952	0.06095
2748.33087	0.06080
2746.40221	0.06046
2744.47356	0.06018
2742.54491	0.06002
2740.61625	0.05983
2738.68760	0.05961
2736.75895	0.05951
2734.83029	0.05946
2732.90164	0.05925
2730.97299	0.05884
2729.04433	0.05843
2727.11568	0.05829
2725.18703	0.05839
2723.25838	0.05845
2721.32972	0.05841
2719.40107	0.05830
2717.47242	0.05796
2715.54376	0.05745
2713.61511	0.05704
2711.68646	0.05684
2709.75780	0.05683
2707.82915	0.05693
2705.90050	0.05691
2703.97184	0.05673
2702.04319	0.05652
2700.11454	0.05636
2698.18588	0.05622
2696.25723	0.05603
2694.32858	0.05568
2692.39992	0.05533
2690.47127	0.05517
2688.54262	0.05513
2686.61396	0.05509
2684.68531	0.05508
2682.75666	0.05514
2680.82800	0.05512
2678.89935	0.05491
2676.97070	0.05459
2675.04204	0.05438
2673.11339	0.05439
2671.18474	0.05438
2669.25608	0.05416
2667.32743	0.05396
2665.39878	0.05399
2663.47012	0.05418
2661.54147	0.05424
2659.61282	0.05400
2657.68417	0.05364
2655.75551	0.05332
2653.82686	0.05307
2651.89821	0.05291
2649.96955	0.05279
2648.04090	0.05257
2646.11225	0.05220
2644.18359	0.05179
2642.25494	0.05145
2640.32629	0.05123
2638.39763	0.05105
2636.46898	0.05075
2634.54033	0.05030
2632.61167	0.04983
2630.68302	0.04954
2628.75437	0.04939
2626.82571	0.04917
2624.89706	0.04899
2622.96841	0.04889
2621.03975	0.04873
2619.11110	0.04861
2617.18245	0.04854
2615.25379	0.04825
2613.32514	0.04788
2611.39649	0.04770
2609.46783	0.04758
2607.53918	0.04736
2605.61053	0.04692
2603.68187	0.04638
2601.75322	0.04617
2599.82457	0.04620
2597.89591	0.04609
2595.96726	0.04598
2594.03861	0.04585
2592.10995	0.04552
2590.18130	0.04510
2588.25265	0.04477
2586.32400	0.04446
2584.39534	0.04413
2582.46669	0.04392
2580.53804	0.04375
2578.60938	0.04338
2576.68073	0.04300
2574.75208	0.04292
2572.82342	0.04310
2570.89477	0.04337
2568.96612	0.04340
2567.03746	0.04298
2565.10881	0.04246
2563.18016	0.04233
2561.25150	0.04244
2559.32285	0.04247
2557.39420	0.04248
2555.46554	0.04234
2553.53689	0.04203
2551.60824	0.04189
2549.67958	0.04189
2547.75093	0.04165
2545.82228	0.04142
2543.89362	0.04160
2541.96497	0.04174
2540.03632	0.04144
2538.10766	0.04107
2536.17901	0.04078
2534.25036	0.04034
2532.32170	0.03982
2530.39305	0.03943
2528.46440	0.03931
2526.53574	0.03954
2524.60709	0.03968
2522.67844	0.03941
2520.74978	0.03902
2518.82113	0.03893
2516.89248	0.03918
2514.96383	0.03927
2513.03517	0.03907
2511.10652	0.03900
2509.17787	0.03920
2507.24921	0.03931
2505.32056	0.03909
2503.39191	0.03898
2501.46325	0.03915
2499.53460	0.03893
2497.60595	0.03821
2495.67729	0.03792
2493.74864	0.03836
2491.81999	0.03877
2489.89133	0.03872
2487.96268	0.03854
2486.03403	0.03851
2484.10537	0.03856
2482.17672	0.03857
2480.24807	0.03829
2478.31941	0.03764
2476.39076	0.03723
2474.46211	0.03734
2472.53345	0.03746
2470.60480	0.03740
2468.67615	0.03732
2466.74749	0.03715
2464.81884	0.03721
2462.89019	0.03763
2460.96153	0.03767
2459.03288	0.03710
2457.10423	0.03663
2455.17557	0.03656
2453.24692	0.03635
2451.31827	0.03597
2449.38962	0.03595
2447.46096	0.03605
2445.53231	0.03602
2443.60366	0.03620
2441.67500	0.03643
2439.74635	0.03647
2437.81770	0.03651
2435.88904	0.03657
2433.96039	0.03648
2432.03174	0.03628
2430.10308	0.03604
2428.17443	0.03577
2426.24578	0.03560
2424.31712	0.03575
2422.38847	0.03609
2420.45982	0.03625
2418.53116	0.03622
2416.60251	0.03627
2414.67386	0.03628
2412.74520	0.03610
2410.81655	0.03596
2408.88790	0.03596
2406.95924	0.03588
2405.03059	0.03571
2403.10194	0.03563
2401.17328	0.03565
2399.24463	0.03564
2397.31598	0.03545
2395.38732	0.03559
2393.45867	0.03601
2391.53002	0.03623
2389.60136	0.03610
2387.67271	0.03591
2385.74406	0.03584
2383.81540	0.03581
2381.88675	0.03576
2379.95810	0.03584
2378.02945	0.03625
2376.10079	0.03666
2374.17214	0.03654
2372.24349	0.03611
2370.31483	0.03600
2368.38618	0.03636
2366.45753	0.03650
2364.52887	0.03638
2362.60022	0.03629
2360.67157	0.03628
2358.74291	0.03633
2356.81426	0.03638
2354.88561	0.03648
2352.95695	0.03645
2351.02830	0.03623
2349.09965	0.03609
2347.17099	0.03633
2345.24234	0.03655
2343.31369	0.03669
2341.38503	0.03705
2339.45638	0.03719
2337.52773	0.03704
2335.59907	0.03665
2333.67042	0.03619
2331.74177	0.03589
2329.81311	0.03567
2327.88446	0.03581
2325.95581	0.03606
2324.02715	0.03633
2322.09850	0.03632
2320.16985	0.03606
2318.24119	0.03548
2316.31254	0.03480
2314.38389	0.03421
2312.45524	0.03393
2310.52658	0.03398
2308.59793	0.03409
2306.66928	0.03409
2304.74062	0.03390
2302.81197	0.03363
2300.88332	0.03329
2298.95466	0.03293
2297.02601	0.03274
2295.09736	0.03267
2293.16870	0.03238
2291.24005	0.03198
2289.31140	0.03169
2287.38274	0.03131
2285.45409	0.03078
2283.52544	0.03056
2281.59678	0.03068
2279.66813	0.03048
2277.73948	0.02986
2275.81082	0.02956
2273.88217	0.02971
2271.95352	0.02970
2270.02486	0.02920
2268.09621	0.02825
2266.16756	0.02719
2264.23890	0.02695
2262.31025	0.02781
2260.38160	0.02860
2258.45294	0.02842
2256.52429	0.02773
2254.59564	0.02714
2252.66698	0.02650
2250.73833	0.02571
2248.80968	0.02533
2246.88102	0.02550
2244.95237	0.02580
2243.02372	0.02588
2241.09507	0.02582
2239.16641	0.02526
2237.23776	0.02440
2235.30911	0.02400
2233.38045	0.02407
2231.45180	0.02460
2229.52315	0.02550
2227.59449	0.02596
2225.66584	0.02549
2223.73719	0.02476
2221.80853	0.02430
2219.87988	0.02343
2217.95123	0.02248
2216.02257	0.02226
2214.09392	0.02182
2212.16527	0.02072
2210.23661	0.01979
2208.30796	0.01959
2206.37931	0.02012
2204.45065	0.02054
2202.52200	0.02057
2200.59335	0.02078
2198.66469	0.02107
2196.73604	0.02067
2194.80739	0.01942
2192.87873	0.01831
2190.95008	0.01828
2189.02143	0.01905
2187.09277	0.01966
2185.16412	0.01949
2183.23547	0.01892
2181.30681	0.01878
2179.37816	0.01925
2177.44951	0.01944
2175.52085	0.01822
2173.59220	0.01631
2171.66355	0.01554
2169.73490	0.01585
2167.80624	0.01597
2165.87759	0.01527
2163.94894	0.01382
2162.02028	0.01216
2160.09163	0.01095
2158.16298	0.01105
2156.23432	0.01309
2154.30567	0.01537
2152.37702	0.01649
2150.44836	0.01763
2148.51971	0.01895
2146.59106	0.01917
2144.66240	0.01882
2142.73375	0.01890
2140.80510	0.01962
2138.87644	0.02073
2136.94779	0.02147
2135.01914	0.02142
2133.09048	0.02085
2131.16183	0.02052
2129.23318	0.02090
2127.30452	0.02167
2125.37587	0.02259
2123.44722	0.02322
2121.51856	0.02312
2119.58991	0.02305
2117.66126	0.02356
2115.73260	0.02378
2113.80395	0.02338
2111.87530	0.02302
2109.94664	0.02272
2108.01799	0.02242
2106.08934	0.02248
2104.16069	0.02270
2102.23203	0.02248
2100.30338	0.02186
2098.37473	0.02137
2096.44607	0.02145
2094.51742	0.02182
2092.58877	0.02200
2090.66011	0.02193
2088.73146	0.02188
2086.80281	0.02184
2084.87415	0.02176
2082.94550	0.02159
2081.01685	0.02117
2079.08819	0.02054
2077.15954	0.02007
2075.23089	0.01994
2073.30223	0.01970
2071.37358	0.01922
2069.44493	0.01906
2067.51627	0.01928
2065.58762	0.01926
2063.65897	0.01892
2061.73031	0.01870
2059.80166	0.01877
2057.87301	0.01892
2055.94435	0.01914
2054.01570	0.01940
2052.08705	0.01943
2050.15839	0.01889
2048.22974	0.01774
2046.30109	0.01691
2044.37243	0.01711
2042.44378	0.01738
2040.51513	0.01685
2038.58647	0.01589
2036.65782	0.01489
2034.72917	0.01415
2032.80052	0.01389
2030.87186	0.01370
2028.94321	0.01304
2027.01456	0.01233
2025.08590	0.01203
2023.15725	0.01153
2021.22860	0.01090
2019.29994	0.01111
2017.37129	0.01238
2015.44264	0.01414
2013.51398	0.01540
2011.58533	0.01545
2009.65668	0.01470
2007.72802	0.01382
2005.79937	0.01295
2003.87072	0.01260
2001.94206	0.01331
2000.01341	0.01451
1998.08476	0.01523
1996.15610	0.01524
1994.22745	0.01510
1992.29880	0.01552
1990.37014	0.01601
1988.44149	0.01585
1986.51284	0.01547
1984.58418	0.01544
1982.65553	0.01573
1980.72688	0.01568
1978.79822	0.01480
1976.86957	0.01377
1974.94092	0.01328
1973.01226	0.01291
1971.08361	0.01241
1969.15496	0.01199
1967.22631	0.01171
1965.29765	0.01196
1963.36900	0.01313
1961.44035	0.01473
1959.51169	0.01575
1957.58304	0.01575
1955.65439	0.01534
1953.72573	0.01512
1951.79708	0.01515
1949.86843	0.01553
1947.93977	0.01617
1946.01112	0.01676
1944.08247	0.01723
1942.15381	0.01765
1940.22516	0.01809
1938.29651	0.01834
1936.36785	0.01825
1934.43920	0.01813
1932.51055	0.01791
1930.58189	0.01735
1928.65324	0.01686
1926.72459	0.01679
1924.79593	0.01694
1922.86728	0.01740
1920.93863	0.01808
1919.00997	0.01842
1917.08132	0.01837
1915.15267	0.01814
1913.22401	0.01793
1911.29536	0.01794
1909.36671	0.01795
1907.43805	0.01797
1905.50940	0.01827
1903.58075	0.01859
1901.65209	0.01866
1899.72344	0.01853
1897.79479	0.01822
1895.86614	0.01784
1893.93748	0.01767
1892.00883	0.01786
1890.08018	0.01834
1888.15152	0.01870
1886.22287	0.01864
1884.29422	0.01839
1882.36556	0.01818
1880.43691	0.01798
1878.50826	0.01774
1876.57960	0.01749
1874.65095	0.01744
1872.72230	0.01773
1870.79364	0.01793
1868.86499	0.01774
1866.93634	0.01759
1865.00768	0.01778
1863.07903	0.01795
1861.15038	0.01789
1859.22172	0.01782
1857.29307	0.01799
1855.36442	0.01829
1853.43576	0.01833
1851.50711	0.01804
1849.57846	0.01771
1847.64980	0.01753
1845.72115	0.01748
1843.79250	0.01764
1841.86384	0.01790
1839.93519	0.01795
1838.00654	0.01777
1836.07788	0.01759
1834.14923	0.01756
1832.22058	0.01765
1830.29192	0.01769
1828.36327	0.01767
1826.43462	0.01768
1824.50597	0.01762
1822.57731	0.01743
1820.64866	0.01722
1818.72001	0.01713
1816.79135	0.01726
1814.86270	0.01753
1812.93405	0.01769
1811.00539	0.01763
1809.07674	0.01743
1807.14809	0.01734
1805.21943	0.01751
1803.29078	0.01769
1801.36213	0.01758
1799.43347	0.01732
1797.50482	0.01722
1795.57617	0.01728
1793.64751	0.01737
1791.71886	0.01745
1789.79021	0.01748
1787.86155	0.01739
1785.93290	0.01723
1784.00425	0.01718
1782.07559	0.01718
1780.14694	0.01707
1778.21829	0.01694
1776.28963	0.01692
1774.36098	0.01694
1772.43233	0.01695
1770.50367	0.01699
1768.57502	0.01698
1766.64637	0.01693
1764.71771	0.01696
1762.78906	0.01708
1760.86041	0.01715
1758.93176	0.01720
1757.00310	0.01734
1755.07445	0.01752
1753.14580	0.01757
1751.21714	0.01757
1749.28849	0.01774
1747.35984	0.01814
1745.43118	0.01858
1743.50253	0.01896
1741.57388	0.01928
1739.64522	0.01958
1737.71657	0.01995
1735.78792	0.02038
1733.85926	0.02078
1731.93061	0.02109
1730.00196	0.02142
1728.07330	0.02188
1726.14465	0.02239
1724.21600	0.02285
1722.28734	0.02331
1720.35869	0.02385
1718.43004	0.02441
1716.50138	0.02501
1714.57273	0.02582
1712.64408	0.02691
1710.71542	0.02829
1708.78677	0.03003
1706.85812	0.03220
1704.92946	0.03476
1703.00081	0.03755
1701.07216	0.04056
1699.14350	0.04387
1697.21485	0.04745
1695.28620	0.05119
1693.35754	0.05498
1691.42889	0.05882
1689.50024	0.06275
1687.57159	0.06675
1685.64293	0.07081
1683.71428	0.07509
1681.78563	0.07981
1679.85697	0.08504
1677.92832	0.09064
1675.99967	0.09645
1674.07101	0.10238
1672.14236	0.10844
1670.21371	0.11465
1668.28505	0.12092
1666.35640	0.12706
1664.42775	0.13302
1662.49909	0.13875
1660.57044	0.14406
1658.64179	0.14875
1656.71313	0.15278
1654.78448	0.15627
1652.85583	0.15931
1650.92717	0.16187
1648.99852	0.16401
1647.06987	0.16584
1645.14121	0.16741
1643.21256	0.16887
1641.28391	0.17029
1639.35525	0.17158
1637.42660	0.17260
1635.49795	0.17322
1633.56929	0.17331
1631.64064	0.17278
1629.71199	0.17136
1627.78333	0.16875
1625.85468	0.16494
1623.92603	0.16013
1621.99738	0.15462
1620.06872	0.14868
1618.14007	0.14249
1616.21142	0.13618
1614.28276	0.13004
1612.35411	0.12417
1610.42546	0.11847
1608.49680	0.11300
1606.56815	0.10795
1604.63950	0.10340
1602.71084	0.09931
1600.78219	0.09562
1598.85354	0.09236
1596.92488	0.08961
1594.99623	0.08736
1593.06758	0.08555
1591.13892	0.08418
1589.21027	0.08321
1587.28162	0.08261
1585.35296	0.08239
1583.42431	0.08260
1581.49566	0.08328
1579.56700	0.08441
1577.63835	0.08593
1575.70970	0.08784
1573.78104	0.09025
1571.85239	0.09318
1569.92374	0.09648
1567.99508	0.10003
1566.06643	0.10378
1564.13778	0.10772
1562.20912	0.11168
1560.28047	0.11546
1558.35182	0.11902
1556.42316	0.12233
1554.49451	0.12529
1552.56586	0.12778
1550.63721	0.12977
1548.70855	0.13139
1546.77990	0.13267
1544.85125	0.13352
1542.92259	0.13386
1540.99394	0.13372
1539.06529	0.13327
1537.13663	0.13263
1535.20798	0.13181
1533.27933	0.13075
1531.35067	0.12953
1529.42202	0.12816
1527.49337	0.12661
1525.56471	0.12486
1523.63606	0.12299
1521.70741	0.12100
1519.77875	0.11892
1517.85010	0.11683
1515.92145	0.11457
1513.99279	0.11196
1512.06414	0.10898
1510.13549	0.10575
1508.20683	0.10227
1506.27818	0.09856
1504.34953	0.09487
1502.42087	0.09140
1500.49222	0.08805
1498.56357	0.08468
1496.63491	0.08135
1494.70626	0.07819
1492.77761	0.07528
1490.84895	0.07266
1488.92030	0.07037
1486.99165	0.06854
1485.06299	0.06727
1483.13434	0.06652
1481.20569	0.06624
1479.27704	0.06646
1477.34838	0.06716
1475.41973	0.06828
1473.49108	0.06970
1471.56242	0.07132
1469.63377	0.07310
1467.70512	0.07509
1465.77646	0.07722
1463.84781	0.07942
1461.91916	0.08165
1459.99050	0.08390
1458.06185	0.08596
1456.13320	0.08770
1454.20454	0.08905
1452.27589	0.08996
1450.34724	0.09025
1448.41858	0.08984
1446.48993	0.08897
1444.56128	0.08791
1442.63262	0.08671
1440.70397	0.08537
1438.77532	0.08384
1436.84666	0.08198
1434.91801	0.07987
1432.98936	0.07784
1431.06070	0.07616
1429.13205	0.07495
1427.20340	0.07416
1425.27474	0.07369
1423.34609	0.07348
1421.41744	0.07347
1419.48878	0.07342
1417.56013	0.07334
1415.63148	0.07348
1413.70283	0.07385
1411.77417	0.07431
1409.84552	0.07485
1407.91687	0.07551
1405.98821	0.07614
1404.05956	0.07650
1402.13091	0.07653
1400.20225	0.07634
1398.27360	0.07603
1396.34495	0.07563
1394.41629	0.07518
1392.48764	0.07472
1390.55899	0.07432
1388.63033	0.07397
1386.70168	0.07353
1384.77303	0.07297
1382.84437	0.07235
1380.91572	0.07169
1378.98707	0.07097
1377.05841	0.07018
1375.12976	0.06929
1373.20111	0.06821
1371.27245	0.06698
1369.34380	0.06568
1367.41515	0.06438
1365.48649	0.06316
1363.55784	0.06205
1361.62919	0.06110
1359.70053	0.06038
1357.77188	0.06000
1355.84323	0.05999
1353.91457	0.06030
1351.98592	0.06091
1350.05727	0.06179
1348.12861	0.06286
1346.19996	0.06402
1344.27131	0.06516
1342.34266	0.06620
1340.41400	0.06705
1338.48535	0.06761
1336.55670	0.06780
1334.62804	0.06760
1332.69939	0.06694
1330.77074	0.06591
1328.84208	0.06476
1326.91343	0.06373
1324.98478	0.06290
1323.05612	0.06229
1321.12747	0.06187
1319.19882	0.06156
1317.27016	0.06128
1315.34151	0.06096
1313.41286	0.06052
1311.48420	0.05999
1309.55555	0.05946
1307.62690	0.05900
1305.69824	0.05864
1303.76959	0.05838
1301.84094	0.05814
1299.91228	0.05784
1297.98363	0.05757
1296.05498	0.05749
1294.12632	0.05770
1292.19767	0.05822
1290.26902	0.05900
1288.34036	0.05995
1286.41171	0.06090
1284.48306	0.06175
1282.55440	0.06239
1280.62575	0.06276
1278.69710	0.06291
1276.76845	0.06293
1274.83979	0.06290
1272.91114	0.06290
1270.98249	0.06303
1269.05383	0.06333
1267.12518	0.06372
1265.19653	0.06420
1263.26787	0.06480
1261.33922	0.06553
1259.41057	0.06636
1257.48191	0.06729
1255.55326	0.06839
1253.62461	0.06966
1251.69595	0.07099
1249.76730	0.07233
1247.83865	0.07372
1245.90999	0.07513
1243.98134	0.07649
1242.05269	0.07779
1240.12403	0.07889
1238.19538	0.07962
1236.26673	0.07996
1234.33807	0.07995
1232.40942	0.07946
1230.48077	0.07841
1228.55211	0.07691
1226.62346	0.07515
1224.69481	0.07318
1222.76615	0.07112
1220.83750	0.06920
1218.90885	0.06753
1216.98019	0.06622
1215.05154	0.06533
1213.12289	0.06487
1211.19423	0.06481
1209.26558	0.06509
1207.33693	0.06552
1205.40828	0.06586
1203.47962	0.06595
1201.55097	0.06570
1199.62232	0.06506
1197.69366	0.06389
1195.76501	0.06242
1193.83636	0.06093
1191.90770	0.05952
1189.97905	0.05820
1188.05040	0.05702
1186.12174	0.05604
1184.19309	0.05522
1182.26444	0.05457
1180.33578	0.05409
1178.40713	0.05368
1176.47848	0.05336
1174.54982	0.05318
1172.62117	0.05306
1170.69252	0.05292
1168.76386	0.05274
1166.83521	0.05269
1164.90656	0.05279
1162.97790	0.05286
1161.04925	0.05270
1159.12060	0.05223
1157.19194	0.05146
1155.26329	0.05060
1153.33464	0.04974
1151.40598	0.04883
1149.47733	0.04789
1147.54868	0.04702
1145.62002	0.04630
1143.69137	0.04573
1141.76272	0.04519
1139.83406	0.04465
1137.90541	0.04415
1135.97676	0.04375
1134.04811	0.04353
1132.11945	0.04351
1130.19080	0.04358
1128.26215	0.04369
1126.33349	0.04373
1124.40484	0.04362
1122.47619	0.04349
1120.54753	0.04344
1118.61888	0.04348
1116.69023	0.04364
1114.76157	0.04387
1112.83292	0.04402
1110.90427	0.04427
1108.97561	0.04478
1107.04696	0.04541
1105.11831	0.04599
1103.18965	0.04657
1101.26100	0.04721
1099.33235	0.04791
1097.40369	0.04870
1095.47504	0.04947
1093.54639	0.05021
1091.61773	0.05114
1089.68908	0.05237
1087.76043	0.05376
1085.83177	0.05509
1083.90312	0.05621
1081.97447	0.05704
1080.04581	0.05747
1078.11716	0.05748
1076.18851	0.05711
1074.25985	0.05659
1072.33120	0.05609
1070.40255	0.05573
1068.47390	0.05562
1066.54524	0.05572
1064.61659	0.05586
1062.68794	0.05590
1060.75928	0.05588
1058.83063	0.05577
1056.90198	0.05551
1054.97332	0.05512
1053.04467	0.05476
1051.11602	0.05448
1049.18736	0.05419
1047.25871	0.05395
1045.33006	0.05385
1043.40140	0.05389
1041.47275	0.05409
1039.54410	0.05451
1037.61544	0.05508
1035.68679	0.05575
1033.75814	0.05644
1031.82948	0.05687
1029.90083	0.05680
1027.97218	0.05625
1026.04352	0.05544
1024.11487	0.05459
1022.18622	0.05378
1020.25756	0.05301
1018.32891	0.05240
1016.40026	0.05201
1014.47160	0.05163
1012.54295	0.05106
1010.61430	0.05032
1008.68564	0.04950
1006.75699	0.04868
1004.82834	0.04792
1002.89968	0.04727
1000.97103	0.04665
999.04238	0.04604
997.11373	0.04545
995.18507	0.04485
993.25642	0.04422
991.32777	0.04362
989.39911	0.04311
987.47046	0.04270
985.54181	0.04235
983.61315	0.04203
981.68450	0.04175
979.75585	0.04158
977.82719	0.04153
975.89854	0.04143
973.96989	0.04124
972.04123	0.04097
970.11258	0.04059
968.18393	0.04019
966.25527	0.03987
964.32662	0.03960
962.39797	0.03940
960.46931	0.03924
958.54066	0.03901
956.61201	0.03872
954.68335	0.03845
952.75470	0.03819
950.82605	0.03790
948.89739	0.03762
946.96874	0.03743
945.04009	0.03736
943.11143	0.03738
941.18278	0.03745
939.25413	0.03740
937.32547	0.03722
935.39682	0.03705
933.46817	0.03691
931.53952	0.03678
929.61086	0.03668
927.68221	0.03651
925.75356	0.03628
923.82490	0.03609
921.89625	0.03593
919.96760	0.03566
918.03894	0.03530
916.11029	0.03501
914.18164	0.03480
912.25298	0.03457
910.32433	0.03433
908.39568	0.03410
906.46702	0.03377
904.53837	0.03338
902.60972	0.03313
900.68106	0.03302
898.75241	0.03287
896.82376	0.03272
894.89510	0.03262
892.96645	0.03257
891.03780	0.03249
889.10914	0.03230
887.18049	0.03210
885.25184	0.03200
883.32318	0.03212
881.39453	0.03250
879.46588	0.03292
877.53722	0.03315
875.60857	0.03324
873.67992	0.03324
871.75126	0.03304
869.82261	0.03275
867.89396	0.03258
865.96530	0.03238
864.03665	0.03212
862.10800	0.03200
860.17935	0.03196
858.25069	0.03189
856.32204	0.03183
854.39339	0.03186
852.46473	0.03195
850.53608	0.03195
848.60743	0.03179
846.67877	0.03166
844.75012	0.03163
842.82147	0.03159
840.89281	0.03141
838.96416	0.03115
837.03551	0.03101
835.10685	0.03109
833.17820	0.03125
831.24955	0.03141
829.32089	0.03153
827.39224	0.03154
825.46359	0.03148
823.53493	0.03155
821.60628	0.03186
819.67763	0.03224
817.74897	0.03249
815.82032	0.03267
813.89167	0.03284
811.96301	0.03294
810.03436	0.03295
808.10571	0.03306
806.17705	0.03325
804.24840	0.03336
802.31975	0.03344
800.39109	0.03366
798.46244	0.03397
796.53379	0.03427
794.60513	0.03452
792.67648	0.03479
790.74783	0.03509
788.81918	0.03530
786.89052	0.03540
784.96187	0.03548
783.03322	0.03558
781.10456	0.03572
779.17591	0.03594
777.24726	0.03616
775.31860	0.03639
773.38995	0.03673
771.46130	0.03720
769.53264	0.03756
767.60399	0.03776
765.67534	0.03803
763.74668	0.03842
761.81803	0.03865
759.88938	0.03866
757.96072	0.03881
756.03207	0.03923
754.10342	0.03972
752.17476	0.04010
750.24611	0.04032
748.31746	0.04047
746.38880	0.04072
744.46015	0.04108
742.53150	0.04140
740.60284	0.04155
738.67419	0.04173
736.74554	0.04202
734.81688	0.04225
732.88823	0.04241
730.95958	0.04269
729.03092	0.04318
727.10227	0.04366
725.17362	0.04390
723.24497	0.04403
721.31631	0.04420
719.38766	0.04452
717.45901	0.04497
715.53035	0.04539
713.60170	0.04568
711.67305	0.04590
709.74439	0.04618
707.81574	0.04659
705.88709	0.04712
703.95843	0.04768
702.02978	0.04806
700.10113	0.04820
698.17247	0.04829
696.24382	0.04846
694.31517	0.04858
692.38651	0.04864
690.45786	0.04879
688.52921	0.04901
686.60055	0.04917
684.67190	0.04931
682.74325	0.04953
680.81459	0.04992
678.88594	0.05034
676.95729	0.05062
675.02863	0.05078
673.09998	0.05098
671.17133	0.05120
669.24267	0.05135
667.31402	0.05171
665.38537	0.05191
663.45671	0.05210
661.52806	0.05218
659.59941	0.05220
657.67075	0.05231
655.74210	0.05248
653.81345	0.05261
651.88480	0.05270
649.95614	0.05283
648.02749	0.05305
646.09884	0.05328
644.17018	0.05340
642.24153	0.05346
640.31288	0.05356
638.38422	0.05370
636.45557	0.05377
634.52692	0.05383
632.59826	0.05403
630.66961	0.05444
628.74096	0.05529
626.81230	0.05448
624.88365	0.05233
622.95500	0.05025
621.02634	0.05029
619.09769	0.05205
617.16904	0.05335
615.24038	0.05382
613.31173	0.05366
611.38308	0.05292
609.45442	0.05321
607.52577	0.05469
605.59712	0.05528
603.66846	0.05522
601.73981	0.05574
599.81116	0.05634
597.88250	0.05651
595.95385	0.05650
594.02520	0.05650
592.09654	0.05647
590.16789	0.05622
588.23924	0.05578
586.31059	0.05545
584.38193	0.05539
582.45328	0.05550
580.52463	0.05574
578.59597	0.05602
576.66732	0.05621
574.73867	0.05641
572.81001	0.05672
570.88136	0.05698
568.95271	0.05720
567.02405	0.05768
565.09540	0.05835
563.16675	0.05882
561.23809	0.05900
559.30944	0.05906
557.38079	0.05899
555.45213	0.05877
553.52348	0.05845
551.59483	0.05807
549.66617	0.05757
547.73752	0.05714
545.80887	0.05696
543.88021	0.05679
541.95156	0.05639
540.02291	0.05598
538.09425	0.05577
536.16560	0.05575
534.23695	0.05583
532.30829	0.05578
530.37964	0.05553
528.45099	0.05526
526.52233	0.05492
524.59368	0.05433
522.66503	0.05365
520.73637	0.05315
518.80772	0.05285
516.87907	0.05257
514.95042	0.05228
513.02176	0.05197
511.09311	0.05152
509.16446	0.05098
507.23580	0.05046
505.30715	0.04993
503.37850	0.04947
501.44984	0.04923
499.52119	0.04909
497.59254	0.04875
495.66388	0.04827
493.73523	0.04787
491.80658	0.04750
489.87792	0.04704
487.94927	0.04663
486.02062	0.04637
484.09196	0.04606
482.16331	0.04555
480.23466	0.04499
478.30600	0.04464
476.37735	0.04451
474.44870	0.04439
472.52004	0.04410
470.59139	0.04373
468.66274	0.04336
466.73408	0.04297
464.80543	0.04256
462.87678	0.04213
460.94812	0.04164
459.01947	0.04113
457.09082	0.04063
455.16216	0.04016
453.23351	0.03977
451.30486	0.03944
449.37620	0.03906
447.44755	0.03862
445.51890	0.03828
443.59025	0.03807
441.66159	0.03777
439.73294	0.03740
437.80429	0.03716
435.87563	0.03704
433.94698	0.03694
432.01833	0.03681
430.08967	0.03655
428.16102	0.03613
426.23237	0.03573
424.30371	0.03549
422.37506	0.03532
420.44641	0.03512
418.51775	0.03480
416.58910	0.03440
414.66045	0.03408
412.73179	0.03385
410.80314	0.03362
408.87449	0.03339
406.94583	0.03321
405.01718	0.03296
403.08853	0.03265
401.15987	0.03241
399.23122	0.03224
