3996.16951	0.04715
3994.24086	0.04741
3992.31220	0.04730
3990.38355	0.04706
3988.45490	0.04686
3986.52624	0.04661
3984.59759	0.04644
3982.66894	0.04649
3980.74028	0.04680
3978.81163	0.04718
3976.88298	0.04719
3974.95432	0.04689
3973.02567	0.04668
3971.09702	0.04647
3969.16836	0.04641
3967.23971	0.04679
3965.31106	0.04712
3963.38240	0.04700
3961.45375	0.04691
3959.52510	0.04716
3957.59645	0.04731
3955.66779	0.04702
3953.73914	0.04656
3951.81049	0.04640
3949.88183	0.04645
3947.95318	0.04622
3946.02453	0.04566
3944.09587	0.04521
3942.16722	0.04526
3940.23857	0.04564
3938.30991	0.04563
3936.38126	0.04512
3934.45261	0.04495
3932.52395	0.04537
3930.59530	0.04559
3928.66665	0.04528
3926.73799	0.04472
3924.80934	0.04417
3922.88069	0.04391
3920.95203	0.04390
3919.02338	0.04389
3917.09473	0.04401
3915.16607	0.04435
3913.23742	0.04463
3911.30877	0.04482
3909.38011	0.04487
3907.45146	0.04457
3905.52281	0.04426
3903.59415	0.04430
3901.66550	0.04449
3899.73685	0.04444
3897.80819	0.04415
3895.87954	0.04408
3893.95089	0.04452
3892.02224	0.04495
3890.09358	0.04458
3888.16493	0.04382
3886.23628	0.04372
3884.30762	0.04426
3882.37897	0.04451
3880.45032	0.04416
3878.52166	0.04388
3876.59301	0.04402
3874.66436	0.04401
3872.73570	0.04359
3870.80705	0.04346
3868.87840	0.04393
3866.94974	0.04443
3865.02109	0.04452
3863.09244	0.04431
3861.16378	0.04375
3859.23513	0.04279
3857.30648	0.04203
3855.37782	0.04203
3853.44917	0.04243
3851.52052	0.04279
3849.59186	0.04314
3847.66321	0.04320
3845.73456	0.04246
3843.80590	0.04125
3841.87725	0.04067
3839.94860	0.04127
3838.01994	0.04220
3836.09129	0.04242
3834.16264	0.04218
3832.23398	0.04205
3830.30533	0.04197
3828.37668	0.04180
3826.44803	0.04143
3824.51937	0.04091
3822.59072	0.04079
3820.66207	0.04139
3818.73341	0.04191
3816.80476	0.04174
3814.87611	0.04151
3812.94745	0.04155
3811.01880	0.04145
3809.09015	0.04104
3807.16149	0.04060
3805.23284	0.04020
3803.30419	0.03978
3801.37553	0.03976
3799.44688	0.04013
3797.51823	0.04017
3795.58957	0.03976
3793.66092	0.03963
3791.73227	0.04020
3789.80361	0.04094
3787.87496	0.04119
3785.94631	0.04091
3784.01765	0.04028
3782.08900	0.03968
3780.16035	0.03956
3778.23169	0.03957
3776.30304	0.03925
3774.37439	0.03925
3772.44573	0.03989
3770.51708	0.04035
3768.58843	0.04033
3766.65977	0.04011
3764.73112	0.03989
3762.80247	0.03993
3760.87381	0.03997
3758.94516	0.03974
3757.01651	0.03969
3755.08786	0.03979
3753.15920	0.03982
3751.23055	0.03992
3749.30190	0.03984
3747.37324	0.03934
3745.44459	0.03872
3743.51594	0.03833
3741.58728	0.03834
3739.65863	0.03843
3737.72998	0.03834
3735.80132	0.03833
3733.87267	0.03866
3731.94402	0.03863
3730.01536	0.03789
3728.08671	0.03740
3726.15806	0.03770
3724.22940	0.03796
3722.30075	0.03754
3720.37210	0.03683
3718.44344	0.03653
3716.51479	0.03663
3714.58614	0.03695
3712.65748	0.03729
3710.72883	0.03760
3708.80018	0.03781
3706.87152	0.03771
3704.94287	0.03744
3703.01422	0.03700
3701.08556	0.03635
3699.15691	0.03580
3697.22826	0.03582
3695.29960	0.03647
3693.37095	0.03714
3691.44230	0.03732
3689.51365	0.03725
3687.58499	0.03730
3685.65634	0.03749
3683.72769	0.03773
3681.79903	0.03786
3679.87038	0.03751
3677.94173	0.03675
3676.01307	0.03617
3674.08442	0.03603
3672.15577	0.03621
3670.22711	0.03668
3668.29846	0.03719
3666.36981	0.03714
3664.44115	0.03651
3662.51250	0.03620
3660.58385	0.03656
3658.65519	0.03704
3656.72654	0.03727
3654.79789	0.03727
3652.86923	0.03719
3650.94058	0.03750
3649.01193	0.03832
3647.08327	0.03906
3645.15462	0.03945
3643.22597	0.03950
3641.29731	0.03936
3639.36866	0.03937
3637.44001	0.03953
3635.51135	0.03962
3633.58270	0.03960
3631.65405	0.03954
3629.72539	0.03994
3627.79674	0.04049
3625.86809	0.04047
3623.93943	0.04003
3622.01078	0.04055
3620.08213	0.04198
3618.15348	0.04329
3616.22482	0.04387
3614.29617	0.04379
3612.36752	0.04377
3610.43886	0.04389
3608.51021	0.04362
3606.58156	0.04298
3604.65290	0.04284
3602.72425	0.04358
3600.79560	0.04486
3598.86694	0.04604
3596.93829	0.04656
3595.00964	0.04653
3593.08098	0.04639
3591.15233	0.04612
3589.22368	0.04581
3587.29502	0.04606
3585.36637	0.04718
3583.43772	0.04863
3581.50906	0.04953
3579.58041	0.04968
3577.65176	0.04984
3575.72310	0.05032
3573.79445	0.05078
3571.86580	0.05121
3569.93714	0.05163
3568.00849	0.05187
3566.07984	0.05202
3564.15118	0.05250
3562.22253	0.05322
3560.29388	0.05392
3558.36522	0.05472
3556.43657	0.05549
3554.50792	0.05574
3552.57927	0.05563
3550.65061	0.05573
3548.72196	0.05619
3546.79331	0.05672
3544.86465	0.05723
3542.93600	0.05786
3541.00735	0.05839
3539.07869	0.05856
3537.15004	0.05852
3535.22139	0.05862
3533.29273	0.05915
3531.36408	0.05997
3529.43543	0.06064
3527.50677	0.06117
3525.57812	0.06177
3523.64947	0.06217
3521.72081	0.06221
3519.79216	0.06228
3517.86351	0.06277
3515.93485	0.06353
3514.00620	0.06413
3512.07755	0.06445
3510.14889	0.06480
3508.22024	0.06547
3506.29159	0.06634
3504.36293	0.06699
3502.43428	0.06710
3500.50563	0.06688
3498.57697	0.06686
3496.64832	0.06717
3494.71967	0.06761
3492.79101	0.06824
3490.86236	0.06897
3488.93371	0.06947
3487.00506	0.06965
3485.07640	0.06976
3483.14775	0.06997
3481.21910	0.07025
3479.29044	0.07051
3477.36179	0.07081
3475.43314	0.07116
3473.50448	0.07135
3471.57583	0.07138
3469.64718	0.07171
3467.71852	0.07263
3465.78987	0.07363
3463.86122	0.07406
3461.93256	0.07407
3460.00391	0.07433
3458.07526	0.07496
3456.14660	0.07531
3454.21795	0.07520
3452.28930	0.07521
3450.36064	0.07567
3448.43199	0.07640
3446.50334	0.07697
3444.57468	0.07697
3442.64603	0.07675
3440.71738	0.07686
3438.78872	0.07715
3436.86007	0.07754
3434.93142	0.07810
3433.00276	0.07872
3431.07411	0.07927
3429.14546	0.07961
3427.21680	0.07959
3425.28815	0.07952
3423.35950	0.07975
3421.43084	0.08019
3419.50219	0.08051
3417.57354	0.08055
3415.64489	0.08093
3413.71623	0.08184
3411.78758	0.08239
3409.85893	0.08242
3407.93027	0.08259
3406.00162	0.08288
3404.07297	0.08298
3402.14431	0.08316
3400.21566	0.08358
3398.28701	0.08389
3396.35835	0.08414
3394.42970	0.08456
3392.50105	0.08486
3390.57239	0.08492
3388.64374	0.08519
3386.71509	0.08567
3384.78643	0.08592
3382.85778	0.08594
3380.92913	0.08606
3379.00047	0.08631
3377.07182	0.08656
3375.14317	0.08689
3373.21451	0.08736
3371.28586	0.08782
3369.35721	0.08837
3367.42855	0.08909
3365.49990	0.08996
3363.57125	0.09078
3361.64259	0.09135
3359.71394	0.09181
3357.78529	0.09244
3355.85663	0.09336
3353.92798	0.09444
3351.99933	0.09544
3350.07068	0.09623
3348.14202	0.09691
3346.21337	0.09763
3344.28472	0.09816
3342.35606	0.09856
3340.42741	0.09909
3338.49876	0.09970
3336.57010	0.10036
3334.64145	0.10105
3332.71280	0.10161
3330.78414	0.10215
3328.85549	0.10294
3326.92684	0.10377
3324.99818	0.10414
3323.06953	0.10409
3321.14088	0.10404
3319.21222	0.10418
3317.28357	0.10437
3315.35492	0.10455
3313.42626	0.10469
3311.49761	0.10484
3309.56896	0.10511
3307.64030	0.10542
3305.71165	0.10547
3303.78300	0.10529
3301.85434	0.10528
3299.92569	0.10564
3297.99704	0.10605
3296.06838	0.10612
3294.13973	0.10594
3292.21108	0.10574
3290.28242	0.10561
3288.35377	0.10542
3286.42512	0.10522
3284.49646	0.10519
3282.56781	0.10522
3280.63916	0.10511
3278.71051	0.10488
3276.78185	0.10454
3274.85320	0.10404
3272.92455	0.10332
3270.99589	0.10256
3269.06724	0.10212
3267.13859	0.10208
3265.20993	0.10199
3263.28128	0.10145
3261.35263	0.10065
3259.42397	0.10006
3257.49532	0.09976
3255.56667	0.09946
3253.63801	0.09883
3251.70936	0.09795
3249.78071	0.09714
3247.85205	0.09645
3245.92340	0.09607
3243.99475	0.09601
3242.06609	0.09578
3240.13744	0.09525
3238.20879	0.09486
3236.28013	0.09470
3234.35148	0.09446
3232.42283	0.09406
3230.49417	0.09353
3228.56552	0.09306
3226.63687	0.09271
3224.70821	0.09220
3222.77956	0.09193
3220.85091	0.09242
3218.92225	0.09303
3216.99360	0.09283
3215.06495	0.09191
3213.13630	0.09099
3211.20764	0.09041
3209.27899	0.08997
3207.35034	0.08955
3205.42168	0.08922
3203.49303	0.08909
3201.56438	0.08913
3199.63572	0.08898
3197.70707	0.08845
3195.77842	0.08776
3193.84976	0.08689
3191.92111	0.08598
3189.99246	0.08562
3188.06380	0.08579
3186.13515	0.08578
3184.20650	0.08526
3182.27784	0.08453
3180.34919	0.08389
3178.42054	0.08325
3176.49188	0.08245
3174.56323	0.08181
3172.63458	0.08165
3170.70592	0.08147
3168.77727	0.08078
3166.84862	0.07987
3164.91996	0.07907
3162.99131	0.07832
3161.06266	0.07781
3159.13400	0.07775
3157.20535	0.07759
3155.27670	0.07688
3153.34804	0.07609
3151.41939	0.07565
3149.49074	0.07520
3147.56209	0.07449
3145.63343	0.07379
3143.70478	0.07330
3141.77613	0.07302
3139.84747	0.07277
3137.91882	0.07247
3135.99017	0.07218
3134.06151	0.07182
3132.13286	0.07137
3130.20421	0.07101
3128.27555	0.07085
3126.34690	0.07077
3124.41825	0.07055
3122.48959	0.06999
3120.56094	0.06929
3118.63229	0.06907
3116.70363	0.06924
3114.77498	0.06916
3112.84633	0.06886
3110.91767	0.06884
3108.98902	0.06914
3107.06037	0.06955
3105.13171	0.07006
3103.20306	0.07041
3101.27441	0.07036
3099.34575	0.07007
3097.41710	0.06977
3095.48845	0.06959
3093.55979	0.06975
3091.63114	0.07023
3089.70249	0.07069
3087.77383	0.07086
3085.84518	0.07087
3083.91653	0.07098
3081.98787	0.07123
3080.05922	0.07131
3078.13057	0.07120
3076.20192	0.07118
3074.27326	0.07121
3072.34461	0.07105
3070.41596	0.07085
3068.48730	0.07077
3066.55865	0.07061
3064.63000	0.07034
3062.70134	0.07014
3060.77269	0.06997
3058.84404	0.06966
3056.91538	0.06926
3054.98673	0.06887
3053.05808	0.06836
3051.12942	0.06773
3049.20077	0.06718
3047.27212	0.06677
3045.34346	0.06630
3043.41481	0.06581
3041.48616	0.06546
3039.55750	0.06514
3037.62885	0.06468
3035.70020	0.06420
3033.77154	0.06384
3031.84289	0.06341
3029.91424	0.06286
3027.98558	0.06239
3026.05693	0.06207
3024.12828	0.06172
3022.19962	0.06123
3020.27097	0.06069
3018.34232	0.06019
3016.41366	0.05980
3014.48501	0.05971
3012.55636	0.05987
3010.62771	0.05989
3008.69905	0.05963
3006.77040	0.05936
3004.84175	0.05924
3002.91309	0.05927
3000.98444	0.05942
2999.05579	0.05956
2997.12713	0.05958
2995.19848	0.05971
2993.26983	0.05996
2991.34117	0.06023
2989.41252	0.06056
2987.48387	0.06082
2985.55521	0.06097
2983.62656	0.06131
2981.69791	0.06188
2979.76925	0.06241
2977.84060	0.06282
2975.91195	0.06314
2973.98329	0.06353
2972.05464	0.06399
2970.12599	0.06436
2968.19733	0.06472
2966.26868	0.06519
2964.34003	0.06570
2962.41137	0.06615
2960.48272	0.06648
2958.55407	0.06672
2956.62541	0.06687
2954.69676	0.06688
2952.76811	0.06674
2950.83945	0.06651
2948.91080	0.06644
2946.98215	0.06671
2945.05349	0.06703
2943.12484	0.06724
2941.19619	0.06764
2939.26754	0.06832
2937.33888	0.06893
2935.41023	0.06914
2933.48158	0.06912
2931.55292	0.06915
2929.62427	0.06931
2927.69562	0.06962
2925.76696	0.06982
2923.83831	0.06976
2921.90966	0.06940
2919.98100	0.06876
2918.05235	0.06816
2916.12370	0.06743
2914.19504	0.06623
2912.26639	0.06490
2910.33774	0.06386
2908.40908	0.06299
2906.48043	0.06216
2904.55178	0.06142
2902.62312	0.06085
2900.69447	0.06050
2898.76582	0.06021
2896.83716	0.05992
2894.90851	0.05963
2892.97986	0.05925
2891.05120	0.05897
2889.12255	0.05900
2887.19390	0.05909
2885.26524	0.05902
2883.33659	0.05897
2881.40794	0.05900
2879.47928	0.05891
2877.55063	0.05869
2875.62198	0.05845
2873.69333	0.05822
2871.76467	0.05803
2869.83602	0.05789
2867.90737	0.05774
2865.97871	0.05747
2864.05006	0.05705
2862.12141	0.05650
2860.19275	0.05606
2858.26410	0.05594
2856.33545	0.05611
2854.40679	0.05638
2852.47814	0.05644
2850.54949	0.05603
2848.62083	0.05526
2846.69218	0.05439
2844.76353	0.05361
2842.83487	0.05292
2840.90622	0.05235
2838.97757	0.05189
2837.04891	0.05139
2835.12026	0.05086
2833.19161	0.05055
2831.26295	0.05044
2829.33430	0.05021
2827.40565	0.04978
2825.47699	0.04944
2823.54834	0.04915
2821.61969	0.04887
2819.69103	0.04882
2817.76238	0.04883
2815.83373	0.04857
2813.90507	0.04825
2811.97642	0.04813
2810.04777	0.04808
2808.11912	0.04790
2806.19046	0.04767
2804.26181	0.04742
2802.33316	0.04715
2800.40450	0.04713
2798.47585	0.04729
2796.54720	0.04717
2794.61854	0.04669
2792.68989	0.04629
2790.76124	0.04620
2788.83258	0.04619
2786.90393	0.04603
2784.97528	0.04575
2783.04662	0.04552
2781.11797	0.04528
2779.18932	0.04495
2777.26066	0.04468
2775.33201	0.04471
2773.40336	0.04499
2771.47470	0.04515
2769.54605	0.04498
2767.61740	0.04460
2765.68874	0.04425
2763.76009	0.04411
2761.83144	0.04414
2759.90278	0.04410
2757.97413	0.04396
2756.04548	0.04388
2754.11682	0.04382
2752.18817	0.04363
2750.25952	0.04337
2748.33086	0.04313
2746.40221	0.04295
2744.47356	0.04283
2742.54490	0.04277
2740.61625	0.04267
2738.68760	0.04246
2736.75895	0.04228
2734.83029	0.04226
2732.90164	0.04224
2730.97299	0.04209
2729.04433	0.04188
2727.11568	0.04178
2725.18703	0.04185
2723.25837	0.04190
2721.32972	0.04179
2719.40107	0.04157
2717.47241	0.04123
2715.54376	0.04088
2713.61511	0.04070
2711.68645	0.04071
2709.75780	0.04070
2707.82915	0.04055
2705.90049	0.04033
2703.97184	0.04021
2702.04319	0.04024
2700.11453	0.04021
2698.18588	0.04011
2696.25723	0.04004
2694.32857	0.03982
2692.39992	0.03952
2690.47127	0.03944
2688.54261	0.03954
2686.61396	0.03953
2684.68531	0.03938
2682.75665	0.03928
2680.82800	0.03933
2678.89935	0.03931
2676.97069	0.03912
2675.04204	0.03894
2673.11339	0.03884
2671.18474	0.03876
2669.25608	0.03864
2667.32743	0.03854
2665.39878	0.03852
2663.47012	0.03851
2661.54147	0.03837
2659.61282	0.03804
2657.68416	0.03759
2655.75551	0.03719
2653.82686	0.03702
2651.89820	0.03706
2649.96955	0.03700
2648.04090	0.03664
2646.11224	0.03624
2644.18359	0.03592
2642.25494	0.03562
2640.32628	0.03543
2638.39763	0.03538
2636.46898	0.03523
2634.54032	0.03493
2632.61167	0.03462
2630.68302	0.03440
2628.75436	0.03422
2626.82571	0.03404
2624.89706	0.03402
2622.96840	0.03414
2621.03975	0.03412
2619.11110	0.03390
2617.18244	0.03374
2615.25379	0.03370
2613.32514	0.03363
2611.39648	0.03335
2609.46783	0.03275
2607.53918	0.03205
2605.61052	0.03162
2603.68187	0.03164
2601.75322	0.03197
2599.82457	0.03217
2597.89591	0.03189
2595.96726	0.03152
2594.03861	0.03155
2592.10995	0.03190
2590.18130	0.03193
2588.25265	0.03128
2586.32399	0.03048
2584.39534	0.03012
2582.46669	0.03008
2580.53803	0.03010
2578.60938	0.03009
2576.68073	0.03007
2574.75207	0.03020
2572.82342	0.03044
2570.89477	0.03041
2568.96611	0.03008
2567.03746	0.02978
2565.10881	0.02960
2563.18015	0.02953
2561.25150	0.02960
2559.32285	0.02976
2557.39419	0.02997
2555.46554	0.03016
2553.53689	0.03001
2551.60823	0.02946
2549.67958	0.02919
2547.75093	0.02938
2545.82227	0.02962
2543.89362	0.02966
2541.96497	0.02934
2540.03631	0.02884
2538.10766	0.02845
2536.17901	0.02815
2534.25036	0.02819
2532.32170	0.02864
2530.39305	0.02887
2528.46440	0.02868
2526.53574	0.02847
2524.60709	0.02837
2522.67844	0.02827
2520.74978	0.02810
2518.82113	0.02785
2516.89248	0.02758
2514.96382	0.02736
2513.03517	0.02717
2511.10652	0.02710
2509.17786	0.02722
2507.24921	0.02741
2505.32056	0.02748
2503.39190	0.02743
2501.46325	0.02735
2499.53460	0.02720
2497.60594	0.02705
2495.67729	0.02729
2493.74864	0.02774
2491.81998	0.02771
2489.89133	0.02710
2487.96268	0.02663
2486.03402	0.02684
2484.10537	0.02739
2482.17672	0.02764
2480.24806	0.02741
2478.31941	0.02696
2476.39076	0.02665
2474.46210	0.02643
2472.53345	0.02606
2470.60480	0.02585
2468.67615	0.02601
2466.74749	0.02615
2464.81884	0.02620
2462.89019	0.02639
2460.96153	0.02653
2459.03288	0.02642
2457.10423	0.02618
2455.17557	0.02581
2453.24692	0.02531
2451.31827	0.02516
2449.38961	0.02545
2447.46096	0.02556
2445.53231	0.02541
2443.60365	0.02537
2441.67500	0.02530
2439.74635	0.02521
2437.81769	0.02534
2435.88904	0.02560
2433.96039	0.02577
2432.03173	0.02562
2430.10308	0.02529
2428.17443	0.02515
2426.24577	0.02529
2424.31712	0.02562
2422.38847	0.02587
2420.45981	0.02579
2418.53116	0.02574
2416.60251	0.02588
2414.67385	0.02575
2412.74520	0.02546
2410.81655	0.02552
2408.88789	0.02581
2406.95924	0.02594
2405.03059	0.02574
2403.10193	0.02543
2401.17328	0.02542
2399.24463	0.02571
2397.31598	0.02569
2395.38732	0.02568
2393.45867	0.02604
2391.53002	0.02636
2389.60136	0.02635
2387.67271	0.02632
2385.74406	0.02639
2383.81540	0.02640
2381.88675	0.02620
2379.95810	0.02621
2378.02944	0.02655
2376.10079	0.02744
2374.17214	0.02804
2372.24348	0.02746
2370.31483	0.02493
2368.38618	0.02789
2366.45752	0.02819
2364.52887	0.02820
2362.60022	0.02597
2360.67156	0.02765
2358.74291	0.02318
2356.81426	0.02762
2354.88560	0.02700
2352.95695	0.02509
2351.02830	0.02689
2349.09964	0.02705
2347.17099	0.02699
2345.24234	0.02747
2343.31368	0.02736
2341.38503	0.02428
2339.45638	0.02171
2337.52772	0.02425
2335.59907	0.02755
2333.67042	0.02850
2331.74177	0.02862
2329.81311	0.02865
2327.88446	0.02809
2325.95581	0.02710
2324.02715	0.02603
2322.09850	0.02520
2320.16985	0.02466
2318.24119	0.02418
2316.31254	0.02366
2314.38389	0.02320
2312.45523	0.02305
2310.52658	0.02331
2308.59793	0.02374
2306.66927	0.02374
2304.74062	0.02320
2302.81197	0.02283
2300.88331	0.02261
2298.95466	0.02265
2297.02601	0.02253
2295.09735	0.02213
2293.16870	0.02165
2291.24005	0.02143
2289.31139	0.02121
2287.38274	0.02077
2285.45409	0.02011
2283.52543	0.01959
2281.59678	0.01957
2279.66813	0.01982
2277.73947	0.01984
2275.81082	0.01953
2273.88217	0.01908
2271.95351	0.01887
2270.02486	0.01908
2268.09621	0.01925
2266.16755	0.01905
2264.23890	0.01902
2262.31025	0.01951
2260.38160	0.01970
2258.45294	0.01893
2256.52429	0.01793
2254.59564	0.01761
2252.66698	0.01773
2250.73833	0.01766
2248.80968	0.01720
2246.88102	0.01741
2244.95237	0.01781
2243.02372	0.01806
2241.09506	0.01796
2239.16641	0.01755
2237.23776	0.01686
2235.30910	0.01624
2233.38045	0.01632
2231.45180	0.01689
2229.52314	0.01742
2227.59449	0.01763
2225.66584	0.01722
2223.73718	0.01674
2221.80853	0.01658
2219.87988	0.01606
2217.95122	0.01530
2216.02257	0.01473
2214.09392	0.01419
2212.16526	0.01376
2210.23661	0.01342
2208.30796	0.01356
2206.37930	0.01437
2204.45065	0.01447
2202.52200	0.01335
2200.59334	0.01243
2198.66469	0.01254
2196.73604	0.01314
2194.80739	0.01336
2192.87873	0.01303
2190.95008	0.01277
2189.02143	0.01287
2187.09277	0.01283
2185.16412	0.01233
2183.23547	0.01180
2181.30681	0.01162
2179.37816	0.01188
2177.44951	0.01247
2175.52085	0.01253
2173.59220	0.01152
2171.66355	0.01033
2169.73489	0.01008
2167.80624	0.01049
2165.87759	0.00956
2163.94893	0.00710
2162.02028	0.00591
2160.09163	0.00700
2158.16297	0.00896
2156.23432	0.01107
2154.30567	0.01249
2152.37701	0.01231
2150.44836	0.01150
2148.51971	0.01138
2146.59105	0.01222
2144.66240	0.01367
2142.73375	0.01488
2140.80509	0.01554
2138.87644	0.01592
2136.94779	0.01607
2135.01913	0.01615
2133.09048	0.01631
2131.16183	0.01659
2129.23318	0.01687
2127.30452	0.01699
2125.37587	0.01718
2123.44722	0.01742
2121.51856	0.01714
2119.58991	0.01652
2117.66126	0.01605
2115.73260	0.01568
2113.80395	0.01550
2111.87530	0.01575
2109.94664	0.01596
2108.01799	0.01587
2106.08934	0.01576
2104.16068	0.01558
2102.23203	0.01516
2100.30338	0.01505
2098.37472	0.01504
2096.44607	0.01529
2094.51742	0.01567
2092.58876	0.01595
2090.66011	0.01589
2088.73146	0.01553
2086.80280	0.01504
2084.87415	0.01489
2082.94550	0.01501
2081.01684	0.01483
2079.08819	0.01387
2077.15954	0.01259
2075.23088	0.01191
2073.30223	0.01186
2071.37358	0.01168
2069.44492	0.01116
2067.51627	0.01087
2065.58762	0.01090
2063.65896	0.01088
2061.73031	0.01121
2059.80166	0.01206
2057.87301	0.01254
2055.94435	0.01232
2054.01570	0.01202
2052.08705	0.01169
2050.15839	0.01079
2048.22974	0.00947
2046.30109	0.00858
2044.37243	0.00811
2042.44378	0.00737
2040.51513	0.00650
2038.58647	0.00598
2036.65782	0.00594
2034.72917	0.00657
2032.80051	0.00740
2030.87186	0.00770
2028.94321	0.00738
2027.01455	0.00667
2025.08590	0.00577
2023.15725	0.00511
2021.22859	0.00532
2019.29994	0.00645
2017.37129	0.00782
2015.44263	0.00911
2013.51398	0.01011
2011.58533	0.01014
2009.65667	0.00885
2007.72802	0.00746
2005.79937	0.00736
2003.87071	0.00817
2001.94206	0.00915
2000.01341	0.01021
1998.08475	0.01102
1996.15610	0.01121
1994.22745	0.01067
1992.29880	0.01000
1990.37014	0.01005
1988.44149	0.01041
1986.51284	0.01007
1984.58418	0.00922
1982.65553	0.00831
1980.72688	0.00662
1978.79822	0.00456
1976.86957	0.00399
1974.94092	0.00463
1973.01226	0.00509
1971.08361	0.00596
1969.15496	0.00761
1967.22630	0.00886
1965.29765	0.00950
1963.36900	0.01014
1961.44034	0.01047
1959.51169	0.01035
1957.58304	0.01031
1955.65438	0.01048
1953.72573	0.01034
1951.79708	0.00983
1949.86842	0.00969
1947.93977	0.01034
1946.01112	0.01128
1944.08246	0.01181
1942.15381	0.01193
1940.22516	0.01203
1938.29650	0.01186
1936.36785	0.01136
1934.43920	0.01130
1932.51054	0.01171
1930.58189	0.01190
1928.65324	0.01186
1926.72458	0.01199
1924.79593	0.01225
1922.86728	0.01259
1920.93863	0.01296
1919.00997	0.01308
1917.08132	0.01295
1915.15267	0.01276
1913.22401	0.01267
1911.29536	0.01275
1909.36671	0.01282
1907.43805	0.01286
1905.50940	0.01295
1903.58075	0.01293
1901.65209	0.01277
1899.72344	0.01274
1897.79479	0.01289
1895.86613	0.01301
1893.93748	0.01304
1892.00883	0.01316
1890.08017	0.01344
1888.15152	0.01363
1886.22287	0.01357
1884.29421	0.01339
1882.36556	0.01324
1880.43691	0.01328
1878.50825	0.01338
1876.57960	0.01326
1874.65095	0.01313
1872.72229	0.01318
1870.79364	0.01321
1868.86499	0.01310
1866.93633	0.01309
1865.00768	0.01319
1863.07903	0.01318
1861.15037	0.01307
1859.22172	0.01304
1857.29307	0.01327
1855.36442	0.01359
1853.43576	0.01364
1851.50711	0.01337
1849.57846	0.01310
1847.64980	0.01306
1845.72115	0.01317
1843.79250	0.01341
1841.86384	0.01369
1839.93519	0.01370
1838.00654	0.01354
1836.07788	0.01351
1834.14923	0.01350
1832.22058	0.01335
1830.29192	0.01320
1828.36327	0.01312
1826.43462	0.01302
1824.50596	0.01282
1822.57731	0.01249
1820.64866	0.01221
1818.72000	0.01233
1816.79135	0.01296
1814.86270	0.01361
1812.93404	0.01384
1811.00539	0.01377
1809.07674	0.01368
1807.14808	0.01361
1805.21943	0.01357
1803.29078	0.01354
1801.36212	0.01344
1799.43347	0.01330
1797.50482	0.01330
1795.57616	0.01339
1793.64751	0.01332
1791.71886	0.01320
1789.79021	0.01319
1787.86155	0.01318
1785.93290	0.01314
1784.00425	0.01313
1782.07559	0.01309
1780.14694	0.01301
1778.21829	0.01294
1776.28963	0.01290
1774.36098	0.01297
1772.43233	0.01317
1770.50367	0.01336
1768.57502	0.01341
1766.64637	0.01342
1764.71771	0.01351
1762.78906	0.01357
1760.86041	0.01356
1758.93175	0.01359
1757.00310	0.01379
1755.07445	0.01408
1753.14579	0.01430
1751.21714	0.01445
1749.28849	0.01473
1747.35983	0.01516
1745.43118	0.01554
1743.50253	0.01590
1741.57387	0.01629
1739.64522	0.01662
1737.71657	0.01682
1735.78791	0.01701
1733.85926	0.01736
1731.93061	0.01779
1730.00195	0.01819
1728.07330	0.01863
1726.14465	0.01912
1724.21599	0.01958
1722.28734	0.01994
1720.35869	0.02020
1718.43004	0.02048
1716.50138	0.02101
1714.57273	0.02183
1712.64408	0.02286
1710.71542	0.02405
1708.78677	0.02538
1706.85812	0.02689
1704.92946	0.02869
1703.00081	0.03085
1701.07216	0.03345
1699.14350	0.03643
1697.21485	0.03959
1695.28620	0.04284
1693.35754	0.04611
1691.42889	0.04931
1689.50024	0.05256
1687.57158	0.05593
1685.64293	0.05944
1683.71428	0.06325
1681.78562	0.06744
1679.85697	0.07194
1677.92832	0.07672
1675.99966	0.08170
1674.07101	0.08688
1672.14236	0.09224
1670.21370	0.09773
1668.28505	0.10315
1666.35640	0.10832
1664.42774	0.11325
1662.49909	0.11795
1660.57044	0.12225
1658.64178	0.12594
1656.71313	0.12896
1654.78448	0.13146
1652.85583	0.13366
1650.92717	0.13559
1648.99852	0.13711
1647.06987	0.13829
1645.14121	0.13930
1643.21256	0.14018
1641.28391	0.14087
1639.35525	0.14132
1637.42660	0.14151
1635.49795	0.14147
1633.56929	0.14109
1631.64064	0.14007
1629.71199	0.13817
1627.78333	0.13528
1625.85468	0.13138
1623.92603	0.12665
1621.99737	0.12143
1620.06872	0.11597
1618.14007	0.11040
1616.21141	0.10493
1614.28276	0.09978
1612.35411	0.09495
1610.42545	0.09040
1608.49680	0.08609
1606.56815	0.08207
1604.63949	0.07843
1602.71084	0.07515
1600.78219	0.07226
1598.85353	0.06979
1596.92488	0.06780
1594.99623	0.06621
1593.06757	0.06495
1591.13892	0.06405
1589.21027	0.06348
1587.28161	0.06319
1585.35296	0.06313
1583.42431	0.06337
1581.49566	0.06401
1579.56700	0.06507
1577.63835	0.06644
1575.70970	0.06814
1573.78104	0.07027
1571.85239	0.07280
1569.92374	0.07567
1567.99508	0.07883
1566.06643	0.08213
1564.13778	0.08541
1562.20912	0.08853
1560.28047	0.09159
1558.35182	0.09469
1556.42316	0.09764
1554.49451	0.10014
1552.56586	0.10210
1550.63720	0.10354
1548.70855	0.10460
1546.77990	0.10544
1544.85124	0.10597
1542.92259	0.10600
1540.99394	0.10560
1539.06528	0.10505
1537.13663	0.10445
1535.20798	0.10364
1533.27932	0.10257
1531.35067	0.10131
1529.42202	0.09991
1527.49336	0.09837
1525.56471	0.09665
1523.63606	0.09481
1521.70740	0.09298
1519.77875	0.09124
1517.85010	0.08942
1515.92145	0.08732
1513.99279	0.08490
1512.06414	0.08225
1510.13549	0.07940
1508.20683	0.07635
1506.27818	0.07328
1504.34953	0.07037
1502.42087	0.06757
1500.49222	0.06477
1498.56357	0.06208
1496.63491	0.05957
1494.70626	0.05717
1492.77761	0.05486
1490.84895	0.05282
1488.92030	0.05119
1486.99165	0.04996
1485.06299	0.04910
1483.13434	0.04863
1481.20569	0.04857
1479.27703	0.04889
1477.34838	0.04950
1475.41973	0.05040
1473.49107	0.05170
1471.56242	0.05330
1469.63377	0.05504
1467.70511	0.05679
1465.77646	0.05852
1463.84781	0.06025
1461.91915	0.06200
1459.99050	0.06364
1458.06185	0.06514
1456.13319	0.06650
1454.20454	0.06759
1452.27589	0.06820
1450.34724	0.06823
1448.41858	0.06779
1446.48993	0.06707
1444.56128	0.06621
1442.63262	0.06526
1440.70397	0.06420
1438.77532	0.06295
1436.84666	0.06147
1434.91801	0.05981
1432.98936	0.05819
1431.06070	0.05687
1429.13205	0.05594
1427.20340	0.05536
1425.27474	0.05504
1423.34609	0.05489
1421.41744	0.05477
1419.48878	0.05467
1417.56013	0.05467
1415.63148	0.05478
1413.70282	0.05502
1411.77417	0.05541
1409.84552	0.05592
1407.91686	0.05649
1405.98821	0.05701
1404.05956	0.05734
1402.13090	0.05742
1400.20225	0.05732
1398.27360	0.05712
1396.34494	0.05685
1394.41629	0.05652
1392.48764	0.05619
1390.55898	0.05589
1388.63033	0.05564
1386.70168	0.05543
1384.77302	0.05522
1382.84437	0.05490
1380.91572	0.05447
1378.98707	0.05398
1377.05841	0.05346
1375.12976	0.05280
1373.20111	0.05195
1371.27245	0.05100
1369.34380	0.05002
1367.41515	0.04901
1365.48649	0.04804
1363.55784	0.04722
1361.62919	0.04663
1359.70053	0.04625
1357.77188	0.04605
1355.84323	0.04612
1353.91457	0.04647
1351.98592	0.04703
1350.05727	0.04774
1348.12861	0.04861
1346.19996	0.04960
1344.27131	0.05056
1342.34265	0.05142
1340.41400	0.05209
1338.48535	0.05247
1336.55669	0.05258
1334.62804	0.05240
1332.69939	0.05185
1330.77073	0.05096
1328.84208	0.04996
1326.91343	0.04912
1324.98477	0.04855
1323.05612	0.04814
1321.12747	0.04784
1319.19881	0.04764
1317.27016	0.04749
1315.34151	0.04727
1313.41286	0.04693
1311.48420	0.04656
1309.55555	0.04619
1307.62690	0.04581
1305.69824	0.04545
1303.76959	0.04522
1301.84094	0.04507
1299.91228	0.04497
1297.98363	0.04496
1296.05498	0.04509
1294.12632	0.04538
1292.19767	0.04584
1290.26902	0.04647
1288.34036	0.04722
1286.41171	0.04795
1284.48306	0.04860
1282.55440	0.04920
1280.62575	0.04965
1278.69710	0.04981
1276.76844	0.04973
1274.83979	0.04964
1272.91114	0.04969
1270.98248	0.04990
1269.05383	0.05020
1267.12518	0.05062
1265.19652	0.05116
1263.26787	0.05173
1261.33922	0.05230
1259.41056	0.05301
1257.48191	0.05388
1255.55326	0.05484
1253.62460	0.05584
1251.69595	0.05690
1249.76730	0.05801
1247.83864	0.05916
1245.90999	0.06028
1243.98134	0.06135
1242.05269	0.06236
1240.12403	0.06317
1238.19538	0.06363
1236.26673	0.06376
1234.33807	0.06362
1232.40942	0.06313
1230.48077	0.06221
1228.55211	0.06095
1226.62346	0.05943
1224.69481	0.05768
1222.76615	0.05585
1220.83750	0.05417
1218.90885	0.05280
1216.98019	0.05179
1215.05154	0.05117
1213.12289	0.05085
1211.19423	0.05080
1209.26558	0.05101
1207.33693	0.05139
1205.40827	0.05165
1203.47962	0.05159
1201.55097	0.05124
1199.62231	0.05079
1197.69366	0.04980
1195.76501	0.04866
1193.83635	0.04751
1191.90770	0.04639
1189.97905	0.04532
1188.05039	0.04437
1186.12174	0.04356
1184.19309	0.04286
1182.26443	0.04236
1180.33578	0.04207
1178.40713	0.04187
1176.47848	0.04170
1174.54982	0.04162
1172.62117	0.04159
1170.69252	0.04156
1168.76386	0.04151
1166.83521	0.04148
1164.90656	0.04151
1162.97790	0.04154
1161.04925	0.04141
1159.12060	0.04095
1157.19194	0.04025
1155.26329	0.03954
1153.33464	0.03880
1151.40598	0.03799
1149.47733	0.03717
1147.54868	0.03640
1145.62002	0.03578
1143.69137	0.03529
1141.76272	0.03481
1139.83406	0.03437
1137.90541	0.03404
1135.97676	0.03377
1134.04810	0.03360
1132.11945	0.03357
1130.19080	0.03358
1128.26214	0.03357
1126.33349	0.03352
1124.40484	0.03345
1122.47618	0.03342
1120.54753	0.03338
1118.61888	0.03330
1116.69022	0.03331
1114.76157	0.03342
1112.83292	0.03356
1110.90427	0.03383
1108.97561	0.03427
1107.04696	0.03462
1105.11831	0.03480
1103.18965	0.03504
1101.26100	0.03547
1099.33235	0.03594
1097.40369	0.03632
1095.47504	0.03672
1093.54639	0.03722
1091.61773	0.03798
1089.68908	0.03903
1087.76043	0.04012
1085.83177	0.04108
1083.90312	0.04188
1081.97447	0.04251
1080.04581	0.04286
1078.11716	0.04287
1076.18851	0.04252
1074.25985	0.04196
1072.33120	0.04147
1070.40255	0.04115
1068.47389	0.04096
1066.54524	0.04088
1064.61659	0.04091
1062.68793	0.04091
1060.75928	0.04076
1058.83063	0.04051
1056.90197	0.04020
1054.97332	0.03978
1053.04467	0.03935
1051.11601	0.03896
1049.18736	0.03856
1047.25871	0.03822
1045.33005	0.03796
1043.40140	0.03781
1041.47275	0.03783
1039.54410	0.03801
1037.61544	0.03821
1035.68679	0.03843
1033.75814	0.03873
1031.82948	0.03890
1029.90083	0.03861
1027.97218	0.03791
1026.04352	0.03709
1024.11487	0.03635
1022.18622	0.03564
1020.25756	0.03492
1018.32891	0.03433
1016.40026	0.03393
1014.47160	0.03355
1012.54295	0.03303
1010.61430	0.03241
1008.68564	0.03182
1006.75699	0.03132
1004.82834	0.03085
1002.89968	0.03033
1000.97103	0.02979
999.04238	0.02931
997.11372	0.02893
995.18507	0.02865
993.25642	0.02838
991.32776	0.02810
989.39911	0.02790
987.47046	0.02777
985.54180	0.02762
983.61315	0.02743
981.68450	0.02732
979.75584	0.02729
977.82719	0.02727
975.89854	0.02731
973.96989	0.02742
972.04123	0.02742
970.11258	0.02722
968.18393	0.02697
966.25527	0.02673
964.32662	0.02645
962.39797	0.02620
960.46931	0.02603
958.54066	0.02591
956.61201	0.02576
954.68335	0.02551
952.75470	0.02529
950.82605	0.02518
948.89739	0.02511
946.96874	0.02506
945.04009	0.02513
943.11143	0.02536
941.18278	0.02557
939.25413	0.02560
937.32547	0.02550
935.39682	0.02545
933.46817	0.02546
931.53951	0.02540
929.61086	0.02527
927.68221	0.02517
925.75355	0.02514
923.82490	0.02519
921.89625	0.02516
919.96759	0.02497
918.03894	0.02474
916.11029	0.02461
914.18163	0.02459
912.25298	0.02455
910.32433	0.02438
908.39567	0.02419
906.46702	0.02407
904.53837	0.02392
902.60972	0.02367
900.68106	0.02346
898.75241	0.02352
896.82376	0.02376
894.89510	0.02383
892.96645	0.02368
891.03780	0.02351
889.10914	0.02348
887.18049	0.02349
885.25184	0.02344
883.32318	0.02338
881.39453	0.02346
879.46588	0.02363
877.53722	0.02370
875.60857	0.02371
873.67992	0.02372
871.75126	0.02368
869.82261	0.02362
867.89396	0.02354
865.96530	0.02338
864.03665	0.02326
862.10800	0.02326
860.17934	0.02327
858.25069	0.02327
856.32204	0.02340
854.39338	0.02361
852.46473	0.02375
850.53608	0.02379
848.60742	0.02376
846.67877	0.02376
844.75012	0.02381
842.82146	0.02383
840.89281	0.02375
838.96416	0.02363
837.03551	0.02360
835.10685	0.02367
833.17820	0.02371
831.24955	0.02375
829.32089	0.02379
827.39224	0.02385
825.46359	0.02404
823.53493	0.02438
821.60628	0.02475
819.67763	0.02503
817.74897	0.02527
815.82032	0.02556
813.89167	0.02580
811.96301	0.02588
810.03436	0.02587
808.10571	0.02588
806.17705	0.02600
804.24840	0.02619
802.31975	0.02644
800.39109	0.02671
798.46244	0.02695
796.53379	0.02718
794.60513	0.02747
792.67648	0.02780
790.74783	0.02807
788.81917	0.02815
786.89052	0.02817
784.96187	0.02829
783.03321	0.02848
781.10456	0.02877
779.17591	0.02915
777.24725	0.02946
775.31860	0.02966
773.38995	0.02983
771.46130	0.03003
769.53264	0.03024
767.60399	0.03046
765.67534	0.03070
763.74668	0.03100
761.81803	0.03128
759.88938	0.03148
757.96072	0.03170
756.03207	0.03201
754.10342	0.03231
752.17476	0.03261
750.24611	0.03299
748.31746	0.03335
746.38880	0.03356
744.46015	0.03367
742.53150	0.03385
740.60284	0.03404
738.67419	0.03425
736.74554	0.03455
734.81688	0.03482
732.88823	0.03509
730.95958	0.03556
729.03092	0.03600
727.10227	0.03618
725.17362	0.03636
723.24496	0.03695
721.31631	0.03716
719.38766	0.03730
717.45900	0.03756
715.53035	0.03782
713.60170	0.03798
711.67304	0.03820
709.74439	0.03855
707.81574	0.03890
705.88708	0.03921
703.95843	0.03951
702.02978	0.03975
700.10113	0.03987
698.17247	0.03995
696.24382	0.04006
694.31517	0.04013
692.38651	0.04008
690.45786	0.04009
688.52921	0.04042
686.60055	0.04085
684.67190	0.04113
682.74325	0.04133
680.81459	0.04157
678.88594	0.04196
676.95729	0.04220
675.02863	0.04234
673.09998	0.04256
671.17133	0.04293
669.24267	0.04306
667.31402	0.04278
665.38537	0.04328
663.45671	0.04335
661.52806	0.04337
659.59941	0.04353
657.67075	0.04379
655.74210	0.04386
653.81345	0.04378
651.88479	0.04378
649.95614	0.04404
648.02749	0.04425
646.09883	0.04432
644.17018	0.04431
642.24153	0.04431
640.31287	0.04436
638.38422	0.04445
636.45557	0.04455
634.52692	0.04459
632.59826	0.04446
630.66961	0.04508
628.74096	0.04813
626.81230	0.04431
624.88365	0.03902
622.95500	0.03632
621.02634	0.03649
619.09769	0.03796
617.16904	0.04161
615.24038	0.04696
613.31173	0.05042
611.38308	0.04997
609.45442	0.04766
607.52577	0.04529
605.59712	0.04279
603.66846	0.04191
601.73981	0.04316
599.81116	0.04425
597.88250	0.04451
595.95385	0.04467
594.02520	0.04491
592.09654	0.04523
590.16789	0.04541
588.23924	0.04514
586.31058	0.04476
584.38193	0.04464
582.45328	0.04464
580.52462	0.04474
578.59597	0.04505
576.66732	0.04532
574.73866	0.04523
572.81001	0.04473
570.88136	0.04405
568.95270	0.04377
567.02405	0.04410
565.09540	0.04445
563.16675	0.04453
561.23809	0.04469
559.30944	0.04491
557.38079	0.04498
555.45213	0.04508
553.52348	0.04545
551.59483	0.04576
549.66617	0.04560
547.73752	0.04510
545.80887	0.04468
543.88021	0.04439
541.95156	0.04415
540.02291	0.04405
538.09425	0.04414
536.16560	0.04433
534.23695	0.04453
532.30829	0.04449
530.37964	0.04419
528.45099	0.04388
526.52233	0.04366
524.59368	0.04342
522.66503	0.04317
520.73637	0.04292
518.80772	0.04257
516.87907	0.04217
514.95041	0.04191
513.02176	0.04182
511.09311	0.04165
509.16445	0.04135
507.23580	0.04104
505.30715	0.04080
503.37849	0.04060
501.44984	0.04042
499.52119	0.04020
497.59254	0.03993
495.66388	0.03966
493.73523	0.03934
491.80658	0.03886
489.87792	0.03828
487.94927	0.03775
486.02062	0.03740
484.09196	0.03724
482.16331	0.03716
480.23466	0.03708
478.30600	0.03698
476.37735	0.03681
474.44870	0.03650
472.52004	0.03601
470.59139	0.03552
468.66274	0.03519
466.73408	0.03502
464.80543	0.03488
462.87678	0.03462
460.94812	0.03422
459.01947	0.03374
457.09082	0.03331
455.16216	0.03302
453.23351	0.03281
451.30486	0.03254
449.37620	0.03221
447.44755	0.03195
445.51890	0.03185
443.59024	0.03175
441.66159	0.03148
439.73294	0.03111
437.80428	0.03084
435.87563	0.03068
433.94698	0.03053
432.01833	0.03040
430.08967	0.03021
428.16102	0.02995
426.23237	0.02969
424.30371	0.02940
422.37506	0.02909
420.44641	0.02881
418.51775	0.02859
416.58910	0.02845
414.66045	0.02831
412.73179	0.02815
410.80314	0.02795
408.87449	0.02774
406.94583	0.02762
405.01718	0.02754
403.08853	0.02735
401.15987	0.02714
399.23122	0.02701
