3997.45528	0.04303
3996.16951	0.04290
3994.88374	0.04264
3993.59798	0.04228
3992.31221	0.04198
3991.02644	0.04194
3989.74067	0.04227
3988.45490	0.04301
3987.16913	0.04399
3985.88336	0.04476
3984.59759	0.04492
3983.31183	0.04446
3982.02606	0.04369
3980.74029	0.04288
3979.45452	0.04211
3978.16875	0.04145
3976.88298	0.04115
3975.59721	0.04137
3974.31144	0.04200
3973.02567	0.04266
3971.73991	0.04297
3970.45414	0.04285
3969.16837	0.04252
3967.88260	0.04234
3966.59683	0.04251
3965.31106	0.04289
3964.02529	0.04313
3962.73952	0.04302
3961.45376	0.04264
3960.16799	0.04226
3958.88222	0.04206
3957.59645	0.04198
3956.31068	0.04183
3955.02491	0.04150
3953.73914	0.04107
3952.45337	0.04080
3951.16760	0.04079
3949.88184	0.04083
3948.59607	0.04057
3947.31030	0.03989
3946.02453	0.03915
3944.73876	0.03881
3943.45299	0.03900
3942.16722	0.03942
3940.88145	0.03974
3939.59569	0.03985
3938.30992	0.03993
3937.02415	0.04010
3935.73838	0.04034
3934.45261	0.04049
3933.16684	0.04054
3931.88107	0.04058
3930.59530	0.04063
3929.30953	0.04059
3928.02377	0.04036
3926.73800	0.04003
3925.45223	0.03984
3924.16646	0.03999
3922.88069	0.04050
3921.59492	0.04124
3920.30915	0.04188
3919.02338	0.04195
3917.73762	0.04119
3916.45185	0.03993
3915.16608	0.03887
3913.88031	0.03852
3912.59454	0.03877
3911.30877	0.03913
3910.02300	0.03925
3908.73723	0.03906
3907.45146	0.03877
3906.16570	0.03875
3904.87993	0.03930
3903.59416	0.04029
3902.30839	0.04117
3901.02262	0.04140
3899.73685	0.04096
3898.45108	0.04026
3897.16531	0.03971
3895.87955	0.03935
3894.59378	0.03896
3893.30801	0.03840
3892.02224	0.03790
3890.73647	0.03794
3889.45070	0.03870
3888.16493	0.03972
3886.87916	0.04035
3885.59339	0.04043
3884.30763	0.04036
3883.02186	0.04059
3881.73609	0.04112
3880.45032	0.04160
3879.16455	0.04166
3877.87878	0.04121
3876.59301	0.04045
3875.30724	0.03971
3874.02148	0.03926
3872.73571	0.03915
3871.44994	0.03929
3870.16417	0.03958
3868.87840	0.03990
3867.59263	0.04002
3866.30686	0.03977
3865.02109	0.03932
3863.73532	0.03917
3862.44956	0.03963
3861.16379	0.04048
3859.87802	0.04112
3858.59225	0.04114
3857.30648	0.04067
3856.02071	0.04016
3854.73494	0.03987
3853.44917	0.03978
3852.16341	0.03975
3850.87764	0.03970
3849.59187	0.03957
3848.30610	0.03931
3847.02033	0.03897
3845.73456	0.03869
3844.44879	0.03853
3843.16302	0.03842
3841.87725	0.03829
3840.59149	0.03826
3839.30572	0.03843
3838.01995	0.03867
3836.73418	0.03867
3835.44841	0.03837
3834.16264	0.03802
3832.87687	0.03794
3831.59110	0.03816
3830.30534	0.03841
3829.01957	0.03848
3827.73380	0.03837
3826.44803	0.03825
3825.16226	0.03832
3823.87649	0.03870
3822.59072	0.03927
3821.30495	0.03963
3820.01918	0.03946
3818.73342	0.03882
3817.44765	0.03812
3816.16188	0.03773
3814.87611	0.03768
3813.59034	0.03777
3812.30457	0.03785
3811.01880	0.03792
3809.73303	0.03803
3808.44726	0.03813
3807.16150	0.03814
3805.87573	0.03808
3804.58996	0.03810
3803.30419	0.03835
3802.01842	0.03873
3800.73265	0.03900
3799.44688	0.03902
3798.16111	0.03874
3796.87535	0.03822
3795.58958	0.03755
3794.30381	0.03692
3793.01804	0.03659
3791.73227	0.03659
3790.44650	0.03668
3789.16073	0.03654
3787.87496	0.03614
3786.58919	0.03570
3785.30343	0.03548
3784.01766	0.03557
3782.73189	0.03589
3781.44612	0.03626
3780.16035	0.03650
3778.87458	0.03656
3777.58881	0.03665
3776.30304	0.03698
3775.01728	0.03750
3773.73151	0.03790
3772.44574	0.03794
3771.15997	0.03776
3769.87420	0.03766
3768.58843	0.03781
3767.30266	0.03798
3766.01689	0.03787
3764.73112	0.03736
3763.44536	0.03664
3762.15959	0.03599
3760.87382	0.03558
3759.58805	0.03545
3758.30228	0.03554
3757.01651	0.03564
3755.73074	0.03545
3754.44497	0.03485
3753.15921	0.03408
3751.87344	0.03364
3750.58767	0.03395
3749.30190	0.03505
3748.01613	0.03657
3746.73036	0.03800
3745.44459	0.03885
3744.15882	0.03895
3742.87305	0.03839
3741.58729	0.03756
3740.30152	0.03704
3739.01575	0.03699
3737.72998	0.03711
3736.44421	0.03690
3735.15844	0.03623
3733.87267	0.03528
3732.58690	0.03463
3731.30114	0.03475
3730.01537	0.03523
3728.72960	0.03563
3727.44383	0.03564
3726.15806	0.03529
3724.87229	0.03492
3723.58652	0.03462
3722.30075	0.03437
3721.01498	0.03414
3719.72922	0.03398
3718.44345	0.03412
3717.15768	0.03462
3715.87191	0.03500
3714.58614	0.03467
3713.30037	0.03371
3712.01460	0.03291
3710.72883	0.03274
3709.44307	0.03293
3708.15730	0.03315
3706.87153	0.03364
3705.58576	0.03469
3704.29999	0.03515
3703.01422	0.03479
3701.72845	0.03474
3700.44268	0.03549
3699.15691	0.03536
3697.87115	0.03454
3696.58538	0.03478
3695.29961	0.03565
3694.01384	0.03585
3692.72807	0.03564
3691.44230	0.03532
3690.15653	0.03442
3688.87076	0.03365
3687.58500	0.03388
3686.29923	0.03413
3685.01346	0.03419
3683.72769	0.03452
3682.44192	0.03489
3681.15615	0.03534
3679.87038	0.03575
3678.58461	0.03584
3677.29884	0.03577
3676.01308	0.03546
3674.72731	0.03503
3673.44154	0.03493
3672.15577	0.03518
3670.87000	0.03559
3669.58423	0.03581
3668.29846	0.03570
3667.01269	0.03551
3665.72693	0.03536
3664.44116	0.03525
3663.15539	0.03509
3661.86962	0.03498
3660.58385	0.03507
3659.29808	0.03532
3658.01231	0.03546
3656.72654	0.03533
3655.44077	0.03514
3654.15501	0.03535
3652.86924	0.03624
3651.58347	0.03754
3650.29770	0.03866
3649.01193	0.03918
3647.72616	0.03919
3646.44039	0.03911
3645.15462	0.03916
3643.86886	0.03926
3642.58309	0.03915
3641.29732	0.03888
3640.01155	0.03874
3638.72578	0.03891
3637.44001	0.03931
3636.15424	0.03968
3634.86847	0.03982
3633.58270	0.03960
3632.29694	0.03920
3631.01117	0.03888
3629.72540	0.03890
3628.43963	0.03923
3627.15386	0.03967
3625.86809	0.04010
3624.58232	0.04073
3623.29655	0.04165
3622.01079	0.04261
3620.72502	0.04327
3619.43925	0.04360
3618.15348	0.04371
3616.86771	0.04383
3615.58194	0.04390
3614.29617	0.04387
3613.01040	0.04392
3611.72463	0.04422
3610.43887	0.04482
3609.15310	0.04557
3607.86733	0.04634
3606.58156	0.04731
3605.29579	0.04864
3604.01002	0.04956
3602.72425	0.04959
3601.43848	0.04916
3600.15272	0.04914
3598.86695	0.04892
3597.58118	0.04832
3596.29541	0.04807
3595.00964	0.04892
3593.72387	0.04972
3592.43810	0.05029
3591.15233	0.05122
3589.86656	0.05201
3588.58080	0.05218
3587.29503	0.05207
3586.00926	0.05211
3584.72349	0.05212
3583.43772	0.05238
3582.15195	0.05312
3580.86618	0.05401
3579.58041	0.05498
3578.29464	0.05600
3577.00888	0.05672
3575.72311	0.05720
3574.43734	0.05758
3573.15157	0.05800
3571.86580	0.05861
3570.58003	0.05924
3569.29426	0.05969
3568.00849	0.05990
3566.72273	0.05985
3565.43696	0.05977
3564.15119	0.05975
3562.86542	0.05975
3561.57965	0.05975
3560.29388	0.05989
3559.00811	0.06039
3557.72234	0.06122
3556.43657	0.06202
3555.15081	0.06239
3553.86504	0.06225
3552.57927	0.06198
3551.29350	0.06212
3550.00773	0.06287
3548.72196	0.06399
3547.43619	0.06506
3546.15042	0.06582
3544.86466	0.06632
3543.57889	0.06666
3542.29312	0.06691
3541.00735	0.06714
3539.72158	0.06750
3538.43581	0.06808
3537.15004	0.06879
3535.86427	0.06944
3534.57850	0.06993
3533.29274	0.07030
3532.00697	0.07067
3530.72120	0.07116
3529.43543	0.07183
3528.14966	0.07269
3526.86389	0.07353
3525.57812	0.07411
3524.29235	0.07431
3523.00659	0.07434
3521.72082	0.07445
3520.43505	0.07473
3519.14928	0.07513
3517.86351	0.07560
3516.57774	0.07616
3515.29197	0.07670
3514.00620	0.07703
3512.72043	0.07708
3511.43467	0.07697
3510.14890	0.07681
3508.86313	0.07669
3507.57736	0.07678
3506.29159	0.07735
3505.00582	0.07845
3503.72005	0.07975
3502.43428	0.08083
3501.14852	0.08153
3499.86275	0.08192
3498.57698	0.08205
3497.29121	0.08193
3496.00544	0.08169
3494.71967	0.08156
3493.43390	0.08178
3492.14813	0.08230
3490.86236	0.08291
3489.57660	0.08335
3488.29083	0.08356
3487.00506	0.08363
3485.71929	0.08375
3484.43352	0.08417
3483.14775	0.08498
3481.86198	0.08597
3480.57621	0.08675
3479.29045	0.08705
3478.00468	0.08698
3476.71891	0.08686
3475.43314	0.08693
3474.14737	0.08721
3472.86160	0.08760
3471.57583	0.08799
3470.29006	0.08831
3469.00429	0.08856
3467.71853	0.08877
3466.43276	0.08903
3465.14699	0.08931
3463.86122	0.08953
3462.57545	0.08967
3461.28968	0.08985
3460.00391	0.09023
3458.71814	0.09089
3457.43238	0.09172
3456.14661	0.09241
3454.86084	0.09272
3453.57507	0.09264
3452.28930	0.09246
3451.00353	0.09254
3449.71776	0.09301
3448.43199	0.09378
3447.14622	0.09452
3445.86046	0.09493
3444.57469	0.09490
3443.28892	0.09471
3442.00315	0.09475
3440.71738	0.09519
3439.43161	0.09576
3438.14584	0.09612
3436.86007	0.09620
3435.57431	0.09625
3434.28854	0.09651
3433.00277	0.09703
3431.71700	0.09770
3430.43123	0.09837
3429.14546	0.09891
3427.85969	0.09930
3426.57392	0.09957
3425.28815	0.09971
3424.00239	0.09970
3422.71662	0.09961
3421.43085	0.09963
3420.14508	0.09990
3418.85931	0.10026
3417.57354	0.10043
3416.28777	0.10036
3415.00200	0.10031
3413.71624	0.10064
3412.43047	0.10139
3411.14470	0.10229
3409.85893	0.10310
3408.57316	0.10368
3407.28739	0.10408
3406.00162	0.10446
3404.71585	0.10498
3403.43008	0.10563
3402.14432	0.10613
3400.85855	0.10622
3399.57278	0.10589
3398.28701	0.10536
3397.00124	0.10493
3395.71547	0.10482
3394.42970	0.10515
3393.14393	0.10592
3391.85817	0.10691
3390.57240	0.10777
3389.28663	0.10822
3388.00086	0.10826
3386.71509	0.10822
3385.42932	0.10844
3384.14355	0.10903
3382.85778	0.10978
3381.57201	0.11039
3380.28625	0.11072
3379.00048	0.11089
3377.71471	0.11110
3376.42894	0.11144
3375.14317	0.11186
3373.85740	0.11231
3372.57163	0.11279
3371.28586	0.11327
3370.00010	0.11368
3368.71433	0.11411
3367.42856	0.11479
3366.14279	0.11587
3364.85702	0.11710
3363.57125	0.11809
3362.28548	0.11863
3360.99971	0.11888
3359.71394	0.11912
3358.42818	0.11950
3357.14241	0.11997
3355.85664	0.12054
3354.57087	0.12130
3353.28510	0.12228
3351.99933	0.12328
3350.71356	0.12401
3349.42779	0.12446
3348.14202	0.12488
3346.85626	0.12550
3345.57049	0.12630
3344.28472	0.12707
3342.99895	0.12767
3341.71318	0.12815
3340.42741	0.12862
3339.14164	0.12916
3337.85587	0.12974
3336.57011	0.13030
3335.28434	0.13086
3333.99857	0.13144
3332.71280	0.13194
3331.42703	0.13221
3330.14126	0.13226
3328.85549	0.13228
3327.56972	0.13251
3326.28395	0.13298
3324.99819	0.13355
3323.71242	0.13409
3322.42665	0.13455
3321.14088	0.13497
3319.85511	0.13540
3318.56934	0.13585
3317.28357	0.13618
3315.99780	0.13628
3314.71204	0.13624
3313.42627	0.13632
3312.14050	0.13674
3310.85473	0.13746
3309.56896	0.13820
3308.28319	0.13865
3306.99742	0.13874
3305.71165	0.13866
3304.42588	0.13870
3303.14012	0.13905
3301.85435	0.13961
3300.56858	0.14010
3299.28281	0.14031
3297.99704	0.14024
3296.71127	0.14002
3295.42550	0.13983
3294.13973	0.13976
3292.85397	0.13989
3291.56820	0.14023
3290.28243	0.14064
3288.99666	0.14096
3287.71089	0.14111
3286.42512	0.14121
3285.13935	0.14126
3283.85358	0.14116
3282.56781	0.14078
3281.28205	0.14022
3279.99628	0.13974
3278.71051	0.13950
3277.42474	0.13950
3276.13897	0.13961
3274.85320	0.13967
3273.56743	0.13959
3272.28166	0.13937
3270.99590	0.13911
3269.71013	0.13897
3268.42436	0.13896
3267.13859	0.13886
3265.85282	0.13841
3264.56705	0.13756
3263.28128	0.13664
3261.99551	0.13605
3260.70974	0.13589
3259.42398	0.13584
3258.13821	0.13553
3256.85244	0.13491
3255.56667	0.13426
3254.28090	0.13387
3252.99513	0.13377
3251.70936	0.13381
3250.42359	0.13388
3249.13783	0.13393
3247.85206	0.13387
3246.56629	0.13350
3245.28052	0.13270
3243.99475	0.13160
3242.70898	0.13056
3241.42321	0.12991
3240.13744	0.12982
3238.85167	0.13013
3237.56591	0.13050
3236.28014	0.13061
3234.99437	0.13026
3233.70860	0.12957
3232.42283	0.12880
3231.13706	0.12814
3229.85129	0.12762
3228.56552	0.12712
3227.27976	0.12654
3225.99399	0.12592
3224.70822	0.12548
3223.42245	0.12541
3222.13668	0.12567
3220.85091	0.12595
3219.56514	0.12596
3218.27937	0.12566
3216.99360	0.12521
3215.70784	0.12479
3214.42207	0.12446
3213.13630	0.12427
3211.85053	0.12418
3210.56476	0.12410
3209.27899	0.12389
3207.99322	0.12359
3206.70745	0.12330
3205.42169	0.12310
3204.13592	0.12293
3202.85015	0.12268
3201.56438	0.12227
3200.27861	0.12175
3198.99284	0.12121
3197.70707	0.12069
3196.42130	0.12028
3195.13553	0.12006
3193.84977	0.12004
3192.56400	0.12004
3191.27823	0.11976
3189.99246	0.11905
3188.70669	0.11804
3187.42092	0.11709
3186.13515	0.11646
3184.84938	0.11612
3183.56362	0.11582
3182.27785	0.11537
3180.99208	0.11475
3179.70631	0.11406
3178.42054	0.11337
3177.13477	0.11270
3175.84900	0.11212
3174.56323	0.11169
3173.27746	0.11146
3171.99170	0.11141
3170.70593	0.11141
3169.42016	0.11128
3168.13439	0.11087
3166.84862	0.11020
3165.56285	0.10952
3164.27708	0.10909
3162.99131	0.10891
3161.70555	0.10882
3160.41978	0.10862
3159.13401	0.10823
3157.84824	0.10768
3156.56247	0.10699
3155.27670	0.10621
3153.99093	0.10540
3152.70516	0.10461
3151.41939	0.10392
3150.13363	0.10338
3148.84786	0.10292
3147.56209	0.10240
3146.27632	0.10172
3144.99055	0.10091
3143.70478	0.10008
3142.41901	0.09930
3141.13324	0.09864
3139.84748	0.09820
3138.56171	0.09806
3137.27594	0.09817
3135.99017	0.09837
3134.70440	0.09848
3133.41863	0.09842
3132.13286	0.09818
3130.84709	0.09778
3129.56132	0.09721
3128.27556	0.09657
3126.98979	0.09602
3125.70402	0.09569
3124.41825	0.09553
3123.13248	0.09545
3121.84671	0.09541
3120.56094	0.09541
3119.27517	0.09537
3117.98940	0.09524
3116.70364	0.09504
3115.41787	0.09486
3114.13210	0.09474
3112.84633	0.09470
3111.56056	0.09473
3110.27479	0.09476
3108.98902	0.09474
3107.70325	0.09465
3106.41749	0.09463
3105.13172	0.09480
3103.84595	0.09515
3102.56018	0.09550
3101.27441	0.09568
3099.98864	0.09570
3098.70287	0.09572
3097.41710	0.09581
3096.13133	0.09593
3094.84557	0.09601
3093.55980	0.09609
3092.27403	0.09622
3090.98826	0.09639
3089.70249	0.09647
3088.41672	0.09643
3087.13095	0.09634
3085.84518	0.09634
3084.55942	0.09652
3083.27365	0.09683
3081.98788	0.09715
3080.70211	0.09733
3079.41634	0.09734
3078.13057	0.09729
3076.84480	0.09734
3075.55903	0.09753
3074.27326	0.09772
3072.98750	0.09767
3071.70173	0.09732
3070.41596	0.09684
3069.13019	0.09653
3067.84442	0.09659
3066.55865	0.09691
3065.27288	0.09722
3063.98711	0.09727
3062.70135	0.09699
3061.41558	0.09643
3060.12981	0.09568
3058.84404	0.09487
3057.55827	0.09414
3056.27250	0.09362
3054.98673	0.09334
3053.70096	0.09329
3052.41519	0.09339
3051.12943	0.09345
3049.84366	0.09321
3048.55789	0.09251
3047.27212	0.09151
3045.98635	0.09059
3044.70058	0.09008
3043.41481	0.08999
3042.12904	0.09009
3040.84328	0.09008
3039.55751	0.08983
3038.27174	0.08931
3036.98597	0.08859
3035.70020	0.08781
3034.41443	0.08712
3033.12866	0.08660
3031.84289	0.08624
3030.55712	0.08590
3029.27136	0.08549
3027.98559	0.08501
3026.69982	0.08460
3025.41405	0.08434
3024.12828	0.08416
3022.84251	0.08388
3021.55674	0.08338
3020.27097	0.08267
3018.98521	0.08191
3017.69944	0.08129
3016.41367	0.08088
3015.12790	0.08064
3013.84213	0.08050
3012.55636	0.08042
3011.27059	0.08035
3009.98482	0.08027
3008.69905	0.08021
3007.41329	0.08022
3006.12752	0.08028
3004.84175	0.08030
3003.55598	0.08021
3002.27021	0.08002
3000.98444	0.07985
2999.69867	0.07987
2998.41290	0.08022
2997.12714	0.08083
2995.84137	0.08137
2994.55560	0.08151
2993.26983	0.08124
2991.98406	0.08083
2990.69829	0.08059
2989.41252	0.08068
2988.12675	0.08104
2986.84098	0.08154
2985.55522	0.08202
2984.26945	0.08242
2982.98368	0.08276
2981.69791	0.08310
2980.41214	0.08348
2979.12637	0.08391
2977.84060	0.08435
2976.55483	0.08477
2975.26907	0.08505
2973.98330	0.08512
2972.69753	0.08509
2971.41176	0.08518
2970.12599	0.08557
2968.84022	0.08620
2967.55445	0.08680
2966.26868	0.08716
2964.98291	0.08731
2963.69715	0.08742
2962.41138	0.08759
2961.12561	0.08777
2959.83984	0.08785
2958.55407	0.08781
2957.26830	0.08777
2955.98253	0.08785
2954.69676	0.08801
2953.41100	0.08811
2952.12523	0.08798
2950.83946	0.08758
2949.55369	0.08711
2948.26792	0.08681
2946.98215	0.08683
2945.69638	0.08708
2944.41061	0.08737
2943.12484	0.08754
2941.83908	0.08753
2940.55331	0.08744
2939.26754	0.08742
2937.98177	0.08757
2936.69600	0.08771
2935.41023	0.08759
2934.12446	0.08717
2932.83869	0.08674
2931.55293	0.08658
2930.26716	0.08667
2928.98139	0.08676
2927.69562	0.08663
2926.40985	0.08628
2925.12408	0.08583
2923.83831	0.08538
2922.55254	0.08493
2921.26677	0.08443
2919.98101	0.08390
2918.69524	0.08339
2917.40947	0.08297
2916.12370	0.08260
2914.83793	0.08226
2913.55216	0.08193
2912.26639	0.08160
2910.98062	0.08126
2909.69486	0.08086
2908.40909	0.08037
2907.12332	0.07980
2905.83755	0.07921
2904.55178	0.07867
2903.26601	0.07822
2901.98024	0.07788
2900.69447	0.07758
2899.40870	0.07720
2898.12294	0.07678
2896.83717	0.07653
2895.55140	0.07662
2894.26563	0.07689
2892.97986	0.07708
2891.69409	0.07706
2890.40832	0.07690
2889.12255	0.07666
2887.83678	0.07639
2886.55102	0.07614
2885.26525	0.07602
2883.97948	0.07609
2882.69371	0.07626
2881.40794	0.07642
2880.12217	0.07649
2878.83640	0.07651
2877.55063	0.07650
2876.26487	0.07645
2874.97910	0.07628
2873.69333	0.07594
2872.40756	0.07548
2871.12179	0.07502
2869.83602	0.07468
2868.55025	0.07446
2867.26448	0.07424
2865.97871	0.07385
2864.69295	0.07324
2863.40718	0.07250
2862.12141	0.07179
2860.83564	0.07124
2859.54987	0.07087
2858.26410	0.07062
2856.97833	0.07039
2855.69256	0.07007
2854.40680	0.06959
2853.12103	0.06897
2851.83526	0.06839
2850.54949	0.06804
2849.26372	0.06797
2847.97795	0.06798
2846.69218	0.06784
2845.40641	0.06753
2844.12064	0.06720
2842.83488	0.06692
2841.54911	0.06664
2840.26334	0.06631
2838.97757	0.06594
2837.69180	0.06562
2836.40603	0.06538
2835.12026	0.06520
2833.83449	0.06509
2832.54873	0.06505
2831.26296	0.06502
2829.97719	0.06497
2828.69142	0.06491
2827.40565	0.06490
2826.11988	0.06486
2824.83411	0.06469
2823.54834	0.06436
2822.26257	0.06392
2820.97681	0.06344
2819.69104	0.06299
2818.40527	0.06268
2817.11950	0.06251
2815.83373	0.06237
2814.54796	0.06216
2813.26219	0.06190
2811.97642	0.06170
2810.69066	0.06161
2809.40489	0.06159
2808.11912	0.06159
2806.83335	0.06157
2805.54758	0.06146
2804.26181	0.06125
2802.97604	0.06098
2801.69027	0.06077
2800.40450	0.06072
2799.11874	0.06082
2797.83297	0.06090
2796.54720	0.06082
2795.26143	0.06054
2793.97566	0.06017
2792.68989	0.05986
2791.40412	0.05966
2790.11835	0.05947
2788.83259	0.05919
2787.54682	0.05885
2786.26105	0.05861
2784.97528	0.05861
2783.68951	0.05881
2782.40374	0.05905
2781.11797	0.05916
2779.83220	0.05909
2778.54643	0.05886
2777.26067	0.05860
2775.97490	0.05841
2774.68913	0.05828
2773.40336	0.05813
2772.11759	0.05792
2770.83182	0.05767
2769.54605	0.05744
2768.26028	0.05725
2766.97452	0.05708
2765.68875	0.05690
2764.40298	0.05673
2763.11721	0.05658
2761.83144	0.05648
2760.54567	0.05641
2759.25990	0.05631
2757.97413	0.05618
2756.68836	0.05607
2755.40260	0.05601
2754.11683	0.05595
2752.83106	0.05585
2751.54529	0.05570
2750.25952	0.05552
2748.97375	0.05533
2747.68798	0.05509
2746.40221	0.05479
2745.11645	0.05451
2743.83068	0.05434
2742.54491	0.05430
2741.25914	0.05427
2739.97337	0.05408
2738.68760	0.05369
2737.40183	0.05324
2736.11606	0.05294
2734.83029	0.05283
2733.54453	0.05284
2732.25876	0.05290
2730.97299	0.05301
2729.68722	0.05317
2728.40145	0.05328
2727.11568	0.05322
2725.82991	0.05294
2724.54414	0.05258
2723.25838	0.05225
2721.97261	0.05197
2720.68684	0.05168
2719.40107	0.05136
2718.11530	0.05108
2716.82953	0.05096
2715.54376	0.05102
2714.25799	0.05116
2712.97222	0.05121
2711.68646	0.05108
2710.40069	0.05083
2709.11492	0.05061
2707.82915	0.05049
2706.54338	0.05046
2705.25761	0.05046
2703.97184	0.05048
2702.68607	0.05055
2701.40031	0.05061
2700.11454	0.05059
2698.82877	0.05044
2697.54300	0.05023
2696.25723	0.05007
2694.97146	0.05001
2693.68569	0.05003
2692.39992	0.05003
2691.11415	0.04997
2689.82839	0.04988
2688.54262	0.04980
2687.25685	0.04974
2685.97108	0.04963
2684.68531	0.04943
2683.39954	0.04916
2682.11377	0.04889
2680.82800	0.04869
2679.54224	0.04862
2678.25647	0.04868
2676.97070	0.04885
2675.68493	0.04903
2674.39916	0.04915
2673.11339	0.04919
2671.82762	0.04916
2670.54185	0.04907
2669.25608	0.04896
2667.97032	0.04885
2666.68455	0.04876
2665.39878	0.04870
2664.11301	0.04870
2662.82724	0.04878
2661.54147	0.04893
2660.25570	0.04907
2658.96993	0.04909
2657.68417	0.04896
2656.39840	0.04874
2655.11263	0.04852
2653.82686	0.04833
2652.54109	0.04815
2651.25532	0.04796
2649.96955	0.04779
2648.68378	0.04761
2647.39801	0.04737
2646.11225	0.04709
2644.82648	0.04682
2643.54071	0.04659
2642.25494	0.04633
2640.96917	0.04602
2639.68340	0.04570
2638.39763	0.04546
2637.11186	0.04532
2635.82609	0.04524
2634.54033	0.04520
2633.25456	0.04521
2631.96879	0.04524
2630.68302	0.04524
2629.39725	0.04517
2628.11148	0.04501
2626.82571	0.04477
2625.53994	0.04451
2624.25418	0.04430
2622.96841	0.04419
2621.68264	0.04419
2620.39687	0.04429
2619.11110	0.04441
2617.82533	0.04446
2616.53956	0.04440
2615.25379	0.04421
2613.96802	0.04385
2612.68226	0.04340
2611.39649	0.04310
2610.11072	0.04308
2608.82495	0.04319
2607.53918	0.04317
2606.25341	0.04300
2604.96764	0.04286
2603.68187	0.04282
2602.39611	0.04278
2601.11034	0.04267
2599.82457	0.04248
2598.53880	0.04223
2597.25303	0.04199
2595.96726	0.04184
2594.68149	0.04180
2593.39572	0.04173
2592.10995	0.04158
2590.82419	0.04144
2589.53842	0.04145
2588.25265	0.04149
2586.96688	0.04131
2585.68111	0.04086
2584.39534	0.04039
2583.10957	0.04015
2581.82380	0.04018
2580.53804	0.04032
2579.25227	0.04039
2577.96650	0.04044
2576.68073	0.04059
2575.39496	0.04084
2574.10919	0.04099
2572.82342	0.04078
2571.53765	0.04026
2570.25188	0.03974
2568.96612	0.03947
2567.68035	0.03946
2566.39458	0.03952
2565.10881	0.03955
2563.82304	0.03957
2562.53727	0.03962
2561.25150	0.03971
2559.96573	0.03979
2558.67997	0.03978
2557.39420	0.03964
2556.10843	0.03937
2554.82266	0.03901
2553.53689	0.03860
2552.25112	0.03815
2550.96535	0.03774
2549.67958	0.03743
2548.39381	0.03727
2547.10805	0.03724
2545.82228	0.03732
2544.53651	0.03747
2543.25074	0.03764
2541.96497	0.03775
2540.67920	0.03776
2539.39343	0.03764
2538.10766	0.03738
2536.82190	0.03695
2535.53613	0.03639
2534.25036	0.03583
2532.96459	0.03542
2531.67882	0.03525
2530.39305	0.03533
2529.10728	0.03559
2527.82151	0.03595
2526.53574	0.03630
2525.24998	0.03655
2523.96421	0.03659
2522.67844	0.03640
2521.39267	0.03606
2520.10690	0.03579
2518.82113	0.03573
2517.53536	0.03588
2516.24959	0.03613
2514.96383	0.03633
2513.67806	0.03641
2512.39229	0.03632
2511.10652	0.03609
2509.82075	0.03584
2508.53498	0.03564
2507.24921	0.03551
2505.96344	0.03540
2504.67767	0.03530
2503.39191	0.03522
2502.10614	0.03514
2500.82037	0.03505
2499.53460	0.03495
2498.24883	0.03480
2496.96306	0.03454
2495.67729	0.03413
2494.39152	0.03367
2493.10576	0.03332
2491.81999	0.03317
2490.53422	0.03321
2489.24845	0.03338
2487.96268	0.03358
2486.67691	0.03371
2485.39114	0.03369
2484.10537	0.03354
2482.81960	0.03344
2481.53384	0.03355
2480.24807	0.03397
2478.96230	0.03458
2477.67653	0.03512
2476.39076	0.03536
2475.10499	0.03518
2473.81922	0.03467
2472.53345	0.03406
2471.24769	0.03363
2469.96192	0.03353
2468.67615	0.03363
2467.39038	0.03374
2466.10461	0.03377
2464.81884	0.03378
2463.53307	0.03382
2462.24730	0.03381
2460.96153	0.03367
2459.67577	0.03343
2458.39000	0.03328
2457.10423	0.03341
2455.81846	0.03376
2454.53269	0.03417
2453.24692	0.03447
2451.96115	0.03461
2450.67538	0.03461
2449.38962	0.03456
2448.10385	0.03452
2446.81808	0.03444
2445.53231	0.03418
2444.24654	0.03371
2442.96077	0.03326
2441.67500	0.03308
2440.38923	0.03321
2439.10346	0.03344
2437.81770	0.03355
2436.53193	0.03348
2435.24616	0.03333
2433.96039	0.03317
2432.67462	0.03302
2431.38885	0.03286
2430.10308	0.03268
2428.81731	0.03253
2427.53155	0.03246
2426.24578	0.03240
2424.96001	0.03231
2423.67424	0.03222
2422.38847	0.03225
2421.10270	0.03246
2419.81693	0.03278
2418.53116	0.03305
2417.24539	0.03314
2415.95963	0.03305
2414.67386	0.03285
2413.38809	0.03262
2412.10232	0.03237
2410.81655	0.03209
2409.53078	0.03182
2408.24501	0.03164
2406.95924	0.03159
2405.67347	0.03167
2404.38771	0.03183
2403.10194	0.03202
2401.81617	0.03219
2400.53040	0.03227
2399.24463	0.03273
2397.95886	0.03269
2396.67309	0.03234
2395.38732	0.03206
2394.10156	0.03188
2392.81579	0.03173
2391.53002	0.03160
2390.24425	0.03151
2388.95848	0.03146
2387.67271	0.03144
2386.38694	0.03139
2385.10117	0.03133
2383.81540	0.03134
2382.52964	0.03122
2381.24387	0.03108
2379.95810	0.03050
2378.67233	0.03150
2377.38656	0.03188
2376.10079	0.02863
2374.81502	0.02358
2373.52925	0.02601
2372.24349	0.03451
2370.95772	0.04058
2369.67195	0.04058
2368.38618	0.03745
2367.10041	0.03635
2365.81464	0.03655
2364.52887	0.03688
2363.24310	0.03714
2361.95733	0.03914
2360.67157	0.04527
2359.38580	0.04958
2358.10003	0.04839
2356.81426	0.04232
2355.52849	0.03297
2354.24272	0.02210
2352.95695	0.01496
2351.67118	0.02023
2350.38542	0.02947
2349.09965	0.03074
2347.81388	0.02820
2346.52811	0.03319
2345.24234	0.03789
2343.95657	0.02862
2342.67080	0.00797
2341.38503	0.01225
2340.09926	0.03577
2338.81350	0.03524
2337.52773	0.01404
2336.24196	0.02057
2334.95619	0.04138
2333.67042	0.03548
2332.38465	0.01358
2331.09888	0.02824
2329.81311	0.03783
2328.52735	0.02386
2327.24158	0.02915
2325.95581	0.04117
2324.67004	0.03497
2323.38427	0.02620
2322.09850	0.03111
2320.81273	0.02639
2319.52696	0.02529
2318.24119	0.02838
2316.95543	0.02576
2315.66966	0.02673
2314.38389	0.02730
2313.09812	0.02490
2311.81235	0.02712
2310.52658	0.02719
2309.24081	0.02586
2307.95504	0.02753
2306.66928	0.02811
2305.38351	0.02965
2304.09774	0.03034
2302.81197	0.03005
2301.52620	0.03098
2300.24043	0.03144
2298.95466	0.03179
2297.66889	0.03166
2296.38312	0.03144
2295.09736	0.03150
2293.81159	0.03134
2292.52582	0.03134
2291.24005	0.03093
2289.95428	0.03027
2288.66851	0.02948
2287.38274	0.02873
2286.09697	0.02820
2284.81121	0.02769
2283.52544	0.02712
2282.23967	0.02656
2280.95390	0.02627
2279.66813	0.02619
2278.38236	0.02617
2277.09659	0.02613
2275.81082	0.02622
2274.52505	0.02601
2273.23929	0.02534
2271.95352	0.02454
2270.66775	0.02428
2269.38198	0.02428
2268.09621	0.02413
2266.81044	0.02401
2265.52467	0.02443
2264.23890	0.02474
2262.95314	0.02484
2261.66737	0.02513
2260.38160	0.02536
2259.09583	0.02536
2257.81006	0.02536
2256.52429	0.02546
2255.23852	0.02545
2253.95275	0.02529
2252.66698	0.02496
2251.38122	0.02449
2250.09545	0.02367
2248.80968	0.02237
2247.52391	0.02276
2246.23814	0.02328
2244.95237	0.02369
2243.66660	0.02392
2242.38083	0.02392
2241.09507	0.02380
2239.80930	0.02386
2238.52353	0.02431
2237.23776	0.02496
2235.95199	0.02535
2234.66622	0.02519
2233.38045	0.02464
2232.09468	0.02411
2230.80891	0.02384
2229.52315	0.02376
2228.23738	0.02373
2226.95161	0.02365
2225.66584	0.02357
2224.38007	0.02356
2223.09430	0.02366
2221.80853	0.02375
2220.52276	0.02356
2219.23700	0.02300
2217.95123	0.02233
2216.66546	0.02188
2215.37969	0.02161
2214.09392	0.02126
2212.80815	0.02078
2211.52238	0.02053
2210.23661	0.02085
2208.95084	0.02162
2207.66508	0.02227
2206.37931	0.02245
2205.09354	0.02239
2203.80777	0.02248
2202.52200	0.02257
2201.23623	0.02213
2199.95046	0.02107
2198.66469	0.01997
2197.37893	0.01937
2196.09316	0.01921
2194.80739	0.01910
2193.52162	0.01891
2192.23585	0.01879
2190.95008	0.01880
2189.66431	0.01884
2188.37854	0.01890
2187.09277	0.01911
2185.80701	0.01937
2184.52124	0.01943
2183.23547	0.01935
2181.94970	0.01957
2180.66393	0.02032
2179.37816	0.02107
2178.09239	0.02107
2176.80662	0.02020
2175.52085	0.01905
2174.23509	0.01824
2172.94932	0.01782
2171.66355	0.01746
2170.37778	0.01694
2169.09201	0.01632
2167.80624	0.01577
2166.52047	0.01527
2165.23470	0.01465
2163.94894	0.01396
2162.66317	0.01355
2161.37740	0.01375
2160.09163	0.01443
2158.80586	0.01508
2157.52009	0.01531
2156.23432	0.01524
2154.94855	0.01524
2153.66278	0.01554
2152.37702	0.01606
2151.09125	0.01666
2149.80548	0.01730
2148.51971	0.01797
2147.23394	0.01852
2145.94817	0.01878
2144.66240	0.01881
2143.37663	0.01871
2142.09087	0.01843
2140.80510	0.01782
2139.51933	0.01702
2138.23356	0.01649
2136.94779	0.01664
2135.66202	0.01741
2134.37625	0.01834
2133.09048	0.01895
2131.80471	0.01913
2130.51895	0.01910
2129.23318	0.01910
2127.94741	0.01920
2126.66164	0.01942
2125.37587	0.01986
2124.09010	0.02053
2122.80433	0.02127
2121.51856	0.02188
2120.23280	0.02239
2118.94703	0.02285
2117.66126	0.02320
2116.37549	0.02327
2115.08972	0.02301
2113.80395	0.02253
2112.51818	0.02196
2111.23241	0.02150
2109.94664	0.02127
2108.66088	0.02135
2107.37511	0.02171
2106.08934	0.02222
2104.80357	0.02263
2103.51780	0.02264
2102.23203	0.02218
2100.94626	0.02147
2099.66049	0.02040
2098.37473	0.01985
2097.08896	0.01980
2095.80319	0.01993
2094.51742	0.02010
2093.23165	0.02025
2091.94588	0.02038
2090.66011	0.02045
2089.37434	0.02046
2088.08857	0.02048
2086.80281	0.02065
2085.51704	0.02092
2084.23127	0.02107
2082.94550	0.02087
2081.65973	0.02036
2080.37396	0.01986
2079.08819	0.01960
2077.80242	0.01954
2076.51666	0.01951
2075.23089	0.01940
2073.94512	0.01923
2072.65935	0.01899
2071.37358	0.01858
2070.08781	0.01796
2068.80204	0.01731
2067.51627	0.01692
2066.23050	0.01692
2064.94474	0.01717
2063.65897	0.01748
2062.37320	0.01768
2061.08743	0.01768
2059.80166	0.01744
2058.51589	0.01705
2057.23012	0.01673
2055.94435	0.01656
2054.65859	0.01640
2053.37282	0.01606
2052.08705	0.01558
2050.80128	0.01503
2049.51551	0.01432
2048.22974	0.01327
2046.94397	0.01205
2045.65820	0.01136
2044.37243	0.01182
2043.08667	0.01318
2041.80090	0.01428
2040.51513	0.01407
2039.22936	0.01264
2037.94359	0.01107
2036.65782	0.01033
2035.37205	0.01054
2034.08628	0.01123
2032.80052	0.01188
2031.51475	0.01232
2030.22898	0.01264
2028.94321	0.01306
2027.65744	0.01364
2026.37167	0.01424
2025.08590	0.01476
2023.80013	0.01518
2022.51436	0.01532
2021.22860	0.01491
2019.94283	0.01396
2018.65706	0.01297
2017.37129	0.01248
2016.08552	0.01253
2014.79975	0.01284
2013.51398	0.01315
2012.22821	0.01338
2010.94245	0.01347
2009.65668	0.01339
2008.37091	0.01322
2007.08514	0.01315
2005.79937	0.01326
2004.51360	0.01352
2003.22783	0.01388
2001.94206	0.01434
2000.65629	0.01482
1999.37053	0.01528
1998.08476	0.01565
1996.79899	0.01585
1995.51322	0.01584
1994.22745	0.01569
1992.94168	0.01547
1991.65591	0.01511
1990.37014	0.01446
1989.08438	0.01362
1987.79861	0.01291
1986.51284	0.01264
1985.22707	0.01283
1983.94130	0.01330
1982.65553	0.01380
1981.36976	0.01404
1980.08399	0.01379
1978.79822	0.01310
1977.51246	0.01236
1976.22669	0.01198
1974.94092	0.01203
1973.65515	0.01233
1972.36938	0.01271
1971.08361	0.01315
1969.79784	0.01356
1968.51207	0.01375
1967.22631	0.01360
1965.94054	0.01330
1964.65477	0.01322
1963.36900	0.01352
1962.08323	0.01399
1960.79746	0.01429
1959.51169	0.01420
1958.22592	0.01386
1956.94015	0.01363
1955.65439	0.01378
1954.36862	0.01417
1953.08285	0.01450
1951.79708	0.01468
1950.51131	0.01482
1949.22554	0.01503
1947.93977	0.01526
1946.65400	0.01548
1945.36823	0.01568
1944.08247	0.01582
1942.79670	0.01579
1941.51093	0.01558
1940.22516	0.01535
1938.93939	0.01529
1937.65362	0.01545
1936.36785	0.01572
1935.08208	0.01591
1933.79632	0.01591
1932.51055	0.01574
1931.22478	0.01559
1929.93901	0.01564
1928.65324	0.01595
1927.36747	0.01643
1926.08170	0.01685
1924.79593	0.01702
1923.51016	0.01697
1922.22440	0.01689
1920.93863	0.01691
1919.65286	0.01697
1918.36709	0.01692
1917.08132	0.01674
1915.79555	0.01652
1914.50978	0.01633
1913.22401	0.01615
1911.93825	0.01596
1910.65248	0.01583
1909.36671	0.01584
1908.08094	0.01605
1906.79517	0.01636
1905.50940	0.01666
1904.22363	0.01686
1902.93786	0.01700
1901.65209	0.01711
1900.36633	0.01719
1899.08056	0.01723
1897.79479	0.01728
1896.50902	0.01739
1895.22325	0.01749
1893.93748	0.01748
1892.65171	0.01734
1891.36594	0.01715
1890.08018	0.01707
1888.79441	0.01714
1887.50864	0.01730
1886.22287	0.01747
1884.93710	0.01757
1883.65133	0.01757
1882.36556	0.01744
1881.07979	0.01723
1879.79402	0.01703
1878.50826	0.01694
1877.22249	0.01698
1875.93672	0.01711
1874.65095	0.01725
1873.36518	0.01738
1872.07941	0.01749
1870.79364	0.01755
1869.50787	0.01750
1868.22211	0.01731
1866.93634	0.01704
1865.65057	0.01676
1864.36480	0.01649
1863.07903	0.01624
1861.79326	0.01606
1860.50749	0.01597
1859.22172	0.01599
1857.93595	0.01607
1856.65019	0.01619
1855.36442	0.01638
1854.07865	0.01663
1852.79288	0.01687
1851.50711	0.01702
1850.22134	0.01705
1848.93557	0.01699
1847.64980	0.01685
1846.36404	0.01671
1845.07827	0.01662
1843.79250	0.01659
1842.50673	0.01657
1841.22096	0.01646
1839.93519	0.01632
1838.64942	0.01626
1837.36365	0.01630
1836.07788	0.01639
1834.79212	0.01647
1833.50635	0.01656
1832.22058	0.01663
1830.93481	0.01666
1829.64904	0.01666
1828.36327	0.01666
1827.07750	0.01667
1825.79173	0.01665
1824.50597	0.01652
1823.22020	0.01632
1821.93443	0.01611
1820.64866	0.01596
1819.36289	0.01585
1818.07712	0.01577
1816.79135	0.01575
1815.50558	0.01582
1814.21981	0.01598
1812.93405	0.01615
1811.64828	0.01623
1810.36251	0.01622
1809.07674	0.01618
1807.79097	0.01620
1806.50520	0.01624
1805.21943	0.01622
1803.93366	0.01612
1802.64790	0.01601
1801.36213	0.01598
1800.07636	0.01601
1798.79059	0.01606
1797.50482	0.01608
1796.21905	0.01608
1794.93328	0.01610
1793.64751	0.01615
1792.36174	0.01622
1791.07598	0.01624
1789.79021	0.01619
1788.50444	0.01607
1787.21867	0.01593
1785.93290	0.01584
1784.64713	0.01585
1783.36136	0.01590
1782.07559	0.01593
1780.78983	0.01588
1779.50406	0.01575
1778.21829	0.01560
1776.93252	0.01551
1775.64675	0.01551
1774.36098	0.01557
1773.07521	0.01566
1771.78944	0.01575
1770.50367	0.01585
1769.21791	0.01594
1767.93214	0.01603
1766.64637	0.01607
1765.36060	0.01606
1764.07483	0.01600
1762.78906	0.01591
1761.50329	0.01581
1760.21752	0.01575
1758.93176	0.01576
1757.64599	0.01583
1756.36022	0.01595
1755.07445	0.01610
1753.78868	0.01627
1752.50291	0.01643
1751.21714	0.01658
1749.93137	0.01673
1748.64560	0.01687
1747.35984	0.01702
1746.07407	0.01715
1744.78830	0.01727
1743.50253	0.01739
1742.21676	0.01755
1740.93099	0.01778
1739.64522	0.01811
1738.35945	0.01851
1737.07369	0.01895
1735.78792	0.01931
1734.50215	0.01953
1733.21638	0.01964
1731.93061	0.01974
1730.64484	0.01990
1729.35907	0.02013
1728.07330	0.02038
1726.78753	0.02065
1725.50177	0.02096
1724.21600	0.02129
1722.93023	0.02160
1721.64446	0.02192
1720.35869	0.02230
1719.07292	0.02278
1717.78715	0.02328
1716.50138	0.02374
1715.21561	0.02414
1713.92985	0.02462
1712.64408	0.02528
1711.35831	0.02617
1710.07254	0.02726
1708.78677	0.02850
1707.50100	0.02986
1706.21523	0.03130
1704.92946	0.03281
1703.64370	0.03442
1702.35793	0.03617
1701.07216	0.03806
1699.78639	0.04003
1698.50062	0.04205
1697.21485	0.04413
1695.92908	0.04627
1694.64331	0.04845
1693.35754	0.05058
1692.07178	0.05262
1690.78601	0.05459
1689.50024	0.05656
1688.21447	0.05862
1686.92870	0.06083
1685.64293	0.06320
1684.35716	0.06563
1683.07139	0.06801
1681.78563	0.07036
1680.49986	0.07280
1679.21409	0.07543
1677.92832	0.07823
1676.64255	0.08109
1675.35678	0.08395
1674.07101	0.08678
1672.78524	0.08966
1671.49947	0.09264
1670.21371	0.09570
1668.92794	0.09876
1667.64217	0.10174
1666.35640	0.10465
1665.07063	0.10753
1663.78486	0.11036
1662.49909	0.11312
1661.21332	0.11573
1659.92756	0.11822
1658.64179	0.12058
1657.35602	0.12286
1656.07025	0.12509
1654.78448	0.12727
1653.49871	0.12936
1652.21294	0.13125
1650.92717	0.13290
1649.64140	0.13437
1648.35564	0.13577
1647.06987	0.13716
1645.78410	0.13850
1644.49833	0.13975
1643.21256	0.14091
1641.92679	0.14201
1640.64102	0.14309
1639.35525	0.14415
1638.06949	0.14517
1636.78372	0.14612
1635.49795	0.14695
1634.21218	0.14762
1632.92641	0.14811
1631.64064	0.14839
1630.35487	0.14843
1629.06910	0.14821
1627.78333	0.14769
1626.49757	0.14687
1625.21180	0.14573
1623.92603	0.14431
1622.64026	0.14260
1621.35449	0.14063
1620.06872	0.13841
1618.78295	0.13598
1617.49718	0.13341
1616.21142	0.13073
1614.92565	0.12799
1613.63988	0.12517
1612.35411	0.12231
1611.06834	0.11940
1609.78257	0.11646
1608.49680	0.11352
1607.21103	0.11066
1605.92526	0.10789
1604.63950	0.10522
1603.35373	0.10268
1602.06796	0.10027
1600.78219	0.09802
1599.49642	0.09595
1598.21065	0.09403
1596.92488	0.09221
1595.63911	0.09047
1594.35335	0.08885
1593.06758	0.08739
1591.78181	0.08615
1590.49604	0.08512
1589.21027	0.08428
1587.92450	0.08356
1586.63873	0.08297
1585.35296	0.08251
1584.06719	0.08222
1582.78143	0.08209
1581.49566	0.08211
1580.20989	0.08232
1578.92412	0.08280
1577.63835	0.08353
1576.35258	0.08446
1575.06681	0.08548
1573.78104	0.08654
1572.49528	0.08767
1571.20951	0.08892
1569.92374	0.09034
1568.63797	0.09192
1567.35220	0.09362
1566.06643	0.09540
1564.78066	0.09723
1563.49489	0.09909
1562.20912	0.10100
1560.92336	0.10295
1559.63759	0.10487
1558.35182	0.10667
1557.06605	0.10827
1555.78028	0.10974
1554.49451	0.11114
1553.20874	0.11251
1551.92297	0.11382
1550.63721	0.11506
1549.35144	0.11621
1548.06567	0.11725
1546.77990	0.11817
1545.49413	0.11897
1544.20836	0.11967
1542.92259	0.12030
1541.63682	0.12087
1540.35105	0.12135
1539.06529	0.12168
1537.77952	0.12183
1536.49375	0.12184
1535.20798	0.12177
1533.92221	0.12166
1532.63644	0.12155
1531.35067	0.12145
1530.06490	0.12130
1528.77914	0.12107
1527.49337	0.12076
1526.20760	0.12040
1524.92183	0.12005
1523.63606	0.11969
1522.35029	0.11923
1521.06452	0.11862
1519.77875	0.11788
1518.49298	0.11706
1517.20722	0.11619
1515.92145	0.11523
1514.63568	0.11414
1513.34991	0.11289
1512.06414	0.11152
1510.77837	0.11007
1509.49260	0.10853
1508.20683	0.10689
1506.92107	0.10506
1505.63530	0.10301
1504.34953	0.10081
1503.06376	0.09857
1501.77799	0.09643
1500.49222	0.09443
1499.20645	0.09248
1497.92068	0.09048
1496.63491	0.08837
1495.34915	0.08617
1494.06338	0.08398
1492.77761	0.08187
1491.49184	0.07985
1490.20607	0.07794
1488.92030	0.07617
1487.63453	0.07460
1486.34876	0.07327
1485.06299	0.07217
1483.77723	0.07123
1482.49146	0.07045
1481.20569	0.06985
1479.91992	0.06952
1478.63415	0.06948
1477.34838	0.06970
1476.06261	0.07013
1474.77684	0.07075
1473.49108	0.07150
1472.20531	0.07233
1470.91954	0.07318
1469.63377	0.07401
1468.34800	0.07485
1467.06223	0.07572
1465.77646	0.07671
1464.49069	0.07782
1463.20492	0.07901
1461.91916	0.08023
1460.63339	0.08144
1459.34762	0.08268
1458.06185	0.08399
1456.77608	0.08532
1455.49031	0.08657
1454.20454	0.08763
1452.91877	0.08843
1451.63301	0.08898
1450.34724	0.08933
1449.06147	0.08950
1447.77570	0.08949
1446.48993	0.08934
1445.20416	0.08904
1443.91839	0.08864
1442.63262	0.08814
1441.34685	0.08759
1440.06109	0.08697
1438.77532	0.08626
1437.48955	0.08542
1436.20378	0.08442
1434.91801	0.08329
1433.63224	0.08213
1432.34647	0.08103
1431.06070	0.08006
1429.77494	0.07922
1428.48917	0.07848
1427.20340	0.07783
1425.91763	0.07729
1424.63186	0.07686
1423.34609	0.07655
1422.06032	0.07631
1420.77455	0.07614
1419.48878	0.07601
1418.20302	0.07591
1416.91725	0.07586
1415.63148	0.07589
1414.34571	0.07601
1413.05994	0.07622
1411.77417	0.07646
1410.48840	0.07673
1409.20263	0.07699
1407.91687	0.07724
1406.63110	0.07746
1405.34533	0.07765
1404.05956	0.07781
1402.77379	0.07792
1401.48802	0.07798
1400.20225	0.07795
1398.91648	0.07784
1397.63071	0.07770
1396.34495	0.07756
1395.05918	0.07743
1393.77341	0.07728
1392.48764	0.07710
1391.20187	0.07691
1389.91610	0.07672
1388.63033	0.07649
1387.34456	0.07620
1386.05880	0.07587
1384.77303	0.07554
1383.48726	0.07523
1382.20149	0.07493
1380.91572	0.07462
1379.62995	0.07426
1378.34418	0.07384
1377.05841	0.07335
1375.77264	0.07282
1374.48688	0.07230
1373.20111	0.07176
1371.91534	0.07118
1370.62957	0.07052
1369.34380	0.06979
1368.05803	0.06901
1366.77226	0.06819
1365.48649	0.06736
1364.20073	0.06658
1362.91496	0.06589
1361.62919	0.06530
1360.34342	0.06481
1359.05765	0.06442
1357.77188	0.06412
1356.48611	0.06394
1355.20034	0.06387
1353.91457	0.06396
1352.62881	0.06423
1351.34304	0.06466
1350.05727	0.06521
1348.77150	0.06580
1347.48573	0.06639
1346.19996	0.06697
1344.91419	0.06757
1343.62842	0.06819
1342.34266	0.06880
1341.05689	0.06934
1339.77112	0.06979
1338.48535	0.07013
1337.19958	0.07037
1335.91381	0.07048
1334.62804	0.07044
1333.34227	0.07022
1332.05650	0.06984
1330.77074	0.06936
1329.48497	0.06881
1328.19920	0.06826
1326.91343	0.06771
1325.62766	0.06719
1324.34189	0.06673
1323.05612	0.06633
1321.77035	0.06600
1320.48459	0.06575
1319.19882	0.06552
1317.91305	0.06528
1316.62728	0.06500
1315.34151	0.06472
1314.05574	0.06446
1312.76997	0.06422
1311.48420	0.06395
1310.19843	0.06364
1308.91267	0.06331
1307.62690	0.06298
1306.34113	0.06269
1305.05536	0.06244
1303.76959	0.06221
1302.48382	0.06197
1301.19805	0.06173
1299.91228	0.06151
1298.62652	0.06133
1297.34075	0.06120
1296.05498	0.06110
1294.76921	0.06107
1293.48344	0.06115
1292.19767	0.06133
1290.91190	0.06160
1289.62613	0.06194
1288.34036	0.06234
1287.05460	0.06276
1285.76883	0.06319
1284.48306	0.06362
1283.19729	0.06401
1281.91152	0.06433
1280.62575	0.06455
1279.33998	0.06468
1278.05421	0.06477
1276.76845	0.06486
1275.48268	0.06495
1274.19691	0.06505
1272.91114	0.06513
1271.62537	0.06523
1270.33960	0.06537
1269.05383	0.06557
1267.76806	0.06583
1266.48229	0.06614
1265.19653	0.06648
1263.91076	0.06685
1262.62499	0.06722
1261.33922	0.06762
1260.05345	0.06806
1258.76768	0.06854
1257.48191	0.06903
1256.19614	0.06953
1254.91037	0.07005
1253.62461	0.07060
1252.33884	0.07119
1251.05307	0.07181
1249.76730	0.07247
1248.48153	0.07321
1247.19576	0.07402
1245.90999	0.07488
1244.62422	0.07573
1243.33846	0.07654
1242.05269	0.07728
1240.76692	0.07793
1239.48115	0.07846
1238.19538	0.07887
1236.90961	0.07917
1235.62384	0.07939
1234.33807	0.07953
1233.05230	0.07954
1231.76654	0.07940
1230.48077	0.07910
1229.19500	0.07863
1227.90923	0.07803
1226.62346	0.07732
1225.33769	0.07651
1224.05192	0.07562
1222.76615	0.07465
1221.48039	0.07363
1220.19462	0.07262
1218.90885	0.07166
1217.62308	0.07078
1216.33731	0.07002
1215.05154	0.06942
1213.76577	0.06900
1212.48000	0.06877
1211.19423	0.06866
1209.90847	0.06863
1208.62270	0.06865
1207.33693	0.06873
1206.05116	0.06887
1204.76539	0.06902
1203.47962	0.06912
1202.19385	0.06911
1200.90808	0.06896
1199.62232	0.06866
1198.33655	0.06810
1197.05078	0.06742
1195.76501	0.06666
1194.47924	0.06587
1193.19347	0.06504
1191.90770	0.06420
1190.62193	0.06334
1189.33616	0.06251
1188.05040	0.06173
1186.76463	0.06107
1185.47886	0.06051
1184.19309	0.06004
1182.90732	0.05957
1181.62155	0.05908
1180.33578	0.05864
1179.05001	0.05829
1177.76425	0.05805
1176.47848	0.05785
1175.19271	0.05765
1173.90694	0.05744
1172.62117	0.05728
1171.33540	0.05720
1170.04963	0.05717
1168.76386	0.05716
1167.47809	0.05713
1166.19233	0.05710
1164.90656	0.05708
1163.62079	0.05706
1162.33502	0.05701
1161.04925	0.05690
1159.76348	0.05672
1158.47771	0.05645
1157.19194	0.05608
1155.90618	0.05559
1154.62041	0.05504
1153.33464	0.05447
1152.04887	0.05392
1150.76310	0.05337
1149.47733	0.05279
1148.19156	0.05218
1146.90579	0.05160
1145.62002	0.05111
1144.33426	0.05067
1143.04849	0.05022
1141.76272	0.04971
1140.47695	0.04917
1139.19118	0.04864
1137.90541	0.04817
1136.61964	0.04779
1135.33387	0.04753
1134.04811	0.04735
1132.76234	0.04721
1131.47657	0.04708
1130.19080	0.04695
1128.90503	0.04683
1127.61926	0.04670
1126.33349	0.04656
1125.04772	0.04644
1123.76195	0.04631
1122.47619	0.04617
1121.19042	0.04603
1119.90465	0.04592
1118.61888	0.04587
1117.33311	0.04590
1116.04734	0.04599
1114.76157	0.04607
1113.47580	0.04613
1112.19004	0.04618
1110.90427	0.04626
1109.61850	0.04638
1108.33273	0.04651
1107.04696	0.04667
1105.76119	0.04687
1104.47542	0.04712
1103.18965	0.04738
1101.90388	0.04764
1100.61812	0.04790
1099.33235	0.04817
1098.04658	0.04846
1096.76081	0.04875
1095.47504	0.04909
1094.18927	0.04950
1092.90350	0.04999
1091.61773	0.05051
1090.33197	0.05105
1089.04620	0.05161
1087.76043	0.05227
1086.47466	0.05304
1085.18889	0.05384
1083.90312	0.05453
1082.61735	0.05500
1081.33158	0.05524
1080.04581	0.05532
1078.76005	0.05530
1077.47428	0.05522
1076.18851	0.05506
1074.90274	0.05483
1073.61697	0.05458
1072.33120	0.05437
1071.04543	0.05421
1069.75966	0.05408
1068.47390	0.05397
1067.18813	0.05387
1065.90236	0.05378
1064.61659	0.05368
1063.33082	0.05358
1062.04505	0.05345
1060.75928	0.05329
1059.47351	0.05311
1058.18774	0.05296
1056.90198	0.05281
1055.61621	0.05262
1054.33044	0.05234
1053.04467	0.05201
1051.75890	0.05171
1050.47313	0.05145
1049.18736	0.05124
1047.90159	0.05108
1046.61583	0.05096
1045.33006	0.05086
1044.04429	0.05074
1042.75852	0.05063
1041.47275	0.05057
1040.18698	0.05060
1038.90121	0.05072
1037.61544	0.05092
1036.32967	0.05116
1035.04391	0.05144
1033.75814	0.05174
1032.47237	0.05204
1031.18660	0.05226
1029.90083	0.05232
1028.61506	0.05215
1027.32929	0.05175
1026.04352	0.05118
1024.75775	0.05054
1023.47199	0.04994
1022.18622	0.04941
1020.90045	0.04897
1019.61468	0.04860
1018.32891	0.04827
1017.04314	0.04794
1015.75737	0.04762
1014.47160	0.04730
1013.18584	0.04696
1011.90007	0.04658
1010.61430	0.04614
1009.32853	0.04567
1008.04276	0.04523
1006.75699	0.04482
1005.47122	0.04442
1004.18545	0.04400
1002.89968	0.04358
1001.61392	0.04316
1000.32815	0.04274
999.04238	0.04231
997.75661	0.04186
996.47084	0.04143
995.18507	0.04107
993.89930	0.04077
992.61353	0.04048
991.32777	0.04018
990.04200	0.03984
988.75623	0.03950
987.47046	0.03923
986.18469	0.03906
984.89892	0.03896
983.61315	0.03884
982.32738	0.03868
981.04161	0.03855
979.75585	0.03853
978.47008	0.03865
977.18431	0.03882
975.89854	0.03895
974.61277	0.03897
973.32700	0.03889
972.04123	0.03875
970.75546	0.03856
969.46970	0.03833
968.18393	0.03805
966.89816	0.03775
965.61239	0.03744
964.32662	0.03713
963.04085	0.03686
961.75508	0.03668
960.46931	0.03661
959.18354	0.03660
957.89778	0.03655
956.61201	0.03645
955.32624	0.03630
954.04047	0.03614
952.75470	0.03595
951.46893	0.03575
950.18316	0.03558
948.89739	0.03551
947.61163	0.03551
946.32586	0.03552
945.04009	0.03551
943.75432	0.03550
942.46855	0.03552
941.18278	0.03555
939.89701	0.03553
938.61124	0.03545
937.32547	0.03533
936.03971	0.03523
934.75394	0.03516
933.46817	0.03511
932.18240	0.03509
930.89663	0.03507
929.61086	0.03501
928.32509	0.03490
927.03932	0.03478
925.75356	0.03471
924.46779	0.03470
923.18202	0.03471
921.89625	0.03471
920.61048	0.03468
919.32471	0.03459
918.03894	0.03440
916.75317	0.03415
915.46740	0.03386
914.18164	0.03360
912.89587	0.03339
911.61010	0.03322
910.32433	0.03310
909.03856	0.03305
907.75279	0.03305
906.46702	0.03307
905.18125	0.03306
903.89549	0.03303
902.60972	0.03300
901.32395	0.03297
900.03818	0.03291
898.75241	0.03280
897.46664	0.03265
896.18087	0.03246
894.89510	0.03223
893.60933	0.03201
892.32357	0.03186
891.03780	0.03180
889.75203	0.03184
888.46626	0.03194
887.18049	0.03202
885.89472	0.03205
884.60895	0.03202
883.32318	0.03193
882.03742	0.03179
880.75165	0.03163
879.46588	0.03154
878.18011	0.03157
876.89434	0.03171
875.60857	0.03183
874.32280	0.03185
873.03703	0.03175
871.75126	0.03159
870.46550	0.03145
869.17973	0.03136
867.89396	0.03130
866.60819	0.03124
865.32242	0.03122
864.03665	0.03126
862.75088	0.03133
861.46511	0.03138
860.17935	0.03141
858.89358	0.03143
857.60781	0.03145
856.32204	0.03142
855.03627	0.03137
853.75050	0.03132
852.46473	0.03128
851.17896	0.03125
849.89319	0.03124
848.60743	0.03127
847.32166	0.03135
846.03589	0.03143
844.75012	0.03146
843.46435	0.03139
842.17858	0.03125
840.89281	0.03106
839.60704	0.03090
838.32128	0.03078
837.03551	0.03074
835.74974	0.03077
834.46397	0.03086
833.17820	0.03097
831.89243	0.03103
830.60666	0.03103
829.32089	0.03101
828.03512	0.03102
826.74936	0.03110
825.46359	0.03125
824.17782	0.03142
822.89205	0.03158
821.60628	0.03170
820.32051	0.03181
819.03474	0.03194
817.74897	0.03211
816.46321	0.03231
815.17744	0.03252
813.89167	0.03268
812.60590	0.03282
811.32013	0.03297
810.03436	0.03313
808.74859	0.03327
807.46282	0.03337
806.17705	0.03348
804.89129	0.03359
803.60552	0.03367
802.31975	0.03369
801.03398	0.03367
799.74821	0.03368
798.46244	0.03375
797.17667	0.03391
795.89090	0.03411
794.60513	0.03430
793.31937	0.03446
792.03360	0.03463
790.74783	0.03485
789.46206	0.03506
788.17629	0.03520
786.89052	0.03526
785.60475	0.03530
784.31898	0.03537
783.03322	0.03546
781.74745	0.03557
780.46168	0.03568
779.17591	0.03578
777.89014	0.03582
776.60437	0.03579
775.31860	0.03579
774.03283	0.03590
772.74706	0.03612
771.46130	0.03632
770.17553	0.03641
768.88976	0.03641
767.60399	0.03647
766.31822	0.03668
765.03245	0.03699
763.74668	0.03727
762.46091	0.03745
761.17515	0.03755
759.88938	0.03760
758.60361	0.03765
757.31784	0.03773
756.03207	0.03788
754.74630	0.03808
753.46053	0.03829
752.17476	0.03845
750.88899	0.03857
749.60323	0.03869
748.31746	0.03887
747.03169	0.03913
745.74592	0.03945
744.46015	0.03976
743.17438	0.04001
741.88861	0.04022
740.60284	0.04036
739.31708	0.04044
738.03131	0.04047
736.74554	0.04055
735.45977	0.04072
734.17400	0.04090
732.88823	0.04102
731.60246	0.04110
730.31669	0.04123
729.03092	0.04143
727.74516	0.04167
726.45939	0.04187
725.17362	0.04207
723.88785	0.04270
722.60208	0.04255
721.31631	0.04204
720.03054	0.04161
718.74477	0.04143
717.45901	0.04143
716.17324	0.04163
714.88747	0.04201
713.60170	0.04253
712.31593	0.04308
711.03016	0.04357
709.74439	0.04395
708.45862	0.04426
707.17285	0.04459
705.88709	0.04494
704.60132	0.04524
703.31555	0.04545
702.02978	0.04565
700.74401	0.04581
699.45824	0.04584
698.17247	0.04569
696.88670	0.04546
695.60094	0.04542
694.31517	0.04540
693.02940	0.04523
691.74363	0.04486
690.45786	0.04459
689.17209	0.04485
687.88632	0.04536
686.60055	0.04564
685.31478	0.04558
684.02902	0.04560
682.74325	0.04621
681.45748	0.04695
680.17171	0.04732
678.88594	0.04726
677.60017	0.04713
676.31440	0.04756
675.02863	0.04806
673.74287	0.04824
672.45710	0.04818
671.17133	0.04824
669.88556	0.04876
668.59979	0.04874
667.31402	0.04783
666.02825	0.04854
664.74248	0.04874
663.45671	0.04879
662.17095	0.04886
660.88518	0.04879
659.59941	0.04866
658.31364	0.04878
657.02787	0.04909
655.74210	0.04927
654.45633	0.04925
653.17056	0.04904
651.88480	0.04885
650.59903	0.04893
649.31326	0.04922
648.02749	0.04937
646.74172	0.04929
645.45595	0.04909
644.17018	0.04890
642.88441	0.04887
641.59864	0.04903
640.31288	0.04925
639.02711	0.04942
637.74134	0.04959
636.45557	0.04977
635.16980	0.04991
633.88403	0.05001
632.59826	0.05009
631.31249	0.05007
630.02673	0.04964
628.74096	0.04895
627.45519	0.04909
626.16942	0.04811
624.88365	0.04616
623.59788	0.04380
622.31211	0.04144
621.02634	0.03981
619.74057	0.03975
618.45481	0.04157
617.16904	0.04458
615.88327	0.04732
614.59750	0.04852
613.31173	0.04807
612.02596	0.04703
610.74019	0.04663
609.45442	0.04731
608.16866	0.04851
606.88289	0.04934
605.59712	0.04927
604.31135	0.04848
603.02558	0.04771
601.73981	0.04764
600.45404	0.04840
599.16827	0.04958
597.88250	0.05068
596.59674	0.05139
595.31097	0.05164
594.02520	0.05151
592.73943	0.05115
591.45366	0.05076
590.16789	0.05052
588.88212	0.05051
587.59635	0.05068
586.31059	0.05087
585.02482	0.05099
583.73905	0.05099
582.45328	0.05090
581.16751	0.05083
579.88174	0.05084
578.59597	0.05093
577.31020	0.05105
576.02443	0.05113
574.73867	0.05116
573.45290	0.05117
572.16713	0.05123
570.88136	0.05136
569.59559	0.05157
568.30982	0.05176
567.02405	0.05184
565.73828	0.05179
564.45251	0.05172
563.16675	0.05168
561.88098	0.05167
560.59521	0.05159
559.30944	0.05140
558.02367	0.05117
556.73790	0.05105
555.45213	0.05113
554.16636	0.05139
552.88060	0.05164
551.59483	0.05175
550.30906	0.05172
549.02329	0.05169
547.73752	0.05171
546.45175	0.05177
545.16598	0.05183
543.88021	0.05189
542.59444	0.05198
541.30868	0.05200
540.02291	0.05187
538.73714	0.05160
537.45137	0.05134
536.16560	0.05124
534.87983	0.05131
533.59406	0.05141
532.30829	0.05138
531.02253	0.05121
529.73676	0.05104
528.45099	0.05105
527.16522	0.05125
525.87945	0.05150
524.59368	0.05162
523.30791	0.05154
522.02214	0.05130
520.73637	0.05100
519.45061	0.05069
518.16484	0.05037
516.87907	0.05012
515.59330	0.04999
514.30753	0.05001
513.02176	0.05009
511.73599	0.05013
510.45022	0.05011
509.16446	0.05004
507.87869	0.04994
506.59292	0.04981
505.30715	0.04968
504.02138	0.04957
502.73561	0.04945
501.44984	0.04929
500.16407	0.04906
498.87830	0.04878
497.59254	0.04853
496.30677	0.04831
495.02100	0.04808
493.73523	0.04779
492.44946	0.04746
491.16369	0.04719
489.87792	0.04701
488.59215	0.04688
487.30639	0.04674
486.02062	0.04660
484.73485	0.04649
483.44908	0.04642
482.16331	0.04632
480.87754	0.04618
479.59177	0.04605
478.30600	0.04595
477.02023	0.04589
475.73447	0.04585
474.44870	0.04582
473.16293	0.04575
471.87716	0.04557
470.59139	0.04524
469.30562	0.04484
468.01985	0.04449
466.73408	0.04427
465.44832	0.04417
464.16255	0.04407
462.87678	0.04388
461.59101	0.04361
460.30524	0.04333
459.01947	0.04310
457.73370	0.04297
456.44793	0.04293
455.16216	0.04293
453.87640	0.04290
452.59063	0.04280
451.30486	0.04262
450.01909	0.04240
448.73332	0.04214
447.44755	0.04185
446.16178	0.04158
444.87601	0.04139
443.59025	0.04125
442.30448	0.04113
441.01871	0.04099
439.73294	0.04082
438.44717	0.04061
437.16140	0.04037
435.87563	0.04011
434.58986	0.03988
433.30409	0.03972
432.01833	0.03962
430.73256	0.03959
429.44679	0.03957
428.16102	0.03949
426.87525	0.03932
425.58948	0.03907
424.30371	0.03885
423.01794	0.03869
421.73218	0.03856
420.44641	0.03841
419.16064	0.03825
417.87487	0.03811
416.58910	0.03796
415.30333	0.03778
414.01756	0.03758
412.73179	0.03742
411.44602	0.03732
410.16026	0.03726
408.87449	0.03716
407.58872	0.03702
406.30295	0.03686
405.01718	0.03669
403.73141	0.03652
402.44564	0.03636
401.15987	0.03622
399.87411	0.03609
