3996.16951	0.06069
3994.24086	0.06034
3992.31220	0.06024
3990.38355	0.06044
3988.45490	0.06061
3986.52624	0.06051
3984.59759	0.06035
3982.66894	0.06058
3980.74028	0.06127
3978.81163	0.06174
3976.88298	0.06146
3974.95432	0.06098
3973.02567	0.06086
3971.09702	0.06087
3969.16836	0.06086
3967.23971	0.06091
3965.31106	0.06077
3963.38240	0.06038
3961.45375	0.06021
3959.52510	0.06050
3957.59645	0.06086
3955.66779	0.06091
3953.73914	0.06063
3951.81049	0.06044
3949.88183	0.06047
3947.95318	0.06040
3946.02453	0.06007
3944.09587	0.05954
3942.16722	0.05922
3940.23857	0.05926
3938.30991	0.05912
3936.38126	0.05875
3934.45261	0.05870
3932.52395	0.05923
3930.59530	0.05980
3928.66665	0.05961
3926.73799	0.05869
3924.80934	0.05783
3922.88069	0.05793
3920.95203	0.05872
3919.02338	0.05907
3917.09473	0.05873
3915.16607	0.05857
3913.23742	0.05863
3911.30877	0.05856
3909.38011	0.05866
3907.45146	0.05896
3905.52281	0.05888
3903.59415	0.05849
3901.66550	0.05836
3899.73685	0.05816
3897.80819	0.05766
3895.87954	0.05736
3893.95089	0.05733
3892.02224	0.05726
3890.09358	0.05723
3888.16493	0.05689
3886.23628	0.05641
3884.30762	0.05674
3882.37897	0.05709
3880.45032	0.05679
3878.52166	0.05669
3876.59301	0.05701
3874.66436	0.05752
3872.73570	0.05798
3870.80705	0.05769
3868.87840	0.05716
3866.94974	0.05675
3865.02109	0.05642
3863.09244	0.05652
3861.16378	0.05660
3859.23513	0.05681
3857.30648	0.05753
3855.37782	0.05780
3853.44917	0.05743
3851.52052	0.05731
3849.59186	0.05715
3847.66321	0.05650
3845.73456	0.05546
3843.80590	0.05459
3841.87725	0.05446
3839.94860	0.05466
3838.01994	0.05448
3836.09129	0.05420
3834.16264	0.05417
3832.23398	0.05428
3830.30533	0.05431
3828.37668	0.05426
3826.44803	0.05418
3824.51937	0.05413
3822.59072	0.05414
3820.66207	0.05472
3818.73341	0.05522
3816.80476	0.05457
3814.87611	0.05401
3812.94745	0.05387
3811.01880	0.05373
3809.09015	0.05359
3807.16149	0.05322
3805.23284	0.05305
3803.30419	0.05257
3801.37553	0.05204
3799.44688	0.05237
3797.51823	0.05249
3795.58957	0.05205
3793.66092	0.05169
3791.73227	0.05199
3789.80361	0.05299
3787.87496	0.05379
3785.94631	0.05365
3784.01765	0.05282
3782.08900	0.05219
3780.16035	0.05209
3778.23169	0.05212
3776.30304	0.05190
3774.37439	0.05202
3772.44573	0.05250
3770.51708	0.05228
3768.58843	0.05173
3766.65977	0.05154
3764.73112	0.05156
3762.80247	0.05151
3760.87381	0.05125
3758.94516	0.05125
3757.01651	0.05179
3755.08786	0.05241
3753.15920	0.05249
3751.23055	0.05216
3749.30190	0.05170
3747.37324	0.05152
3745.44459	0.05106
3743.51594	0.05096
3741.58728	0.05126
3739.65863	0.05105
3737.72998	0.05040
3735.80132	0.04978
3733.87267	0.04930
3731.94402	0.04853
3730.01536	0.04808
3728.08671	0.04844
3726.15806	0.04953
3724.22940	0.05019
3722.30075	0.04975
3720.37210	0.04917
3718.44344	0.04901
3716.51479	0.04898
3714.58614	0.04880
3712.65748	0.04852
3710.72883	0.04860
3708.80018	0.04894
3706.87152	0.04911
3704.94287	0.04903
3703.01422	0.04892
3701.08556	0.04881
3699.15691	0.04849
3697.22826	0.04812
3695.29960	0.04811
3693.37095	0.04830
3691.44230	0.04820
3689.51365	0.04731
3687.58499	0.04635
3685.65634	0.04627
3683.72769	0.04676
3681.79903	0.04757
3679.87038	0.04849
3677.94173	0.04888
3676.01307	0.04822
3674.08442	0.04781
3672.15577	0.04785
3670.22711	0.04793
3668.29846	0.04821
3666.36981	0.04808
3664.44115	0.04773
3662.51250	0.04794
3660.58385	0.04877
3658.65519	0.04952
3656.72654	0.04970
3654.79789	0.04979
3652.86923	0.04995
3650.94058	0.05008
3649.01193	0.05030
3647.08327	0.05068
3645.15462	0.05131
3643.22597	0.05225
3641.29731	0.05310
3639.36866	0.05345
3637.44001	0.05347
3635.51135	0.05338
3633.58270	0.05326
3631.65405	0.05319
3629.72539	0.05314
3627.79674	0.05361
3625.86809	0.05414
3623.93943	0.05432
3622.01078	0.05485
3620.08213	0.05577
3618.15348	0.05667
3616.22482	0.05732
3614.29617	0.05769
3612.36752	0.05803
3610.43886	0.05842
3608.51021	0.05876
3606.58156	0.05900
3604.65290	0.05928
3602.72425	0.06006
3600.79560	0.06120
3598.86694	0.06189
3596.93829	0.06185
3595.00964	0.06187
3593.08098	0.06259
3591.15233	0.06350
3589.22368	0.06382
3587.29502	0.06361
3585.36637	0.06371
3583.43772	0.06444
3581.50906	0.06529
3579.58041	0.06602
3577.65176	0.06700
3575.72310	0.06801
3573.79445	0.06858
3571.86580	0.06907
3569.93714	0.06981
3568.00849	0.07050
3566.07984	0.07114
3564.15118	0.07187
3562.22253	0.07240
3560.29388	0.07269
3558.36522	0.07346
3556.43657	0.07478
3554.50792	0.07581
3552.57927	0.07630
3550.65061	0.07676
3548.72196	0.07753
3546.79331	0.07838
3544.86465	0.07907
3542.93600	0.07987
3541.00735	0.08088
3539.07869	0.08159
3537.15004	0.08171
3535.22139	0.08176
3533.29273	0.08231
3531.36408	0.08326
3529.43543	0.08420
3527.50677	0.08515
3525.57812	0.08601
3523.64947	0.08638
3521.72081	0.08646
3519.79216	0.08685
3517.86351	0.08761
3515.93485	0.08850
3514.00620	0.08942
3512.07755	0.09011
3510.14889	0.09044
3508.22024	0.09090
3506.29159	0.09181
3504.36293	0.09273
3502.43428	0.09314
3500.50563	0.09325
3498.57697	0.09358
3496.64832	0.09412
3494.71967	0.09467
3492.79101	0.09536
3490.86236	0.09628
3488.93371	0.09709
3487.00506	0.09740
3485.07640	0.09750
3483.14775	0.09780
3481.21910	0.09828
3479.29044	0.09873
3477.36179	0.09916
3475.43314	0.09962
3473.50448	0.10004
3471.57583	0.10036
3469.64718	0.10083
3467.71852	0.10162
3465.78987	0.10247
3463.86122	0.10308
3461.93256	0.10343
3460.00391	0.10374
3458.07526	0.10419
3456.14660	0.10470
3454.21795	0.10515
3452.28930	0.10573
3450.36064	0.10641
3448.43199	0.10674
3446.50334	0.10679
3444.57468	0.10687
3442.64603	0.10719
3440.71738	0.10784
3438.78872	0.10856
3436.86007	0.10911
3434.93142	0.10965
3433.00276	0.11046
3431.07411	0.11139
3429.14546	0.11191
3427.21680	0.11184
3425.28815	0.11174
3423.35950	0.11211
3421.43084	0.11286
3419.50219	0.11354
3417.57354	0.11395
3415.64489	0.11441
3413.71623	0.11494
3411.78758	0.11512
3409.85893	0.11537
3407.93027	0.11615
3406.00162	0.11683
3404.07297	0.11716
3402.14431	0.11767
3400.21566	0.11848
3398.28701	0.11918
3396.35835	0.11951
3394.42970	0.11971
3392.50105	0.11991
3390.57239	0.12012
3388.64374	0.12060
3386.71509	0.12130
3384.78643	0.12173
3382.85778	0.12178
3380.92913	0.12188
3379.00047	0.12235
3377.07182	0.12292
3375.14317	0.12334
3373.21451	0.12395
3371.28586	0.12493
3369.35721	0.12590
3367.42855	0.12670
3365.49990	0.12771
3363.57125	0.12891
3361.64259	0.12980
3359.71394	0.13032
3357.78529	0.13100
3355.85663	0.13220
3353.92798	0.13356
3351.99933	0.13471
3350.07068	0.13579
3348.14202	0.13695
3346.21337	0.13788
3344.28472	0.13846
3342.35606	0.13923
3340.42741	0.14043
3338.49876	0.14153
3336.57010	0.14230
3334.64145	0.14295
3332.71280	0.14375
3330.78414	0.14492
3328.85549	0.14629
3326.92684	0.14744
3324.99818	0.14804
3323.06953	0.14829
3321.14088	0.14871
3319.21222	0.14944
3317.28357	0.15005
3315.35492	0.15036
3313.42626	0.15060
3311.49761	0.15096
3309.56896	0.15147
3307.64030	0.15208
3305.71165	0.15254
3303.78300	0.15273
3301.85434	0.15283
3299.92569	0.15306
3297.99704	0.15344
3296.06838	0.15363
3294.13973	0.15334
3292.21108	0.15284
3290.28242	0.15244
3288.35377	0.15217
3286.42512	0.15207
3284.49646	0.15219
3282.56781	0.15253
3280.63916	0.15289
3278.71051	0.15287
3276.78185	0.15248
3274.85320	0.15196
3272.92455	0.15117
3270.99589	0.15020
3269.06724	0.14959
3267.13859	0.14944
3265.20993	0.14930
3263.28128	0.14889
3261.35263	0.14813
3259.42397	0.14717
3257.49532	0.14640
3255.56667	0.14583
3253.63801	0.14521
3251.70936	0.14463
3249.78071	0.14418
3247.85205	0.14360
3245.92340	0.14293
3243.99475	0.14239
3242.06609	0.14189
3240.13744	0.14141
3238.20879	0.14097
3236.28013	0.14054
3234.35148	0.14010
3232.42283	0.13961
3230.49417	0.13909
3228.56552	0.13866
3226.63687	0.13825
3224.70821	0.13770
3222.77956	0.13720
3220.85091	0.13694
3218.92225	0.13678
3216.99360	0.13643
3215.06495	0.13580
3213.13630	0.13521
3211.20764	0.13477
3209.27899	0.13417
3207.35034	0.13344
3205.42168	0.13297
3203.49303	0.13281
3201.56438	0.13282
3199.63572	0.13276
3197.70707	0.13229
3195.77842	0.13130
3193.84976	0.13011
3191.92111	0.12923
3189.99246	0.12892
3188.06380	0.12878
3186.13515	0.12829
3184.20650	0.12732
3182.27784	0.12620
3180.34919	0.12535
3178.42054	0.12475
3176.49188	0.12398
3174.56323	0.12302
3172.63458	0.12225
3170.70592	0.12156
3168.77727	0.12075
3166.84862	0.11995
3164.91996	0.11914
3162.99131	0.11828
3161.06266	0.11755
3159.13400	0.11703
3157.20535	0.11644
3155.27670	0.11552
3153.34804	0.11447
3151.41939	0.11353
3149.49074	0.11271
3147.56209	0.11200
3145.63343	0.11149
3143.70478	0.11117
3141.77613	0.11076
3139.84747	0.10998
3137.91882	0.10897
3135.99017	0.10795
3134.06151	0.10703
3132.13286	0.10650
3130.20421	0.10651
3128.27555	0.10667
3126.34690	0.10652
3124.41825	0.10604
3122.48959	0.10547
3120.56094	0.10505
3118.63229	0.10491
3116.70363	0.10492
3114.77498	0.10467
3112.84633	0.10417
3110.91767	0.10399
3108.98902	0.10426
3107.06037	0.10455
3105.13171	0.10465
3103.20306	0.10461
3101.27441	0.10459
3099.34575	0.10475
3097.41710	0.10486
3095.48845	0.10476
3093.55979	0.10487
3091.63114	0.10540
3089.70249	0.10586
3087.77383	0.10597
3085.84518	0.10603
3083.91653	0.10629
3081.98787	0.10663
3080.05922	0.10671
3078.13057	0.10654
3076.20192	0.10638
3074.27326	0.10621
3072.34461	0.10614
3070.41596	0.10637
3068.48730	0.10659
3066.55865	0.10648
3064.63000	0.10615
3062.70134	0.10567
3060.77269	0.10510
3058.84404	0.10467
3056.91538	0.10438
3054.98673	0.10394
3053.05808	0.10327
3051.12942	0.10248
3049.20077	0.10166
3047.27212	0.10082
3045.34346	0.09992
3043.41481	0.09904
3041.48616	0.09829
3039.55750	0.09750
3037.62885	0.09672
3035.70020	0.09613
3033.77154	0.09560
3031.84289	0.09494
3029.91424	0.09427
3027.98558	0.09379
3026.05693	0.09335
3024.12828	0.09282
3022.19962	0.09219
3020.27097	0.09157
3018.34232	0.09106
3016.41366	0.09055
3014.48501	0.08992
3012.55636	0.08937
3010.62771	0.08909
3008.69905	0.08903
3006.77040	0.08902
3004.84175	0.08906
3002.91309	0.08914
3000.98444	0.08902
2999.05579	0.08873
2997.12713	0.08859
2995.19848	0.08884
2993.26983	0.08931
2991.34117	0.08969
2989.41252	0.08990
2987.48387	0.09017
2985.55521	0.09069
2983.62656	0.09145
2981.69791	0.09230
2979.76925	0.09299
2977.84060	0.09325
2975.91195	0.09324
2973.98329	0.09342
2972.05464	0.09391
2970.12599	0.09443
2968.19733	0.09474
2966.26868	0.09491
2964.34003	0.09517
2962.41137	0.09557
2960.48272	0.09589
2958.55407	0.09609
2956.62541	0.09626
2954.69676	0.09631
2952.76811	0.09634
2950.83945	0.09646
2948.91080	0.09653
2946.98215	0.09657
2945.05349	0.09677
2943.12484	0.09719
2941.19619	0.09784
2939.26754	0.09839
2937.33888	0.09847
2935.41023	0.09825
2933.48158	0.09783
2931.55292	0.09736
2929.62427	0.09722
2927.69562	0.09741
2925.76696	0.09743
2923.83831	0.09705
2921.90966	0.09647
2919.98100	0.09581
2918.05235	0.09502
2916.12370	0.09396
2914.19504	0.09262
2912.26639	0.09135
2910.33774	0.09029
2908.40908	0.08929
2906.48043	0.08844
2904.55178	0.08784
2902.62312	0.08728
2900.69447	0.08673
2898.76582	0.08643
2896.83716	0.08633
2894.90851	0.08603
2892.97986	0.08546
2891.05120	0.08500
2889.12255	0.08491
2887.19390	0.08495
2885.26524	0.08487
2883.33659	0.08473
2881.40794	0.08476
2879.47928	0.08498
2877.55063	0.08512
2875.62198	0.08494
2873.69333	0.08453
2871.76467	0.08411
2869.83602	0.08370
2867.90737	0.08322
2865.97871	0.08245
2864.05006	0.08145
2862.12141	0.08057
2860.19275	0.08002
2858.26410	0.07971
2856.33545	0.07949
2854.40679	0.07930
2852.47814	0.07911
2850.54949	0.07867
2848.62083	0.07792
2846.69218	0.07727
2844.76353	0.07690
2842.83487	0.07623
2840.90622	0.07516
2838.97757	0.07440
2837.04891	0.07403
2835.12026	0.07372
2833.19161	0.07344
2831.26295	0.07317
2829.33430	0.07277
2827.40565	0.07229
2825.47699	0.07188
2823.54834	0.07152
2821.61969	0.07112
2819.69103	0.07069
2817.76238	0.07034
2815.83373	0.07013
2813.90507	0.07003
2811.97642	0.06998
2810.04777	0.06982
2808.11912	0.06951
2806.19046	0.06923
2804.26181	0.06902
2802.33316	0.06883
2800.40450	0.06859
2798.47585	0.06833
2796.54720	0.06801
2794.61854	0.06772
2792.68989	0.06761
2790.76124	0.06754
2788.83258	0.06728
2786.90393	0.06690
2784.97528	0.06651
2783.04662	0.06614
2781.11797	0.06582
2779.18932	0.06560
2777.26066	0.06552
2775.33201	0.06550
2773.40336	0.06536
2771.47470	0.06512
2769.54605	0.06487
2767.61740	0.06462
2765.68874	0.06438
2763.76009	0.06415
2761.83144	0.06391
2759.90278	0.06377
2757.97413	0.06357
2756.04548	0.06314
2754.11682	0.06276
2752.18817	0.06275
2750.25952	0.06283
2748.33086	0.06263
2746.40221	0.06228
2744.47356	0.06201
2742.54490	0.06181
2740.61625	0.06152
2738.68760	0.06120
2736.75895	0.06105
2734.83029	0.06094
2732.90164	0.06076
2730.97299	0.06057
2729.04433	0.06035
2727.11568	0.06010
2725.18703	0.05993
2723.25837	0.05978
2721.32972	0.05968
2719.40107	0.05966
2717.47241	0.05945
2715.54376	0.05907
2713.61511	0.05887
2711.68645	0.05880
2709.75780	0.05876
2707.82915	0.05880
2705.90049	0.05865
2703.97184	0.05816
2702.04319	0.05771
2700.11453	0.05758
2698.18588	0.05757
2696.25723	0.05735
2694.32857	0.05691
2692.39992	0.05656
2690.47127	0.05645
2688.54261	0.05647
2686.61396	0.05653
2684.68531	0.05647
2682.75665	0.05617
2680.82800	0.05580
2678.89935	0.05565
2676.97069	0.05566
2675.04204	0.05559
2673.11339	0.05545
2671.18474	0.05535
2669.25608	0.05524
2667.32743	0.05518
2665.39878	0.05533
2663.47012	0.05555
2661.54147	0.05546
2659.61282	0.05504
2657.68416	0.05467
2655.75551	0.05441
2653.82686	0.05417
2651.89820	0.05398
2649.96955	0.05382
2648.04090	0.05365
2646.11224	0.05352
2644.18359	0.05335
2642.25494	0.05308
2640.32628	0.05284
2638.39763	0.05256
2636.46898	0.05211
2634.54032	0.05155
2632.61167	0.05092
2630.68302	0.05045
2628.75436	0.05034
2626.82571	0.05043
2624.89706	0.05053
2622.96840	0.05053
2621.03975	0.05033
2619.11110	0.04995
2617.18244	0.04954
2615.25379	0.04914
2613.32514	0.04873
2611.39648	0.04837
2609.46783	0.04792
2607.53918	0.04733
2605.61052	0.04695
2603.68187	0.04702
2601.75322	0.04728
2599.82457	0.04725
2597.89591	0.04685
2595.96726	0.04654
2594.03861	0.04655
2592.10995	0.04651
2590.18130	0.04613
2588.25265	0.04560
2586.32399	0.04514
2584.39534	0.04485
2582.46669	0.04483
2580.53803	0.04489
2578.60938	0.04475
2576.68073	0.04462
2574.75207	0.04469
2572.82342	0.04483
2570.89477	0.04480
2568.96611	0.04433
2567.03746	0.04358
2565.10881	0.04310
2563.18015	0.04308
2561.25150	0.04321
2559.32285	0.04328
2557.39419	0.04327
2555.46554	0.04322
2553.53689	0.04319
2551.60823	0.04318
2549.67958	0.04297
2547.75093	0.04255
2545.82227	0.04226
2543.89362	0.04227
2541.96497	0.04220
2540.03631	0.04188
2538.10766	0.04169
2536.17901	0.04176
2534.25036	0.04174
2532.32170	0.04162
2530.39305	0.04159
2528.46440	0.04149
2526.53574	0.04116
2524.60709	0.04062
2522.67844	0.04019
2520.74978	0.04008
2518.82113	0.04014
2516.89248	0.04026
2514.96382	0.04026
2513.03517	0.04007
2511.10652	0.03988
2509.17786	0.03976
2507.24921	0.03969
2505.32056	0.03973
2503.39190	0.03997
2501.46325	0.04014
2499.53460	0.03984
2497.60594	0.03924
2495.67729	0.03896
2493.74864	0.03918
2491.81998	0.03936
2489.89133	0.03908
2487.96268	0.03859
2486.03402	0.03840
2484.10537	0.03851
2482.17672	0.03860
2480.24806	0.03862
2478.31941	0.03852
2476.39076	0.03835
2474.46210	0.03815
2472.53345	0.03787
2470.60480	0.03780
2468.67615	0.03802
2466.74749	0.03791
2464.81884	0.03770
2462.89019	0.03794
2460.96153	0.03832
2459.03288	0.03841
2457.10423	0.03818
2455.17557	0.03772
2453.24692	0.03719
2451.31827	0.03686
2449.38961	0.03672
2447.46096	0.03648
2445.53231	0.03631
2443.60365	0.03648
2441.67500	0.03680
2439.74635	0.03701
2437.81769	0.03700
2435.88904	0.03689
2433.96039	0.03683
2432.03173	0.03678
2430.10308	0.03662
2428.17443	0.03639
2426.24577	0.03630
2424.31712	0.03643
2422.38847	0.03661
2420.45981	0.03667
2418.53116	0.03664
2416.60251	0.03660
2414.67385	0.03657
2412.74520	0.03646
2410.81655	0.03635
2408.88789	0.03629
2406.95924	0.03618
2405.03059	0.03602
2403.10193	0.03594
2401.17328	0.03603
2399.24463	0.03603
2397.31598	0.03586
2395.38732	0.03570
2393.45867	0.03596
2391.53002	0.03638
2389.60136	0.03659
2387.67271	0.03661
2385.74406	0.03654
2383.81540	0.03638
2381.88675	0.03630
2379.95810	0.03646
2378.02944	0.03672
2376.10079	0.03675
2374.17214	0.03643
2372.24348	0.03610
2370.31483	0.03621
2368.38618	0.03665
2366.45752	0.03685
2364.52887	0.03673
2362.60022	0.03662
2360.67156	0.03666
2358.74291	0.03680
2356.81426	0.03700
2354.88560	0.03713
2352.95695	0.03707
2351.02830	0.03694
2349.09964	0.03690
2347.17099	0.03695
2345.24234	0.03692
2343.31368	0.03675
2341.38503	0.03669
2339.45638	0.03691
2337.52772	0.03712
2335.59907	0.03709
2333.67042	0.03694
2331.74177	0.03680
2329.81311	0.03674
2327.88446	0.03694
2325.95581	0.03730
2324.02715	0.03749
2322.09850	0.03749
2320.16985	0.03737
2318.24119	0.03686
2316.31254	0.03592
2314.38389	0.03511
2312.45523	0.03491
2310.52658	0.03508
2308.59793	0.03508
2306.66927	0.03468
2304.74062	0.03412
2302.81197	0.03375
2300.88331	0.03365
2298.95466	0.03353
2297.02601	0.03334
2295.09735	0.03314
2293.16870	0.03286
2291.24005	0.03256
2289.31139	0.03231
2287.38274	0.03188
2285.45409	0.03128
2283.52543	0.03085
2281.59678	0.03067
2279.66813	0.03054
2277.73947	0.03043
2275.81082	0.03036
2273.88217	0.03019
2271.95351	0.02984
2270.02486	0.02949
2268.09621	0.02919
2266.16755	0.02872
2264.23890	0.02843
2262.31025	0.02879
2260.38160	0.02910
2258.45294	0.02871
2256.52429	0.02818
2254.59564	0.02766
2252.66698	0.02678
2250.73833	0.02607
2248.80968	0.02620
2246.88102	0.02693
2244.95237	0.02692
2243.02372	0.02629
2241.09506	0.02588
2239.16641	0.02559
2237.23776	0.02515
2235.30910	0.02501
2233.38045	0.02528
2231.45180	0.02542
2229.52314	0.02511
2227.59449	0.02439
2225.66584	0.02376
2223.73718	0.02383
2221.80853	0.02435
2219.87988	0.02445
2217.95122	0.02396
2216.02257	0.02317
2214.09392	0.02224
2212.16526	0.02145
2210.23661	0.02102
2208.30796	0.02135
2206.37930	0.02208
2204.45065	0.02189
2202.52200	0.02096
2200.59334	0.02047
2198.66469	0.02048
2196.73604	0.02078
2194.80739	0.02106
2192.87873	0.02090
2190.95008	0.02052
2189.02143	0.02015
2187.09277	0.01943
2185.16412	0.01850
2183.23547	0.01788
2181.30681	0.01787
2179.37816	0.01845
2177.44951	0.01874
2175.52085	0.01792
2173.59220	0.01659
2171.66355	0.01582
2169.73489	0.01600
2167.80624	0.01657
2165.87759	0.01608
2163.94893	0.01434
2162.02028	0.01290
2160.09163	0.01197
2158.16297	0.01140
2156.23432	0.01223
2154.30567	0.01383
2152.37701	0.01511
2150.44836	0.01672
2148.51971	0.01862
2146.59105	0.01951
2144.66240	0.01958
2142.73375	0.01977
2140.80509	0.02011
2138.87644	0.02042
2136.94779	0.02054
2135.01913	0.02015
2133.09048	0.01970
2131.16183	0.02003
2129.23318	0.02076
2127.30452	0.02143
2125.37587	0.02243
2123.44722	0.02335
2121.51856	0.02345
2119.58991	0.02325
2117.66126	0.02333
2115.73260	0.02333
2113.80395	0.02317
2111.87530	0.02315
2109.94664	0.02321
2108.01799	0.02322
2106.08934	0.02305
2104.16068	0.02274
2102.23203	0.02254
2100.30338	0.02257
2098.37472	0.02269
2096.44607	0.02250
2094.51742	0.02220
2092.58876	0.02211
2090.66011	0.02236
2088.73146	0.02273
2086.80280	0.02275
2084.87415	0.02247
2082.94550	0.02222
2081.01684	0.02181
2079.08819	0.02103
2077.15954	0.02035
2075.23088	0.02033
2073.30223	0.02076
2071.37358	0.02097
2069.44492	0.02060
2067.51627	0.01994
2065.58762	0.01929
2063.65896	0.01868
2061.73031	0.01845
2059.80166	0.01863
2057.87301	0.01872
2055.94435	0.01867
2054.01570	0.01907
2052.08705	0.01980
2050.15839	0.01974
2048.22974	0.01878
2046.30109	0.01791
2044.37243	0.01718
2042.44378	0.01642
2040.51513	0.01585
2038.58647	0.01547
2036.65782	0.01560
2034.72917	0.01613
2032.80051	0.01597
2030.87186	0.01481
2028.94321	0.01328
2027.01455	0.01228
2025.08590	0.01218
2023.15725	0.01217
2021.22859	0.01204
2019.29994	0.01254
2017.37129	0.01378
2015.44263	0.01538
2013.51398	0.01671
2011.58533	0.01696
2009.65667	0.01639
2007.72802	0.01578
2005.79937	0.01500
2003.87071	0.01410
2001.94206	0.01393
2000.01341	0.01460
1998.08475	0.01543
1996.15610	0.01577
1994.22745	0.01562
1992.29880	0.01567
1990.37014	0.01612
1988.44149	0.01642
1986.51284	0.01632
1984.58418	0.01630
1982.65553	0.01693
1980.72688	0.01765
1978.79822	0.01740
1976.86957	0.01625
1974.94092	0.01473
1973.01226	0.01324
1971.08361	0.01272
1969.15496	0.01359
1967.22630	0.01480
1965.29765	0.01542
1963.36900	0.01560
1961.44034	0.01596
1959.51169	0.01644
1957.58304	0.01623
1955.65438	0.01540
1953.72573	0.01499
1951.79708	0.01537
1949.86842	0.01592
1947.93977	0.01615
1946.01112	0.01638
1944.08246	0.01688
1942.15381	0.01737
1940.22516	0.01775
1938.29650	0.01795
1936.36785	0.01803
1934.43920	0.01810
1932.51054	0.01796
1930.58189	0.01755
1928.65324	0.01729
1926.72458	0.01730
1924.79593	0.01742
1922.86728	0.01769
1920.93863	0.01788
1919.00997	0.01784
1917.08132	0.01806
1915.15267	0.01858
1913.22401	0.01890
1911.29536	0.01890
1909.36671	0.01871
1907.43805	0.01856
1905.50940	0.01859
1903.58075	0.01867
1901.65209	0.01873
1899.72344	0.01876
1897.79479	0.01864
1895.86613	0.01849
1893.93748	0.01841
1892.00883	0.01839
1890.08017	0.01862
1888.15152	0.01897
1886.22287	0.01895
1884.29421	0.01863
1882.36556	0.01853
1880.43691	0.01863
1878.50825	0.01858
1876.57960	0.01844
1874.65095	0.01849
1872.72229	0.01868
1870.79364	0.01866
1868.86499	0.01833
1866.93633	0.01815
1865.00768	0.01822
1863.07903	0.01828
1861.15037	0.01823
1859.22172	0.01821
1857.29307	0.01841
1855.36442	0.01871
1853.43576	0.01868
1851.50711	0.01824
1849.57846	0.01786
1847.64980	0.01786
1845.72115	0.01799
1843.79250	0.01810
1841.86384	0.01824
1839.93519	0.01817
1838.00654	0.01800
1836.07788	0.01799
1834.14923	0.01813
1832.22058	0.01819
1830.29192	0.01816
1828.36327	0.01825
1826.43462	0.01830
1824.50596	0.01820
1822.57731	0.01805
1820.64866	0.01793
1818.72000	0.01790
1816.79135	0.01787
1814.86270	0.01772
1812.93404	0.01747
1811.00539	0.01725
1809.07674	0.01717
1807.14808	0.01720
1805.21943	0.01733
1803.29078	0.01743
1801.36212	0.01741
1799.43347	0.01730
1797.50482	0.01720
1795.57616	0.01725
1793.64751	0.01733
1791.71886	0.01738
1789.79021	0.01745
1787.86155	0.01740
1785.93290	0.01725
1784.00425	0.01721
1782.07559	0.01726
1780.14694	0.01723
1778.21829	0.01712
1776.28963	0.01707
1774.36098	0.01709
1772.43233	0.01715
1770.50367	0.01720
1768.57502	0.01703
1766.64637	0.01685
1764.71771	0.01685
1762.78906	0.01691
1760.86041	0.01701
1758.93175	0.01707
1757.00310	0.01711
1755.07445	0.01732
1753.14579	0.01748
1751.21714	0.01754
1749.28849	0.01778
1747.35983	0.01807
1745.43118	0.01832
1743.50253	0.01866
1741.57387	0.01906
1739.64522	0.01943
1737.71657	0.01990
1735.78791	0.02027
1733.85926	0.02056
1731.93061	0.02094
1730.00195	0.02116
1728.07330	0.02143
1726.14465	0.02191
1724.21599	0.02247
1722.28734	0.02308
1720.35869	0.02365
1718.43004	0.02408
1716.50138	0.02470
1714.57273	0.02554
1712.64408	0.02650
1710.71542	0.02773
1708.78677	0.02936
1706.85812	0.03143
1704.92946	0.03402
1703.00081	0.03696
1701.07216	0.03993
1699.14350	0.04331
1697.21485	0.04678
1695.28620	0.05021
1693.35754	0.05383
1691.42889	0.05727
1689.50024	0.06091
1687.57158	0.06490
1685.64293	0.06876
1683.71428	0.07268
1681.78562	0.07698
1679.85697	0.08161
1677.92832	0.08669
1675.99966	0.09195
1674.07101	0.09742
1672.14236	0.10303
1670.21370	0.10863
1668.28505	0.11433
1666.35640	0.12003
1664.42774	0.12557
1662.49909	0.13098
1660.57044	0.13610
1658.64178	0.14076
1656.71313	0.14506
1654.78448	0.14868
1652.85583	0.15165
1650.92717	0.15441
1648.99852	0.15677
1647.06987	0.15886
1645.14121	0.16087
1643.21256	0.16261
1641.28391	0.16420
1639.35525	0.16586
1637.42660	0.16738
1635.49795	0.16853
1633.56929	0.16931
1631.64064	0.16940
1629.71199	0.16867
1627.78333	0.16709
1625.85468	0.16446
1623.92603	0.16068
1621.99737	0.15612
1620.06872	0.15117
1618.14007	0.14577
1616.21141	0.14017
1614.28276	0.13463
1612.35411	0.12902
1610.42545	0.12355
1608.49680	0.11838
1606.56815	0.11352
1604.63949	0.10896
1602.71084	0.10473
1600.78219	0.10096
1598.85353	0.09767
1596.92488	0.09480
1594.99623	0.09230
1593.06757	0.09027
1591.13892	0.08875
1589.21027	0.08768
1587.28161	0.08694
1585.35296	0.08649
1583.42431	0.08641
1581.49566	0.08689
1579.56700	0.08796
1577.63835	0.08932
1575.70970	0.09097
1573.78104	0.09321
1571.85239	0.09579
1569.92374	0.09873
1567.99508	0.10200
1566.06643	0.10541
1564.13778	0.10907
1562.20912	0.11287
1560.28047	0.11631
1558.35182	0.11965
1556.42316	0.12285
1554.49451	0.12552
1552.56586	0.12779
1550.63720	0.12965
1548.70855	0.13125
1546.77990	0.13266
1544.85124	0.13377
1542.92259	0.13446
1540.99394	0.13455
1539.06528	0.13435
1537.13663	0.13414
1535.20798	0.13355
1533.27932	0.13262
1531.35067	0.13165
1529.42202	0.13059
1527.49336	0.12940
1525.56471	0.12802
1523.63606	0.12644
1521.70740	0.12466
1519.77875	0.12294
1517.85010	0.12105
1515.92145	0.11885
1513.99279	0.11637
1512.06414	0.11361
1510.13549	0.11071
1508.20683	0.10738
1506.27818	0.10366
1504.34953	0.10008
1502.42087	0.09656
1500.49222	0.09308
1498.56357	0.08967
1496.63491	0.08623
1494.70626	0.08291
1492.77761	0.07979
1490.84895	0.07689
1488.92030	0.07436
1486.99165	0.07227
1485.06299	0.07071
1483.13434	0.06969
1481.20569	0.06914
1479.27703	0.06913
1477.34838	0.06967
1475.41973	0.07066
1473.49107	0.07185
1471.56242	0.07326
1469.63377	0.07499
1467.70511	0.07692
1465.77646	0.07890
1463.84781	0.08088
1461.91915	0.08299
1459.99050	0.08523
1458.06185	0.08732
1456.13319	0.08912
1454.20454	0.09056
1452.27589	0.09147
1450.34724	0.09194
1448.41858	0.09186
1446.48993	0.09129
1444.56128	0.09042
1442.63262	0.08937
1440.70397	0.08822
1438.77532	0.08683
1436.84666	0.08505
1434.91801	0.08316
1432.98936	0.08128
1431.06070	0.07958
1429.13205	0.07825
1427.20340	0.07732
1425.27474	0.07668
1423.34609	0.07634
1421.41744	0.07626
1419.48878	0.07622
1417.56013	0.07624
1415.63148	0.07633
1413.70282	0.07660
1411.77417	0.07701
1409.84552	0.07751
1407.91686	0.07816
1405.98821	0.07887
1404.05956	0.07945
1402.13090	0.07973
1400.20225	0.07966
1398.27360	0.07943
1396.34494	0.07914
1394.41629	0.07880
1392.48764	0.07847
1390.55898	0.07810
1388.63033	0.07764
1386.70168	0.07713
1384.77302	0.07659
1382.84437	0.07596
1380.91572	0.07536
1378.98707	0.07475
1377.05841	0.07400
1375.12976	0.07307
1373.20111	0.07200
1371.27245	0.07082
1369.34380	0.06954
1367.41515	0.06823
1365.48649	0.06692
1363.55784	0.06572
1361.62919	0.06475
1359.70053	0.06399
1357.77188	0.06343
1355.84323	0.06326
1353.91457	0.06354
1351.98592	0.06411
1350.05727	0.06484
1348.12861	0.06579
1346.19996	0.06694
1344.27131	0.06810
1342.34265	0.06911
1340.41400	0.06991
1338.48535	0.07051
1336.55669	0.07081
1334.62804	0.07071
1332.69939	0.07014
1330.77073	0.06916
1328.84208	0.06801
1326.91343	0.06698
1324.98477	0.06617
1323.05612	0.06557
1321.12747	0.06517
1319.19881	0.06490
1317.27016	0.06467
1315.34151	0.06440
1313.41286	0.06395
1311.48420	0.06337
1309.55555	0.06279
1307.62690	0.06229
1305.69824	0.06188
1303.76959	0.06152
1301.84094	0.06115
1299.91228	0.06075
1297.98363	0.06045
1296.05498	0.06035
1294.12632	0.06052
1292.19767	0.06100
1290.26902	0.06170
1288.34036	0.06250
1286.41171	0.06332
1284.48306	0.06404
1282.55440	0.06459
1280.62575	0.06495
1278.69710	0.06517
1276.76844	0.06524
1274.83979	0.06523
1272.91114	0.06527
1270.98248	0.06545
1269.05383	0.06576
1267.12518	0.06615
1265.19652	0.06664
1263.26787	0.06723
1261.33922	0.06791
1259.41056	0.06869
1257.48191	0.06960
1255.55326	0.07063
1253.62460	0.07180
1251.69595	0.07307
1249.76730	0.07445
1247.83864	0.07593
1245.90999	0.07735
1243.98134	0.07860
1242.05269	0.07978
1240.12403	0.08085
1238.19538	0.08163
1236.26673	0.08203
1234.33807	0.08203
1232.40942	0.08155
1230.48077	0.08057
1228.55211	0.07922
1226.62346	0.07761
1224.69481	0.07573
1222.76615	0.07371
1220.83750	0.07180
1218.90885	0.07017
1216.98019	0.06885
1215.05154	0.06793
1213.12289	0.06742
1211.19423	0.06728
1209.26558	0.06749
1207.33693	0.06795
1205.40827	0.06838
1203.47962	0.06857
1201.55097	0.06831
1199.62231	0.06747
1197.69366	0.06629
1195.76501	0.06494
1193.83635	0.06356
1191.90770	0.06222
1189.97905	0.06092
1188.05039	0.05969
1186.12174	0.05865
1184.19309	0.05777
1182.26443	0.05707
1180.33578	0.05659
1178.40713	0.05625
1176.47848	0.05598
1174.54982	0.05581
1172.62117	0.05569
1170.69252	0.05550
1168.76386	0.05528
1166.83521	0.05522
1164.90656	0.05533
1162.97790	0.05537
1161.04925	0.05513
1159.12060	0.05462
1157.19194	0.05394
1155.26329	0.05318
1153.33464	0.05232
1151.40598	0.05134
1149.47733	0.05026
1147.54868	0.04927
1145.62002	0.04862
1143.69137	0.04815
1141.76272	0.04764
1139.83406	0.04708
1137.90541	0.04659
1135.97676	0.04614
1134.04810	0.04575
1132.11945	0.04559
1130.19080	0.04564
1128.26214	0.04572
1126.33349	0.04570
1124.40484	0.04555
1122.47618	0.04533
1120.54753	0.04518
1118.61888	0.04517
1116.69022	0.04529
1114.76157	0.04541
1112.83292	0.04548
1110.90427	0.04571
1108.97561	0.04624
1107.04696	0.04678
1105.11831	0.04711
1103.18965	0.04743
1101.26100	0.04792
1099.33235	0.04850
1097.40369	0.04906
1095.47504	0.04956
1093.54639	0.05011
1091.61773	0.05100
1089.68908	0.05223
1087.76043	0.05353
1085.83177	0.05479
1083.90312	0.05593
1081.97447	0.05678
1080.04581	0.05717
1078.11716	0.05713
1076.18851	0.05679
1074.25985	0.05628
1072.33120	0.05578
1070.40255	0.05548
1068.47389	0.05539
1066.54524	0.05538
1064.61659	0.05539
1062.68793	0.05534
1060.75928	0.05511
1058.83063	0.05477
1056.90197	0.05440
1054.97332	0.05398
1053.04467	0.05357
1051.11601	0.05318
1049.18736	0.05275
1047.25871	0.05236
1045.33005	0.05218
1043.40140	0.05217
1041.47275	0.05220
1039.54410	0.05234
1037.61544	0.05271
1035.68679	0.05325
1033.75814	0.05377
1031.82948	0.05399
1029.90083	0.05376
1027.97218	0.05314
1026.04352	0.05225
1024.11487	0.05130
1022.18622	0.05047
1020.25756	0.04977
1018.32891	0.04921
1016.40026	0.04879
1014.47160	0.04831
1012.54295	0.04764
1010.61430	0.04697
1008.68564	0.04633
1006.75699	0.04563
1004.82834	0.04492
1002.89968	0.04434
1000.97103	0.04381
999.04238	0.04321
997.11372	0.04255
995.18507	0.04193
993.25642	0.04139
991.32776	0.04093
989.39911	0.04055
987.47046	0.04019
985.54180	0.03984
983.61315	0.03959
981.68450	0.03950
979.75584	0.03951
977.82719	0.03951
975.89854	0.03945
973.96989	0.03935
972.04123	0.03918
970.11258	0.03887
968.18393	0.03848
966.25527	0.03808
964.32662	0.03764
962.39797	0.03722
960.46931	0.03696
958.54066	0.03680
956.61201	0.03661
954.68335	0.03636
952.75470	0.03610
950.82605	0.03582
948.89739	0.03557
946.96874	0.03545
945.04009	0.03548
943.11143	0.03554
941.18278	0.03561
939.25413	0.03557
937.32547	0.03542
935.39682	0.03532
933.46817	0.03535
931.53951	0.03540
929.61086	0.03540
927.68221	0.03531
925.75355	0.03516
923.82490	0.03499
921.89625	0.03478
919.96759	0.03455
918.03894	0.03435
916.11029	0.03414
914.18163	0.03391
912.25298	0.03372
910.32433	0.03355
908.39567	0.03330
906.46702	0.03296
904.53837	0.03267
902.60972	0.03249
900.68106	0.03234
898.75241	0.03222
896.82376	0.03225
894.89510	0.03228
892.96645	0.03214
891.03780	0.03191
889.10914	0.03172
887.18049	0.03162
885.25184	0.03163
883.32318	0.03177
881.39453	0.03199
879.46588	0.03221
877.53722	0.03242
875.60857	0.03261
873.67992	0.03263
871.75126	0.03242
869.82261	0.03215
867.89396	0.03204
865.96530	0.03195
864.03665	0.03177
862.10800	0.03165
860.17934	0.03160
858.25069	0.03155
856.32204	0.03163
854.39338	0.03182
852.46473	0.03194
850.53608	0.03194
848.60742	0.03188
846.67877	0.03180
844.75012	0.03179
842.82146	0.03182
840.89281	0.03176
838.96416	0.03159
837.03551	0.03151
835.10685	0.03152
833.17820	0.03152
831.24955	0.03158
829.32089	0.03173
827.39224	0.03187
825.46359	0.03195
823.53493	0.03201
821.60628	0.03218
819.67763	0.03255
817.74897	0.03302
815.82032	0.03340
813.89167	0.03355
811.96301	0.03358
810.03436	0.03363
808.10571	0.03378
806.17705	0.03394
804.24840	0.03406
802.31975	0.03424
800.39109	0.03446
798.46244	0.03469
796.53379	0.03492
794.60513	0.03512
792.67648	0.03529
790.74783	0.03555
788.81917	0.03579
786.89052	0.03598
784.96187	0.03617
783.03321	0.03635
781.10456	0.03653
779.17591	0.03675
777.24725	0.03703
775.31860	0.03735
773.38995	0.03770
771.46130	0.03810
769.53264	0.03848
767.60399	0.03871
765.67534	0.03889
763.74668	0.03922
761.81803	0.03949
759.88938	0.03959
757.96072	0.03978
756.03207	0.04021
754.10342	0.04075
752.17476	0.04119
750.24611	0.04142
748.31746	0.04158
746.38880	0.04182
744.46015	0.04222
742.53150	0.04256
740.60284	0.04261
738.67419	0.04257
736.74554	0.04278
734.81688	0.04325
732.88823	0.04376
730.95958	0.04413
729.03092	0.04438
727.10227	0.04458
725.17362	0.04476
723.24496	0.04510
721.31631	0.04556
719.38766	0.04594
717.45900	0.04624
715.53035	0.04652
713.60170	0.04679
711.67304	0.04708
709.74439	0.04738
707.81574	0.04773
705.88708	0.04813
703.95843	0.04850
702.02978	0.04879
700.10113	0.04906
698.17247	0.04929
696.24382	0.04939
694.31517	0.04937
692.38651	0.04940
690.45786	0.04959
688.52921	0.04990
686.60055	0.05021
684.67190	0.05046
682.74325	0.05071
680.81459	0.05099
678.88594	0.05123
676.95729	0.05142
675.02863	0.05162
673.09998	0.05187
671.17133	0.05215
669.24267	0.05241
667.31402	0.05257
665.38537	0.05269
663.45671	0.05287
661.52806	0.05309
659.59941	0.05326
657.67075	0.05336
655.74210	0.05340
653.81345	0.05344
651.88479	0.05352
649.95614	0.05362
648.02749	0.05376
646.09883	0.05391
644.17018	0.05396
642.24153	0.05391
640.31287	0.05392
638.38422	0.05399
636.45557	0.05412
634.52692	0.05432
632.59826	0.05455
630.66961	0.05451
628.74096	0.05372
626.81230	0.05439
624.88365	0.05565
622.95500	0.05676
621.02634	0.05765
619.09769	0.05797
617.16904	0.05761
615.24038	0.05721
613.31173	0.05666
611.38308	0.05596
609.45442	0.05540
607.52577	0.05488
605.59712	0.05496
603.66846	0.05598
601.73981	0.05704
599.81116	0.05725
597.88250	0.05662
595.95385	0.05565
594.02520	0.05503
592.09654	0.05516
590.16789	0.05554
588.23924	0.05557
586.31058	0.05535
584.38193	0.05537
582.45328	0.05564
580.52462	0.05576
578.59597	0.05565
576.66732	0.05554
574.73866	0.05568
572.81001	0.05602
570.88136	0.05644
568.95270	0.05697
567.02405	0.05737
565.09540	0.05732
563.16675	0.05715
561.23809	0.05728
559.30944	0.05747
557.38079	0.05748
555.45213	0.05742
553.52348	0.05737
551.59483	0.05722
549.66617	0.05695
547.73752	0.05667
545.80887	0.05650
543.88021	0.05633
541.95156	0.05609
540.02291	0.05589
538.09425	0.05588
536.16560	0.05601
534.23695	0.05615
532.30829	0.05621
530.37964	0.05606
528.45099	0.05584
526.52233	0.05570
524.59368	0.05541
522.66503	0.05483
520.73637	0.05425
518.80772	0.05394
516.87907	0.05382
514.95041	0.05380
513.02176	0.05376
511.09311	0.05355
509.16445	0.05332
507.23580	0.05319
505.30715	0.05295
503.37849	0.05244
501.44984	0.05199
499.52119	0.05183
497.59254	0.05162
495.66388	0.05117
493.73523	0.05066
491.80658	0.05020
489.87792	0.04978
487.94927	0.04942
486.02062	0.04921
484.09196	0.04900
482.16331	0.04853
480.23466	0.04795
478.30600	0.04767
476.37735	0.04763
474.44870	0.04745
472.52004	0.04707
470.59139	0.04666
468.66274	0.04629
466.73408	0.04602
464.80543	0.04577
462.87678	0.04539
460.94812	0.04490
459.01947	0.04441
457.09082	0.04398
455.16216	0.04361
453.23351	0.04323
451.30486	0.04285
449.37620	0.04248
447.44755	0.04218
445.51890	0.04191
443.59024	0.04160
441.66159	0.04120
439.73294	0.04083
437.80428	0.04059
435.87563	0.04044
433.94698	0.04026
432.01833	0.04001
430.08967	0.03971
428.16102	0.03939
426.23237	0.03903
424.30371	0.03863
422.37506	0.03829
420.44641	0.03800
418.51775	0.03778
416.58910	0.03760
414.66045	0.03737
412.73179	0.03709
410.80314	0.03677
408.87449	0.03646
406.94583	0.03624
405.01718	0.03612
403.08853	0.03595
401.15987	0.03567
399.23122	0.03530
