3996.16951	0.04629
3994.24086	0.04618
3992.31221	0.04617
3990.38355	0.04609
3988.45490	0.04570
3986.52625	0.04531
3984.59759	0.04508
3982.66894	0.04509
3980.74029	0.04528
3978.81163	0.04531
3976.88298	0.04502
3974.95433	0.04473
3973.02567	0.04480
3971.09702	0.04521
3969.16837	0.04576
3967.23972	0.04612
3965.31106	0.04587
3963.38241	0.04515
3961.45376	0.04458
3959.52510	0.04419
3957.59645	0.04383
3955.66780	0.04376
3953.73914	0.04381
3951.81049	0.04358
3949.88184	0.04331
3947.95318	0.04347
3946.02453	0.04400
3944.09588	0.04435
3942.16722	0.04433
3940.23857	0.04430
3938.30992	0.04448
3936.38126	0.04454
3934.45261	0.04412
3932.52396	0.04359
3930.59530	0.04359
3928.66665	0.04384
3926.73800	0.04374
3924.80934	0.04376
3922.88069	0.04454
3920.95204	0.04533
3919.02338	0.04519
3917.09473	0.04450
3915.16608	0.04391
3913.23742	0.04349
3911.30877	0.04341
3909.38012	0.04368
3907.45146	0.04370
3905.52281	0.04347
3903.59416	0.04346
3901.66550	0.04334
3899.73685	0.04298
3897.80820	0.04295
3895.87955	0.04312
3893.95089	0.04306
3892.02224	0.04311
3890.09359	0.04363
3888.16493	0.04408
3886.23628	0.04398
3884.30763	0.04347
3882.37897	0.04274
3880.45032	0.04203
3878.52167	0.04170
3876.59301	0.04168
3874.66436	0.04160
3872.73571	0.04164
3870.80705	0.04219
3868.87840	0.04274
3866.94975	0.04277
3865.02109	0.04261
3863.09244	0.04250
3861.16379	0.04231
3859.23513	0.04200
3857.30648	0.04173
3855.37783	0.04166
3853.44917	0.04180
3851.52052	0.04197
3849.59187	0.04177
3847.66321	0.04126
3845.73456	0.04112
3843.80591	0.04170
3841.87725	0.04257
3839.94860	0.04277
3838.01995	0.04194
3836.09129	0.04104
3834.16264	0.04067
3832.23399	0.04034
3830.30534	0.03990
3828.37668	0.03984
3826.44803	0.04033
3824.51938	0.04092
3822.59072	0.04101
3820.66207	0.04053
3818.73342	0.04001
3816.80476	0.03988
3814.87611	0.04029
3812.94746	0.04079
3811.01880	0.04070
3809.09015	0.04016
3807.16150	0.03980
3805.23284	0.03987
3803.30419	0.04020
3801.37554	0.04027
3799.44688	0.03994
3797.51823	0.03938
3795.58958	0.03887
3793.66092	0.03884
3791.73227	0.03934
3789.80362	0.03987
3787.87496	0.04019
3785.94631	0.04017
3784.01766	0.03960
3782.08900	0.03889
3780.16035	0.03868
3778.23170	0.03882
3776.30304	0.03878
3774.37439	0.03848
3772.44574	0.03829
3770.51708	0.03835
3768.58843	0.03824
3766.65978	0.03790
3764.73112	0.03792
3762.80247	0.03833
3760.87382	0.03860
3758.94517	0.03857
3757.01651	0.03844
3755.08786	0.03828
3753.15921	0.03786
3751.23055	0.03743
3749.30190	0.03770
3747.37325	0.03851
3745.44459	0.03891
3743.51594	0.03867
3741.58729	0.03829
3739.65863	0.03822
3737.72998	0.03841
3735.80133	0.03832
3733.87267	0.03769
3731.94402	0.03710
3730.01537	0.03716
3728.08671	0.03761
3726.15806	0.03787
3724.22941	0.03769
3722.30075	0.03721
3720.37210	0.03688
3718.44345	0.03692
3716.51479	0.03712
3714.58614	0.03725
3712.65749	0.03704
3710.72883	0.03641
3708.80018	0.03582
3706.87153	0.03562
3704.94287	0.03580
3703.01422	0.03631
3701.08557	0.03685
3699.15691	0.03680
3697.22826	0.03626
3695.29961	0.03593
3693.37095	0.03591
3691.44230	0.03605
3689.51365	0.03629
3687.58500	0.03651
3685.65634	0.03663
3683.72769	0.03662
3681.79904	0.03652
3679.87038	0.03647
3677.94173	0.03646
3676.01308	0.03646
3674.08442	0.03656
3672.15577	0.03656
3670.22712	0.03619
3668.29846	0.03605
3666.36981	0.03689
3664.44116	0.03819
3662.51250	0.03882
3660.58385	0.03868
3658.65520	0.03846
3656.72654	0.03849
3654.79789	0.03878
3652.86924	0.03907
3650.94058	0.03923
3649.01193	0.03972
3647.08328	0.04061
3645.15462	0.04118
3643.22597	0.04114
3641.29732	0.04108
3639.36866	0.04148
3637.44001	0.04214
3635.51136	0.04268
3633.58270	0.04316
3631.65405	0.04369
3629.72540	0.04425
3627.79674	0.04489
3625.86809	0.04559
3623.93944	0.04593
3622.01079	0.04599
3620.08213	0.04603
3618.15348	0.04608
3616.22483	0.04620
3614.29617	0.04644
3612.36752	0.04700
3610.43887	0.04804
3608.51021	0.04920
3606.58156	0.04990
3604.65291	0.05032
3602.72425	0.05068
3600.79560	0.05075
3598.86695	0.05077
3596.93829	0.05116
3595.00964	0.05179
3593.08099	0.05237
3591.15233	0.05290
3589.22368	0.05356
3587.29503	0.05442
3585.36637	0.05524
3583.43772	0.05586
3581.50907	0.05638
3579.58041	0.05691
3577.65176	0.05753
3575.72311	0.05819
3573.79445	0.05859
3571.86580	0.05872
3569.93715	0.05912
3568.00849	0.06008
3566.07984	0.06122
3564.15119	0.06219
3562.22253	0.06275
3560.29388	0.06298
3558.36523	0.06363
3556.43657	0.06498
3554.50792	0.06628
3552.57927	0.06696
3550.65062	0.06735
3548.72196	0.06804
3546.79331	0.06890
3544.86466	0.06953
3542.93600	0.07014
3541.00735	0.07100
3539.07870	0.07173
3537.15004	0.07213
3535.22139	0.07267
3533.29274	0.07349
3531.36408	0.07411
3529.43543	0.07448
3527.50678	0.07492
3525.57812	0.07532
3523.64947	0.07567
3521.72082	0.07627
3519.79216	0.07707
3517.86351	0.07778
3515.93486	0.07835
3514.00620	0.07892
3512.07755	0.07965
3510.14890	0.08058
3508.22024	0.08141
3506.29159	0.08198
3504.36294	0.08255
3502.43428	0.08326
3500.50563	0.08394
3498.57698	0.08444
3496.64832	0.08472
3494.71967	0.08485
3492.79102	0.08522
3490.86236	0.08599
3488.93371	0.08682
3487.00506	0.08730
3485.07641	0.08747
3483.14775	0.08772
3481.21910	0.08814
3479.29045	0.08846
3477.36179	0.08877
3475.43314	0.08939
3473.50449	0.09031
3471.57583	0.09131
3469.64718	0.09220
3467.71853	0.09269
3465.78987	0.09272
3463.86122	0.09279
3461.93257	0.09319
3460.00391	0.09344
3458.07526	0.09338
3456.14661	0.09359
3454.21795	0.09420
3452.28930	0.09480
3450.36065	0.09548
3448.43199	0.09644
3446.50334	0.09734
3444.57469	0.09767
3442.64603	0.09767
3440.71738	0.09810
3438.78873	0.09896
3436.86007	0.09974
3434.93142	0.10045
3433.00277	0.10129
3431.07411	0.10200
3429.14546	0.10221
3427.21681	0.10207
3425.28815	0.10211
3423.35950	0.10241
3421.43085	0.10271
3419.50219	0.10311
3417.57354	0.10392
3415.64489	0.10493
3413.71624	0.10548
3411.78758	0.10546
3409.85893	0.10560
3407.93028	0.10618
3406.00162	0.10685
3404.07297	0.10746
3402.14432	0.10800
3400.21566	0.10833
3398.28701	0.10837
3396.35836	0.10841
3394.42970	0.10877
3392.50105	0.10953
3390.57240	0.11040
3388.64374	0.11089
3386.71509	0.11102
3384.78644	0.11136
3382.85778	0.11215
3380.92913	0.11289
3379.00048	0.11324
3377.07182	0.11355
3375.14317	0.11412
3373.21452	0.11491
3371.28586	0.11580
3369.35721	0.11663
3367.42856	0.11722
3365.49990	0.11779
3363.57125	0.11866
3361.64260	0.11987
3359.71394	0.12112
3357.78529	0.12210
3355.85664	0.12298
3353.92798	0.12396
3351.99933	0.12491
3350.07068	0.12587
3348.14202	0.12699
3346.21337	0.12802
3344.28472	0.12877
3342.35607	0.12941
3340.42741	0.13011
3338.49876	0.13092
3336.57011	0.13179
3334.64145	0.13272
3332.71280	0.13350
3330.78415	0.13406
3328.85549	0.13478
3326.92684	0.13567
3324.99819	0.13628
3323.06953	0.13648
3321.14088	0.13658
3319.21223	0.13708
3317.28357	0.13811
3315.35492	0.13908
3313.42627	0.13958
3311.49761	0.13972
3309.56896	0.13978
3307.64031	0.14001
3305.71165	0.14044
3303.78300	0.14107
3301.85435	0.14182
3299.92569	0.14227
3297.99704	0.14218
3296.06839	0.14196
3294.13973	0.14186
3292.21108	0.14185
3290.28243	0.14209
3288.35377	0.14259
3286.42512	0.14285
3284.49647	0.14255
3282.56781	0.14200
3280.63916	0.14161
3278.71051	0.14132
3276.78186	0.14095
3274.85320	0.14070
3272.92455	0.14060
3270.99590	0.14049
3269.06724	0.14020
3267.13859	0.13957
3265.20994	0.13879
3263.28128	0.13821
3261.35263	0.13779
3259.42398	0.13726
3257.49532	0.13658
3255.56667	0.13576
3253.63802	0.13489
3251.70936	0.13441
3249.78071	0.13426
3247.85206	0.13389
3245.92340	0.13324
3243.99475	0.13247
3242.06610	0.13158
3240.13744	0.13093
3238.20879	0.13081
3236.28014	0.13079
3234.35148	0.13041
3232.42283	0.12993
3230.49418	0.12961
3228.56552	0.12920
3226.63687	0.12850
3224.70822	0.12777
3222.77956	0.12737
3220.85091	0.12731
3218.92226	0.12737
3216.99360	0.12723
3215.06495	0.12657
3213.13630	0.12566
3211.20764	0.12498
3209.27899	0.12465
3207.35034	0.12444
3205.42169	0.12426
3203.49303	0.12413
3201.56438	0.12385
3199.63573	0.12326
3197.70707	0.12251
3195.77842	0.12176
3193.84977	0.12101
3191.92111	0.12026
3189.99246	0.11949
3188.06381	0.11873
3186.13515	0.11806
3184.20650	0.11762
3182.27785	0.11744
3180.34919	0.11708
3178.42054	0.11610
3176.49189	0.11488
3174.56323	0.11394
3172.63458	0.11316
3170.70593	0.11233
3168.77727	0.11162
3166.84862	0.11091
3164.91997	0.11001
3162.99131	0.10938
3161.06266	0.10901
3159.13401	0.10826
3157.20535	0.10728
3155.27670	0.10652
3153.34805	0.10598
3151.41939	0.10548
3149.49074	0.10483
3147.56209	0.10415
3145.63343	0.10361
3143.70478	0.10312
3141.77613	0.10260
3139.84748	0.10196
3137.91882	0.10102
3135.99017	0.10011
3134.06152	0.09967
3132.13286	0.09950
3130.20421	0.09915
3128.27556	0.09863
3126.34690	0.09809
3124.41825	0.09759
3122.48960	0.09718
3120.56094	0.09694
3118.63229	0.09683
3116.70364	0.09679
3114.77498	0.09674
3112.84633	0.09663
3110.91768	0.09649
3108.98902	0.09636
3107.06037	0.09623
3105.13172	0.09620
3103.20306	0.09629
3101.27441	0.09637
3099.34576	0.09638
3097.41710	0.09660
3095.48845	0.09713
3093.55980	0.09764
3091.63114	0.09791
3089.70249	0.09806
3087.77384	0.09819
3085.84518	0.09839
3083.91653	0.09869
3081.98788	0.09901
3080.05922	0.09930
3078.13057	0.09959
3076.20192	0.09970
3074.27326	0.09945
3072.34461	0.09898
3070.41596	0.09862
3068.48731	0.09851
3066.55865	0.09847
3064.63000	0.09817
3062.70135	0.09758
3060.77269	0.09702
3058.84404	0.09663
3056.91539	0.09629
3054.98673	0.09584
3053.05808	0.09521
3051.12943	0.09451
3049.20077	0.09389
3047.27212	0.09328
3045.34347	0.09258
3043.41481	0.09177
3041.48616	0.09086
3039.55751	0.08999
3037.62885	0.08934
3035.70020	0.08894
3033.77155	0.08864
3031.84289	0.08823
3029.91424	0.08770
3027.98559	0.08716
3026.05693	0.08679
3024.12828	0.08648
3022.19963	0.08597
3020.27097	0.08531
3018.34232	0.08465
3016.41367	0.08404
3014.48501	0.08364
3012.55636	0.08338
3010.62771	0.08294
3008.69905	0.08239
3006.77040	0.08207
3004.84175	0.08206
3002.91309	0.08218
3000.98444	0.08212
2999.05579	0.08188
2997.12714	0.08190
2995.19848	0.08242
2993.26983	0.08293
2991.34118	0.08303
2989.41252	0.08309
2987.48387	0.08351
2985.55522	0.08421
2983.62656	0.08495
2981.69791	0.08548
2979.76926	0.08577
2977.84060	0.08601
2975.91195	0.08629
2973.98330	0.08654
2972.05464	0.08692
2970.12599	0.08755
2968.19734	0.08815
2966.26868	0.08852
2964.34003	0.08891
2962.41138	0.08948
2960.48272	0.09002
2958.55407	0.09021
2956.62542	0.09011
2954.69676	0.08999
2952.76811	0.09020
2950.83946	0.09062
2948.91080	0.09068
2946.98215	0.09047
2945.05350	0.09058
2943.12484	0.09093
2941.19619	0.09103
2939.26754	0.09089
2937.33888	0.09094
2935.41023	0.09127
2933.48158	0.09153
2931.55293	0.09152
2929.62427	0.09135
2927.69562	0.09114
2925.76697	0.09100
2923.83831	0.09088
2921.90966	0.09072
2919.98101	0.09051
2918.05235	0.09007
2916.12370	0.08915
2914.19505	0.08796
2912.26639	0.08692
2910.33774	0.08602
2908.40909	0.08512
2906.48043	0.08425
2904.55178	0.08354
2902.62313	0.08302
2900.69447	0.08252
2898.76582	0.08200
2896.83717	0.08170
2894.90851	0.08157
2892.97986	0.08137
2891.05121	0.08111
2889.12255	0.08096
2887.19390	0.08094
2885.26525	0.08090
2883.33659	0.08079
2881.40794	0.08072
2879.47929	0.08082
2877.55063	0.08092
2875.62198	0.08074
2873.69333	0.08048
2871.76467	0.08031
2869.83602	0.08010
2867.90737	0.07966
2865.97871	0.07885
2864.05006	0.07788
2862.12141	0.07716
2860.19276	0.07667
2858.26410	0.07609
2856.33545	0.07542
2854.40680	0.07501
2852.47814	0.07484
2850.54949	0.07460
2848.62084	0.07407
2846.69218	0.07335
2844.76353	0.07276
2842.83488	0.07233
2840.90622	0.07193
2838.97757	0.07157
2837.04892	0.07104
2835.12026	0.07032
2833.19161	0.06978
2831.26296	0.06944
2829.33430	0.06906
2827.40565	0.06862
2825.47700	0.06825
2823.54834	0.06791
2821.61969	0.06766
2819.69104	0.06767
2817.76238	0.06774
2815.83373	0.06750
2813.90508	0.06706
2811.97642	0.06678
2810.04777	0.06667
2808.11912	0.06644
2806.19046	0.06603
2804.26181	0.06561
2802.33316	0.06539
2800.40450	0.06530
2798.47585	0.06509
2796.54720	0.06482
2794.61855	0.06457
2792.68989	0.06426
2790.76124	0.06390
2788.83259	0.06353
2786.90393	0.06320
2784.97528	0.06293
2783.04663	0.06268
2781.11797	0.06247
2779.18932	0.06235
2777.26067	0.06222
2775.33201	0.06198
2773.40336	0.06172
2771.47471	0.06151
2769.54605	0.06139
2767.61740	0.06138
2765.68875	0.06123
2763.76009	0.06084
2761.83144	0.06049
2759.90279	0.06020
2757.97413	0.05992
2756.04548	0.05976
2754.11683	0.05975
2752.18817	0.05974
2750.25952	0.05959
2748.33087	0.05929
2746.40221	0.05894
2744.47356	0.05867
2742.54491	0.05845
2740.61625	0.05824
2738.68760	0.05811
2736.75895	0.05800
2734.83029	0.05780
2732.90164	0.05756
2730.97299	0.05740
2729.04433	0.05725
2727.11568	0.05703
2725.18703	0.05684
2723.25838	0.05663
2721.32972	0.05631
2719.40107	0.05610
2717.47242	0.05608
2715.54376	0.05602
2713.61511	0.05589
2711.68646	0.05567
2709.75780	0.05534
2707.82915	0.05514
2705.90050	0.05519
2703.97184	0.05516
2702.04319	0.05496
2700.11454	0.05475
2698.18588	0.05455
2696.25723	0.05433
2694.32858	0.05415
2692.39992	0.05408
2690.47127	0.05409
2688.54262	0.05412
2686.61396	0.05408
2684.68531	0.05390
2682.75666	0.05369
2680.82800	0.05369
2678.89935	0.05374
2676.97070	0.05358
2675.04204	0.05336
2673.11339	0.05322
2671.18474	0.05304
2669.25608	0.05290
2667.32743	0.05286
2665.39878	0.05275
2663.47012	0.05248
2661.54147	0.05227
2659.61282	0.05232
2657.68417	0.05245
2655.75551	0.05234
2653.82686	0.05205
2651.89821	0.05190
2649.96955	0.05185
2648.04090	0.05159
2646.11225	0.05105
2644.18359	0.05054
2642.25494	0.05021
2640.32629	0.04999
2638.39763	0.04983
2636.46898	0.04976
2634.54033	0.04974
2632.61167	0.04955
2630.68302	0.04910
2628.75437	0.04858
2626.82571	0.04804
2624.89706	0.04759
2622.96841	0.04743
2621.03975	0.04748
2619.11110	0.04738
2617.18245	0.04705
2615.25379	0.04667
2613.32514	0.04649
2611.39649	0.04661
2609.46783	0.04651
2607.53918	0.04576
2605.61053	0.04485
2603.68187	0.04460
2601.75322	0.04495
2599.82457	0.04512
2597.89591	0.04487
2595.96726	0.04459
2594.03861	0.04431
2592.10995	0.04380
2590.18130	0.04323
2588.25265	0.04302
2586.32400	0.04322
2584.39534	0.04336
2582.46669	0.04312
2580.53804	0.04285
2578.60938	0.04274
2576.68073	0.04255
2574.75208	0.04227
2572.82342	0.04214
2570.89477	0.04225
2568.96612	0.04229
2567.03746	0.04211
2565.10881	0.04191
2563.18016	0.04178
2561.25150	0.04175
2559.32285	0.04191
2557.39420	0.04202
2555.46554	0.04177
2553.53689	0.04130
2551.60824	0.04095
2549.67958	0.04078
2547.75093	0.04066
2545.82228	0.04068
2543.89362	0.04072
2541.96497	0.04053
2540.03632	0.04035
2538.10766	0.04044
2536.17901	0.04060
2534.25036	0.04041
2532.32170	0.03986
2530.39305	0.03939
2528.46440	0.03932
2526.53574	0.03940
2524.60709	0.03938
2522.67844	0.03922
2520.74978	0.03885
2518.82113	0.03850
2516.89248	0.03845
2514.96383	0.03858
2513.03517	0.03881
2511.10652	0.03901
2509.17787	0.03882
2507.24921	0.03847
2505.32056	0.03840
2503.39191	0.03850
2501.46325	0.03847
2499.53460	0.03822
2497.60595	0.03790
2495.67729	0.03779
2493.74864	0.03795
2491.81999	0.03822
2489.89133	0.03838
2487.96268	0.03825
2486.03403	0.03786
2484.10537	0.03743
2482.17672	0.03721
2480.24807	0.03718
2478.31941	0.03701
2476.39076	0.03680
2474.46211	0.03687
2472.53345	0.03691
2470.60480	0.03680
2468.67615	0.03676
2466.74749	0.03670
2464.81884	0.03657
2462.89019	0.03652
2460.96153	0.03665
2459.03288	0.03673
2457.10423	0.03653
2455.17557	0.03632
2453.24692	0.03628
2451.31827	0.03620
2449.38962	0.03606
2447.46096	0.03606
2445.53231	0.03619
2443.60366	0.03616
2441.67500	0.03599
2439.74635	0.03603
2437.81770	0.03634
2435.88904	0.03658
2433.96039	0.03643
2432.03174	0.03610
2430.10308	0.03600
2428.17443	0.03607
2426.24578	0.03615
2424.31712	0.03622
2422.38847	0.03621
2420.45982	0.03596
2418.53116	0.03572
2416.60251	0.03575
2414.67386	0.03561
2412.74520	0.03506
2410.81655	0.03458
2408.88790	0.03447
2406.95924	0.03451
2405.03059	0.03473
2403.10194	0.03512
2401.17328	0.03533
2399.24463	0.03530
2397.31598	0.03544
2395.38732	0.03568
2393.45867	0.03580
2391.53002	0.03568
2389.60136	0.03542
2387.67271	0.03522
2385.74406	0.03526
2383.81540	0.03543
2381.88675	0.03541
2379.95810	0.03525
2378.02945	0.03521
2376.10079	0.03545
2374.17214	0.03558
2372.24349	0.03548
2370.31483	0.03492
2368.38618	0.03591
2366.45753	0.03636
2364.52887	0.03671
2362.60022	0.03637
2360.67157	0.03623
2358.74291	0.03512
2356.81426	0.03611
2354.88561	0.03616
2352.95695	0.03558
2351.02830	0.03587
2349.09965	0.03587
2347.17099	0.03599
2345.24234	0.03595
2343.31369	0.03598
2341.38503	0.03583
2339.45638	0.03515
2337.52773	0.03591
2335.59907	0.03632
2333.67042	0.03559
2331.74177	0.03527
2329.81311	0.03541
2327.88446	0.03555
2325.95581	0.03559
2324.02715	0.03557
2322.09850	0.03553
2320.16985	0.03543
2318.24119	0.03508
2316.31254	0.03464
2314.38389	0.03433
2312.45524	0.03413
2310.52658	0.03398
2308.59793	0.03387
2306.66928	0.03365
2304.74062	0.03310
2302.81197	0.03251
2300.88332	0.03233
2298.95466	0.03269
2297.02601	0.03302
2295.09736	0.03298
2293.16870	0.03265
2291.24005	0.03212
2289.31140	0.03160
2287.38274	0.03130
2285.45409	0.03094
2283.52544	0.03044
2281.59678	0.03006
2279.66813	0.02977
2277.73948	0.02956
2275.81082	0.02952
2273.88217	0.02926
2271.95352	0.02868
2270.02486	0.02836
2268.09621	0.02830
2266.16756	0.02818
2264.23890	0.02819
2262.31025	0.02826
2260.38160	0.02793
2258.45294	0.02744
2256.52429	0.02717
2254.59564	0.02681
2252.66698	0.02619
2250.73833	0.02563
2248.80968	0.02532
2246.88102	0.02485
2244.95237	0.02475
2243.02372	0.02511
2241.09507	0.02513
2239.16641	0.02474
2237.23776	0.02482
2235.30911	0.02527
2233.38045	0.02514
2231.45180	0.02444
2229.52315	0.02423
2227.59449	0.02483
2225.66584	0.02529
2223.73719	0.02491
2221.80853	0.02406
2219.87988	0.02320
2217.95123	0.02239
2216.02257	0.02195
2214.09392	0.02241
2212.16527	0.02299
2210.23661	0.02279
2208.30796	0.02274
2206.37931	0.02315
2204.45065	0.02285
2202.52200	0.02171
2200.59335	0.02087
2198.66469	0.02092
2196.73604	0.02105
2194.80739	0.02078
2192.87873	0.02067
2190.95008	0.02070
2189.02143	0.02040
2187.09277	0.02021
2185.16412	0.02039
2183.23547	0.02053
2181.30681	0.02036
2179.37816	0.01946
2177.44951	0.01834
2175.52085	0.01825
2173.59220	0.01856
2171.66355	0.01783
2169.73490	0.01676
2167.80624	0.01668
2165.87759	0.01686
2163.94894	0.01640
2162.02028	0.01586
2160.09163	0.01583
2158.16298	0.01662
2156.23432	0.01785
2154.30567	0.01883
2152.37702	0.01897
2150.44836	0.01847
2148.51971	0.01874
2146.59106	0.01961
2144.66240	0.01928
2142.73375	0.01840
2140.80510	0.01881
2138.87644	0.01996
2136.94779	0.02069
2135.01914	0.02116
2133.09048	0.02158
2131.16183	0.02200
2129.23318	0.02263
2127.30452	0.02320
2125.37587	0.02327
2123.44722	0.02323
2121.51856	0.02343
2119.58991	0.02350
2117.66126	0.02340
2115.73260	0.02338
2113.80395	0.02329
2111.87530	0.02318
2109.94664	0.02316
2108.01799	0.02292
2106.08934	0.02261
2104.16069	0.02246
2102.23203	0.02235
2100.30338	0.02245
2098.37473	0.02241
2096.44607	0.02190
2094.51742	0.02156
2092.58877	0.02208
2090.66011	0.02278
2088.73146	0.02280
2086.80281	0.02262
2084.87415	0.02272
2082.94550	0.02248
2081.01685	0.02173
2079.08819	0.02134
2077.15954	0.02148
2075.23089	0.02135
2073.30223	0.02082
2071.37358	0.02049
2069.44493	0.02037
2067.51627	0.02022
2065.58762	0.01991
2063.65897	0.01961
2061.73031	0.01968
2059.80166	0.01981
2057.87301	0.01933
2055.94435	0.01861
2054.01570	0.01838
2052.08705	0.01826
2050.15839	0.01794
2048.22974	0.01802
2046.30109	0.01843
2044.37243	0.01809
2042.44378	0.01699
2040.51513	0.01601
2038.58647	0.01532
2036.65782	0.01456
2034.72917	0.01381
2032.80052	0.01348
2030.87186	0.01345
2028.94321	0.01314
2027.01456	0.01240
2025.08590	0.01176
2023.15725	0.01174
2021.22860	0.01195
2019.29994	0.01222
2017.37129	0.01302
2015.44264	0.01404
2013.51398	0.01458
2011.58533	0.01441
2009.65668	0.01414
2007.72802	0.01451
2005.79937	0.01532
2003.87072	0.01588
2001.94206	0.01594
2000.01341	0.01600
1998.08476	0.01652
1996.15610	0.01728
1994.22745	0.01790
1992.29880	0.01818
1990.37014	0.01798
1988.44149	0.01722
1986.51284	0.01645
1984.58418	0.01579
1982.65553	0.01486
1980.72688	0.01435
1978.79822	0.01490
1976.86957	0.01545
1974.94092	0.01513
1973.01226	0.01445
1971.08361	0.01407
1969.15496	0.01428
1967.22631	0.01487
1965.29765	0.01517
1963.36900	0.01517
1961.44035	0.01540
1959.51169	0.01587
1957.58304	0.01630
1955.65439	0.01659
1953.72573	0.01701
1951.79708	0.01766
1949.86843	0.01788
1947.93977	0.01744
1946.01112	0.01713
1944.08247	0.01736
1942.15381	0.01768
1940.22516	0.01768
1938.29651	0.01725
1936.36785	0.01686
1934.43920	0.01702
1932.51055	0.01718
1930.58189	0.01716
1928.65324	0.01753
1926.72459	0.01806
1924.79593	0.01832
1922.86728	0.01854
1920.93863	0.01878
1919.00997	0.01880
1917.08132	0.01872
1915.15267	0.01873
1913.22401	0.01877
1911.29536	0.01875
1909.36671	0.01883
1907.43805	0.01909
1905.50940	0.01916
1903.58075	0.01898
1901.65209	0.01908
1899.72344	0.01946
1897.79479	0.01961
1895.86614	0.01965
1893.93748	0.01985
1892.00883	0.01986
1890.08018	0.01952
1888.15152	0.01924
1886.22287	0.01901
1884.29422	0.01872
1882.36556	0.01866
1880.43691	0.01893
1878.50826	0.01916
1876.57960	0.01914
1874.65095	0.01894
1872.72230	0.01874
1870.79364	0.01858
1868.86499	0.01835
1866.93634	0.01816
1865.00768	0.01824
1863.07903	0.01857
1861.15038	0.01880
1859.22172	0.01873
1857.29307	0.01859
1855.36442	0.01864
1853.43576	0.01873
1851.50711	0.01865
1849.57846	0.01849
1847.64980	0.01830
1845.72115	0.01813
1843.79250	0.01806
1841.86384	0.01810
1839.93519	0.01815
1838.00654	0.01828
1836.07788	0.01855
1834.14923	0.01871
1832.22058	0.01855
1830.29192	0.01832
1828.36327	0.01818
1826.43462	0.01806
1824.50597	0.01801
1822.57731	0.01803
1820.64866	0.01794
1818.72001	0.01780
1816.79135	0.01780
1814.86270	0.01785
1812.93405	0.01784
1811.00539	0.01788
1809.07674	0.01799
1807.14809	0.01808
1805.21943	0.01813
1803.29078	0.01814
1801.36213	0.01810
1799.43347	0.01797
1797.50482	0.01777
1795.57617	0.01768
1793.64751	0.01771
1791.71886	0.01769
1789.79021	0.01757
1787.86155	0.01744
1785.93290	0.01735
1784.00425	0.01729
1782.07559	0.01727
1780.14694	0.01725
1778.21829	0.01728
1776.28963	0.01737
1774.36098	0.01741
1772.43233	0.01740
1770.50367	0.01739
1768.57502	0.01733
1766.64637	0.01719
1764.71771	0.01713
1762.78906	0.01722
1760.86041	0.01733
1758.93176	0.01733
1757.00310	0.01731
1755.07445	0.01740
1753.14580	0.01760
1751.21714	0.01785
1749.28849	0.01814
1747.35984	0.01849
1745.43118	0.01882
1743.50253	0.01918
1741.57388	0.01962
1739.64522	0.02002
1737.71657	0.02033
1735.78792	0.02068
1733.85926	0.02112
1731.93061	0.02155
1730.00196	0.02192
1728.07330	0.02235
1726.14465	0.02286
1724.21600	0.02332
1722.28734	0.02371
1720.35869	0.02412
1718.43004	0.02461
1716.50138	0.02519
1714.57273	0.02588
1712.64408	0.02672
1710.71542	0.02778
1708.78677	0.02915
1706.85812	0.03092
1704.92946	0.03311
1703.00081	0.03559
1701.07216	0.03833
1699.14350	0.04123
1697.21485	0.04415
1695.28620	0.04710
1693.35754	0.05018
1691.42889	0.05333
1689.50024	0.05648
1687.57159	0.05966
1685.64293	0.06307
1683.71428	0.06678
1681.78563	0.07063
1679.85697	0.07467
1677.92832	0.07893
1675.99967	0.08343
1674.07101	0.08812
1672.14236	0.09289
1670.21371	0.09777
1668.28505	0.10280
1666.35640	0.10780
1664.42775	0.11265
1662.49909	0.11721
1660.57044	0.12137
1658.64179	0.12520
1656.71313	0.12869
1654.78448	0.13184
1652.85583	0.13479
1650.92717	0.13749
1648.99852	0.13982
1647.06987	0.14193
1645.14121	0.14393
1643.21256	0.14577
1641.28391	0.14746
1639.35525	0.14908
1637.42660	0.15064
1635.49795	0.15211
1633.56929	0.15335
1631.64064	0.15416
1629.71199	0.15434
1627.78333	0.15371
1625.85468	0.15223
1623.92603	0.14992
1621.99738	0.14690
1620.06872	0.14334
1618.14007	0.13938
1616.21142	0.13516
1614.28276	0.13081
1612.35411	0.12629
1610.42546	0.12166
1608.49680	0.11709
1606.56815	0.11272
1604.63950	0.10854
1602.71084	0.10459
1600.78219	0.10094
1598.85354	0.09765
1596.92488	0.09468
1594.99623	0.09200
1593.06758	0.08963
1591.13892	0.08769
1589.21027	0.08618
1587.28162	0.08501
1585.35296	0.08417
1583.42431	0.08378
1581.49566	0.08382
1579.56700	0.08422
1577.63835	0.08505
1575.70970	0.08632
1573.78104	0.08793
1571.85239	0.08991
1569.92374	0.09236
1567.99508	0.09513
1566.06643	0.09801
1564.13778	0.10097
1562.20912	0.10403
1560.28047	0.10720
1558.35182	0.11034
1556.42316	0.11314
1554.49451	0.11557
1552.56586	0.11779
1550.63721	0.11980
1548.70855	0.12145
1546.77990	0.12276
1544.85125	0.12385
1542.92259	0.12476
1540.99394	0.12539
1539.06529	0.12569
1537.13663	0.12578
1535.20798	0.12580
1533.27933	0.12573
1531.35067	0.12544
1529.42202	0.12484
1527.49337	0.12404
1525.56471	0.12316
1523.63606	0.12218
1521.70741	0.12110
1519.77875	0.11999
1517.85010	0.11875
1515.92145	0.11718
1513.99279	0.11521
1512.06414	0.11288
1510.13549	0.11030
1508.20683	0.10757
1506.27818	0.10469
1504.34953	0.10169
1502.42087	0.09863
1500.49222	0.09551
1498.56357	0.09235
1496.63491	0.08915
1494.70626	0.08597
1492.77761	0.08291
1490.84895	0.08010
1488.92030	0.07760
1486.99165	0.07541
1485.06299	0.07363
1483.13434	0.07233
1481.20569	0.07152
1479.27704	0.07124
1477.34838	0.07142
1475.41973	0.07194
1473.49108	0.07284
1471.56242	0.07419
1469.63377	0.07580
1467.70512	0.07746
1465.77646	0.07915
1463.84781	0.08088
1461.91916	0.08267
1459.99050	0.08450
1458.06185	0.08641
1456.13320	0.08832
1454.20454	0.08994
1452.27589	0.09103
1450.34724	0.09162
1448.41858	0.09182
1446.48993	0.09157
1444.56128	0.09093
1442.63262	0.09005
1440.70397	0.08904
1438.77532	0.08787
1436.84666	0.08649
1434.91801	0.08486
1432.98936	0.08319
1431.06070	0.08171
1429.13205	0.08040
1427.20340	0.07927
1425.27474	0.07847
1423.34609	0.07799
1421.41744	0.07767
1419.48878	0.07752
1417.56013	0.07755
1415.63148	0.07764
1413.70283	0.07777
1411.77417	0.07803
1409.84552	0.07844
1407.91687	0.07894
1405.98821	0.07942
1404.05956	0.07980
1402.13091	0.08001
1400.20225	0.08000
1398.27360	0.07979
1396.34495	0.07946
1394.41629	0.07913
1392.48764	0.07885
1390.55899	0.07859
1388.63033	0.07831
1386.70168	0.07804
1384.77303	0.07778
1382.84437	0.07755
1380.91572	0.07732
1378.98707	0.07703
1377.05841	0.07656
1375.12976	0.07582
1373.20111	0.07490
1371.27245	0.07387
1369.34380	0.07275
1367.41515	0.07152
1365.48649	0.07029
1363.55784	0.06921
1361.62919	0.06828
1359.70053	0.06749
1357.77188	0.06694
1355.84323	0.06673
1353.91457	0.06684
1351.98592	0.06724
1350.05727	0.06790
1348.12861	0.06877
1346.19996	0.06980
1344.27131	0.07085
1342.34266	0.07183
1340.41400	0.07272
1338.48535	0.07341
1336.55670	0.07375
1334.62804	0.07370
1332.69939	0.07327
1330.77074	0.07247
1328.84208	0.07148
1326.91343	0.07048
1324.98478	0.06963
1323.05612	0.06899
1321.12747	0.06852
1319.19882	0.06818
1317.27016	0.06795
1315.34151	0.06773
1313.41286	0.06738
1311.48420	0.06689
1309.55555	0.06634
1307.62690	0.06579
1305.69824	0.06535
1303.76959	0.06504
1301.84094	0.06477
1299.91228	0.06447
1297.98363	0.06420
1296.05498	0.06409
1294.12632	0.06415
1292.19767	0.06439
1290.26902	0.06491
1288.34036	0.06564
1286.41171	0.06639
1284.48306	0.06700
1282.55440	0.06747
1280.62575	0.06783
1278.69710	0.06806
1276.76845	0.06818
1274.83979	0.06826
1272.91114	0.06830
1270.98249	0.06839
1269.05383	0.06862
1267.12518	0.06901
1265.19653	0.06947
1263.26787	0.06995
1261.33922	0.07051
1259.41057	0.07127
1257.48191	0.07217
1255.55326	0.07309
1253.62461	0.07410
1251.69595	0.07527
1249.76730	0.07655
1247.83865	0.07791
1245.90999	0.07927
1243.98134	0.08059
1242.05269	0.08185
1240.12403	0.08291
1238.19538	0.08367
1236.26673	0.08417
1234.33807	0.08439
1232.40942	0.08423
1230.48077	0.08369
1228.55211	0.08280
1226.62346	0.08160
1224.69481	0.08016
1222.76615	0.07864
1220.83750	0.07714
1218.90885	0.07575
1216.98019	0.07455
1215.05154	0.07365
1213.12289	0.07307
1211.19423	0.07286
1209.26558	0.07299
1207.33693	0.07330
1205.40828	0.07364
1203.47962	0.07391
1201.55097	0.07393
1199.62232	0.07353
1197.69366	0.07262
1195.76501	0.07144
1193.83636	0.07026
1191.90770	0.06907
1189.97905	0.06788
1188.05040	0.06681
1186.12174	0.06591
1184.19309	0.06513
1182.26444	0.06441
1180.33578	0.06381
1178.40713	0.06337
1176.47848	0.06305
1174.54982	0.06279
1172.62117	0.06264
1170.69252	0.06269
1168.76386	0.06285
1166.83521	0.06297
1164.90656	0.06298
1162.97790	0.06296
1161.04925	0.06292
1159.12060	0.06266
1157.19194	0.06198
1155.26329	0.06096
1153.33464	0.05988
1151.40598	0.05885
1149.47733	0.05789
1147.54868	0.05701
1145.62002	0.05609
1143.69137	0.05516
1141.76272	0.05441
1139.83406	0.05384
1137.90541	0.05337
1135.97676	0.05293
1134.04811	0.05253
1132.11945	0.05219
1130.19080	0.05187
1128.26215	0.05160
1126.33349	0.05142
1124.40484	0.05136
1122.47619	0.05132
1120.54753	0.05116
1118.61888	0.05094
1116.69023	0.05088
1114.76157	0.05098
1112.83292	0.05115
1110.90427	0.05132
1108.97561	0.05154
1107.04696	0.05185
1105.11831	0.05209
1103.18965	0.05220
1101.26100	0.05236
1099.33235	0.05265
1097.40369	0.05309
1095.47504	0.05375
1093.54639	0.05454
1091.61773	0.05537
1089.68908	0.05634
1087.76043	0.05760
1085.83177	0.05901
1083.90312	0.06027
1081.97447	0.06121
1080.04581	0.06182
1078.11716	0.06206
1076.18851	0.06197
1074.25985	0.06169
1072.33120	0.06140
1070.40255	0.06127
1068.47390	0.06130
1066.54524	0.06132
1064.61659	0.06129
1062.68794	0.06125
1060.75928	0.06120
1058.83063	0.06117
1056.90198	0.06104
1054.97332	0.06069
1053.04467	0.06014
1051.11602	0.05955
1049.18736	0.05917
1047.25871	0.05902
1045.33006	0.05880
1043.40140	0.05843
1041.47275	0.05818
1039.54410	0.05826
1037.61544	0.05863
1035.68679	0.05919
1033.75814	0.05973
1031.82948	0.05989
1029.90083	0.05959
1027.97218	0.05895
1026.04352	0.05812
1024.11487	0.05721
1022.18622	0.05629
1020.25756	0.05542
1018.32891	0.05471
1016.40026	0.05409
1014.47160	0.05351
1012.54295	0.05299
1010.61430	0.05244
1008.68564	0.05178
1006.75699	0.05105
1004.82834	0.05032
1002.89968	0.04967
1000.97103	0.04920
999.04238	0.04876
997.11373	0.04817
995.18507	0.04744
993.25642	0.04667
991.32777	0.04602
989.39911	0.04561
987.47046	0.04531
985.54181	0.04493
983.61315	0.04457
981.68450	0.04430
979.75585	0.04415
977.82719	0.04416
975.89854	0.04427
973.96989	0.04438
972.04123	0.04432
970.11258	0.04399
968.18393	0.04348
966.25527	0.04301
964.32662	0.04273
962.39797	0.04252
960.46931	0.04222
958.54066	0.04181
956.61201	0.04134
954.68335	0.04094
952.75470	0.04064
950.82605	0.04039
948.89739	0.04010
946.96874	0.03982
945.04009	0.03974
943.11143	0.03999
941.18278	0.04033
939.25413	0.04042
937.32547	0.04022
935.39682	0.04002
933.46817	0.04002
931.53952	0.04009
929.61086	0.03999
927.68221	0.03979
925.75356	0.03970
923.82490	0.03973
921.89625	0.03969
919.96760	0.03952
918.03894	0.03932
916.11029	0.03913
914.18164	0.03891
912.25298	0.03873
910.32433	0.03861
908.39568	0.03843
906.46702	0.03819
904.53837	0.03798
902.60972	0.03784
900.68106	0.03773
898.75241	0.03754
896.82376	0.03725
894.89510	0.03699
892.96645	0.03677
891.03780	0.03649
889.10914	0.03626
887.18049	0.03621
885.25184	0.03638
883.32318	0.03654
881.39453	0.03650
879.46588	0.03643
877.53722	0.03652
875.60857	0.03655
873.67992	0.03638
871.75126	0.03619
869.82261	0.03608
867.89396	0.03593
865.96530	0.03571
864.03665	0.03560
862.10800	0.03564
860.17935	0.03570
858.25069	0.03573
856.32204	0.03574
854.39339	0.03573
852.46473	0.03565
850.53608	0.03547
848.60743	0.03528
846.67877	0.03514
844.75012	0.03504
842.82147	0.03498
840.89281	0.03491
838.96416	0.03490
837.03551	0.03504
835.10685	0.03516
833.17820	0.03507
831.24955	0.03492
829.32089	0.03496
827.39224	0.03501
825.46359	0.03491
823.53493	0.03496
821.60628	0.03536
819.67763	0.03590
817.74897	0.03629
815.82032	0.03642
813.89167	0.03641
811.96301	0.03640
810.03436	0.03647
808.10571	0.03670
806.17705	0.03707
804.24840	0.03738
802.31975	0.03750
800.39109	0.03757
798.46244	0.03773
796.53379	0.03794
794.60513	0.03806
792.67648	0.03816
790.74783	0.03839
788.81918	0.03867
786.89052	0.03890
784.96187	0.03921
783.03322	0.03966
781.10456	0.04000
779.17591	0.04003
777.24726	0.03998
775.31860	0.04019
773.38995	0.04055
771.46130	0.04078
769.53264	0.04097
767.60399	0.04125
765.67534	0.04150
763.74668	0.04173
761.81803	0.04205
759.88938	0.04235
757.96072	0.04257
756.03207	0.04276
754.10342	0.04299
752.17476	0.04322
750.24611	0.04349
748.31746	0.04384
746.38880	0.04416
744.46015	0.04430
742.53150	0.04436
740.60284	0.04447
738.67419	0.04474
736.74554	0.04525
734.81688	0.04570
732.88823	0.04578
730.95958	0.04574
729.03092	0.04601
727.10227	0.04651
725.17362	0.04692
723.24497	0.04715
721.31631	0.04762
719.38766	0.04816
717.45901	0.04865
715.53035	0.04904
713.60170	0.04934
711.67305	0.04958
709.74439	0.04981
707.81574	0.05017
705.88709	0.05063
703.95843	0.05107
702.02978	0.05136
700.10113	0.05151
698.17247	0.05160
696.24382	0.05167
694.31517	0.05178
692.38651	0.05201
690.45786	0.05225
688.52921	0.05250
686.60055	0.05271
684.67190	0.05288
682.74325	0.05310
680.81459	0.05338
678.88594	0.05369
676.95729	0.05392
675.02863	0.05412
673.09998	0.05435
671.17133	0.05461
669.24267	0.05486
667.31402	0.05511
665.38537	0.05539
663.45671	0.05569
661.52806	0.05590
659.59941	0.05592
657.67075	0.05586
655.74210	0.05592
653.81345	0.05612
651.88480	0.05632
649.95614	0.05649
648.02749	0.05662
646.09884	0.05676
644.17018	0.05694
642.24153	0.05709
640.31288	0.05720
638.38422	0.05728
636.45557	0.05738
634.52692	0.05744
632.59826	0.05735
630.66961	0.05725
628.74096	0.05738
626.81230	0.05686
624.88365	0.05681
622.95500	0.05776
621.02634	0.05753
619.09769	0.05496
617.16904	0.05339
615.24038	0.05366
613.31173	0.05247
611.38308	0.04859
609.45442	0.04662
607.52577	0.04994
605.59712	0.05511
603.66846	0.05802
601.73981	0.05845
599.81116	0.05849
597.88250	0.05869
595.95385	0.05857
594.02520	0.05833
592.09654	0.05845
590.16789	0.05890
588.23924	0.05918
586.31059	0.05919
584.38193	0.05914
582.45328	0.05899
580.52463	0.05879
578.59597	0.05883
576.66732	0.05919
574.73867	0.05959
572.81001	0.05985
570.88136	0.05994
568.95271	0.05990
567.02405	0.05989
565.09540	0.06014
563.16675	0.06066
561.23809	0.06119
559.30944	0.06135
557.38079	0.06108
555.45213	0.06072
553.52348	0.06061
551.59483	0.06065
549.66617	0.06059
547.73752	0.06038
545.80887	0.06009
543.88021	0.05974
541.95156	0.05965
540.02291	0.05986
538.09425	0.06002
536.16560	0.06004
534.23695	0.06000
532.30829	0.05982
530.37964	0.05977
528.45099	0.06006
526.52233	0.06031
524.59368	0.06016
522.66503	0.05974
520.73637	0.05939
518.80772	0.05922
516.87907	0.05910
514.95042	0.05887
513.02176	0.05855
511.09311	0.05828
509.16446	0.05810
507.23580	0.05799
505.30715	0.05792
503.37850	0.05769
501.44984	0.05732
499.52119	0.05709
497.59254	0.05701
495.66388	0.05677
493.73523	0.05634
491.80658	0.05595
489.87792	0.05551
487.94927	0.05505
486.02062	0.05489
484.09196	0.05485
482.16331	0.05449
480.23466	0.05392
478.30600	0.05352
476.37735	0.05328
474.44870	0.05309
472.52004	0.05287
470.59139	0.05255
468.66274	0.05212
466.73408	0.05166
464.80543	0.05131
462.87678	0.05111
460.94812	0.05099
459.01947	0.05091
457.09082	0.05074
455.16216	0.05024
453.23351	0.04960
451.30486	0.04917
449.37620	0.04885
447.44755	0.04845
445.51890	0.04806
443.59025	0.04775
441.66159	0.04747
439.73294	0.04720
437.80429	0.04696
435.87563	0.04666
433.94698	0.04636
432.01833	0.04625
430.08967	0.04628
428.16102	0.04621
426.23237	0.04589
424.30371	0.04538
422.37506	0.04494
420.44641	0.04466
418.51775	0.04434
416.58910	0.04398
414.66045	0.04376
412.73179	0.04363
410.80314	0.04338
408.87449	0.04304
406.94583	0.04281
405.01718	0.04266
403.08853	0.04251
401.15987	0.04229
399.23122	0.04202
