3997.45528	0.06394
3996.16951	0.06352
3994.88374	0.06307
3993.59798	0.06293
3992.31221	0.06328
3991.02644	0.06384
3989.74067	0.06414
3988.45490	0.06404
3987.16913	0.06372
3985.88336	0.06330
3984.59759	0.06287
3983.31183	0.06261
3982.02606	0.06268
3980.74029	0.06299
3979.45452	0.06326
3978.16875	0.06345
3976.88298	0.06373
3975.59721	0.06416
3974.31144	0.06456
3973.02567	0.06475
3971.73991	0.06466
3970.45414	0.06425
3969.16837	0.06353
3967.88260	0.06266
3966.59683	0.06199
3965.31106	0.06173
3964.02529	0.06182
3962.73952	0.06209
3961.45376	0.06244
3960.16799	0.06285
3958.88222	0.06328
3957.59645	0.06357
3956.31068	0.06346
3955.02491	0.06272
3953.73914	0.06151
3952.45337	0.06048
3951.16760	0.06030
3949.88184	0.06093
3948.59607	0.06164
3947.31030	0.06177
3946.02453	0.06143
3944.73876	0.06128
3943.45299	0.06163
3942.16722	0.06219
3940.88145	0.06254
3939.59569	0.06257
3938.30992	0.06238
3937.02415	0.06205
3935.73838	0.06157
3934.45261	0.06110
3933.16684	0.06085
3931.88107	0.06091
3930.59530	0.06119
3929.30953	0.06150
3928.02377	0.06165
3926.73800	0.06158
3925.45223	0.06136
3924.16646	0.06117
3922.88069	0.06115
3921.59492	0.06129
3920.30915	0.06143
3919.02338	0.06128
3917.73762	0.06062
3916.45185	0.05959
3915.16608	0.05873
3913.88031	0.05855
3912.59454	0.05904
3911.30877	0.05969
3910.02300	0.05995
3908.73723	0.05958
3907.45146	0.05876
3906.16570	0.05797
3904.87993	0.05766
3903.59416	0.05791
3902.30839	0.05842
3901.02262	0.05885
3899.73685	0.05899
3898.45108	0.05881
3897.16531	0.05844
3895.87955	0.05805
3894.59378	0.05780
3893.30801	0.05776
3892.02224	0.05792
3890.73647	0.05812
3889.45070	0.05829
3888.16493	0.05842
3886.87916	0.05838
3885.59339	0.05804
3884.30763	0.05765
3883.02186	0.05770
3881.73609	0.05832
3880.45032	0.05903
3879.16455	0.05926
3877.87878	0.05894
3876.59301	0.05835
3875.30724	0.05772
3874.02148	0.05715
3872.73571	0.05692
3871.44994	0.05738
3870.16417	0.05836
3868.87840	0.05926
3867.59263	0.05960
3866.30686	0.05933
3865.02109	0.05872
3863.73532	0.05828
3862.44956	0.05836
3861.16379	0.05866
3859.87802	0.05851
3858.59225	0.05765
3857.30648	0.05668
3856.02071	0.05640
3854.73494	0.05694
3853.44917	0.05758
3852.16341	0.05778
3850.87764	0.05765
3849.59187	0.05746
3848.30610	0.05729
3847.02033	0.05718
3845.73456	0.05714
3844.44879	0.05714
3843.16302	0.05706
3841.87725	0.05692
3840.59149	0.05699
3839.30572	0.05738
3838.01995	0.05778
3836.73418	0.05774
3835.44841	0.05724
3834.16264	0.05672
3832.87687	0.05656
3831.59110	0.05675
3830.30534	0.05695
3829.01957	0.05686
3827.73380	0.05647
3826.44803	0.05611
3825.16226	0.05619
3823.87649	0.05695
3822.59072	0.05803
3821.30495	0.05863
3820.01918	0.05848
3818.73342	0.05809
3817.44765	0.05801
3816.16188	0.05797
3814.87611	0.05747
3813.59034	0.05662
3812.30457	0.05587
3811.01880	0.05544
3809.73303	0.05527
3808.44726	0.05517
3807.16150	0.05474
3805.87573	0.05394
3804.58996	0.05335
3803.30419	0.05353
3802.01842	0.05424
3800.73265	0.05480
3799.44688	0.05500
3798.16111	0.05509
3796.87535	0.05507
3795.58958	0.05468
3794.30381	0.05399
3793.01804	0.05340
3791.73227	0.05326
3790.44650	0.05353
3789.16073	0.05383
3787.87496	0.05382
3786.58919	0.05342
3785.30343	0.05278
3784.01766	0.05212
3782.73189	0.05175
3781.44612	0.05187
3780.16035	0.05240
3778.87458	0.05300
3777.58881	0.05340
3776.30304	0.05358
3775.01728	0.05364
3773.73151	0.05368
3772.44574	0.05376
3771.15997	0.05383
3769.87420	0.05374
3768.58843	0.05348
3767.30266	0.05318
3766.01689	0.05292
3764.73112	0.05260
3763.44536	0.05228
3762.15959	0.05216
3760.87382	0.05234
3759.58805	0.05262
3758.30228	0.05267
3757.01651	0.05240
3755.73074	0.05205
3754.44497	0.05201
3753.15921	0.05229
3751.87344	0.05257
3750.58767	0.05265
3749.30190	0.05262
3748.01613	0.05276
3746.73036	0.05329
3745.44459	0.05392
3744.15882	0.05390
3742.87305	0.05313
3741.58729	0.05230
3740.30152	0.05186
3739.01575	0.05173
3737.72998	0.05169
3736.44421	0.05152
3735.15844	0.05111
3733.87267	0.05065
3732.58690	0.05038
3731.30114	0.05029
3730.01537	0.05026
3728.72960	0.05019
3727.44383	0.05002
3726.15806	0.04975
3724.87229	0.04955
3723.58652	0.04953
3722.30075	0.04956
3721.01498	0.04946
3719.72922	0.04929
3718.44345	0.04917
3717.15768	0.04914
3715.87191	0.04913
3714.58614	0.04914
3713.30037	0.04911
3712.01460	0.04898
3710.72883	0.04877
3709.44307	0.04864
3708.15730	0.04863
3706.87153	0.04869
3705.58576	0.04887
3704.29999	0.04926
3703.01422	0.04979
3701.72845	0.05023
3700.44268	0.05037
3699.15691	0.05030
3697.87115	0.05046
3696.58538	0.05106
3695.29961	0.05177
3694.01384	0.05199
3692.72807	0.05143
3691.44230	0.05045
3690.15653	0.04972
3688.87076	0.04953
3687.58500	0.04954
3686.29923	0.04938
3685.01346	0.04920
3683.72769	0.04938
3682.44192	0.04997
3681.15615	0.05067
3679.87038	0.05106
3678.58461	0.05106
3677.29884	0.05096
3676.01308	0.05092
3674.72731	0.05093
3673.44154	0.05123
3672.15577	0.05209
3670.87000	0.05320
3669.58423	0.05394
3668.29846	0.05409
3667.01269	0.05386
3665.72693	0.05344
3664.44116	0.05302
3663.15539	0.05278
3661.86962	0.05284
3660.58385	0.05312
3659.29808	0.05345
3658.01231	0.05374
3656.72654	0.05398
3655.44077	0.05434
3654.15501	0.05504
3652.86924	0.05611
3651.58347	0.05721
3650.29770	0.05792
3649.01193	0.05814
3647.72616	0.05815
3646.44039	0.05824
3645.15462	0.05849
3643.86886	0.05891
3642.58309	0.05946
3641.29732	0.06012
3640.01155	0.06075
3638.72578	0.06121
3637.44001	0.06149
3636.15424	0.06174
3634.86847	0.06204
3633.58270	0.06234
3632.29694	0.06258
3631.01117	0.06285
3629.72540	0.06319
3628.43963	0.06350
3627.15386	0.06378
3625.86809	0.06412
3624.58232	0.06453
3623.29655	0.06500
3622.01079	0.06566
3620.72502	0.06655
3619.43925	0.06749
3618.15348	0.06817
3616.86771	0.06845
3615.58194	0.06842
3614.29617	0.06828
3613.01040	0.06829
3611.72463	0.06870
3610.43887	0.06957
3609.15310	0.07074
3607.86733	0.07208
3606.58156	0.07363
3605.29579	0.07529
3604.01002	0.07666
3602.72425	0.07740
3601.43848	0.07766
3600.15272	0.07790
3598.86695	0.07846
3597.58118	0.07930
3596.29541	0.08019
3595.00964	0.08092
3593.72387	0.08142
3592.43810	0.08191
3591.15233	0.08265
3589.86656	0.08360
3588.58080	0.08451
3587.29503	0.08517
3586.00926	0.08559
3584.72349	0.08589
3583.43772	0.08616
3582.15195	0.08650
3580.86618	0.08702
3579.58041	0.08786
3578.29464	0.08901
3577.00888	0.09028
3575.72311	0.09150
3574.43734	0.09260
3573.15157	0.09363
3571.86580	0.09461
3570.58003	0.09549
3569.29426	0.09610
3568.00849	0.09631
3566.72273	0.09632
3565.43696	0.09664
3564.15119	0.09760
3562.86542	0.09892
3561.57965	0.09999
3560.29388	0.10055
3559.00811	0.10092
3557.72234	0.10154
3556.43657	0.10247
3555.15081	0.10340
3553.86504	0.10413
3552.57927	0.10488
3551.29350	0.10598
3550.00773	0.10744
3548.72196	0.10888
3547.43619	0.10985
3546.15042	0.11028
3544.86466	0.11048
3543.57889	0.11088
3542.29312	0.11163
3541.00735	0.11268
3539.72158	0.11385
3538.43581	0.11493
3537.15004	0.11570
3535.86427	0.11621
3534.57850	0.11674
3533.29274	0.11748
3532.00697	0.11835
3530.72120	0.11921
3529.43543	0.12014
3528.14966	0.12125
3526.86389	0.12241
3525.57812	0.12330
3524.29235	0.12384
3523.00659	0.12432
3521.72082	0.12498
3520.43505	0.12579
3519.14928	0.12660
3517.86351	0.12741
3516.57774	0.12837
3515.29197	0.12947
3514.00620	0.13043
3512.72043	0.13100
3511.43467	0.13114
3510.14890	0.13114
3508.86313	0.13137
3507.57736	0.13208
3506.29159	0.13320
3505.00582	0.13439
3503.72005	0.13524
3502.43428	0.13558
3501.14852	0.13562
3499.86275	0.13575
3498.57698	0.13617
3497.29121	0.13678
3496.00544	0.13737
3494.71967	0.13792
3493.43390	0.13863
3492.14813	0.13965
3490.86236	0.14087
3489.57660	0.14199
3488.29083	0.14281
3487.00506	0.14331
3485.71929	0.14369
3484.43352	0.14422
3483.14775	0.14505
3481.86198	0.14607
3480.57621	0.14697
3479.29045	0.14753
3478.00468	0.14785
3476.71891	0.14817
3475.43314	0.14853
3474.14737	0.14875
3472.86160	0.14876
3471.57583	0.14886
3470.29006	0.14941
3469.00429	0.15040
3467.71853	0.15151
3466.43276	0.15240
3465.14699	0.15300
3463.86122	0.15341
3462.57545	0.15374
3461.28968	0.15406
3460.00391	0.15436
3458.71814	0.15465
3457.43238	0.15500
3456.14661	0.15544
3454.86084	0.15597
3453.57507	0.15648
3452.28930	0.15695
3451.00353	0.15751
3449.71776	0.15832
3448.43199	0.15938
3447.14622	0.16041
3445.86046	0.16107
3444.57469	0.16130
3443.28892	0.16143
3442.00315	0.16177
3440.71738	0.16238
3439.43161	0.16308
3438.14584	0.16372
3436.86007	0.16431
3435.57431	0.16496
3434.28854	0.16573
3433.00277	0.16657
3431.71700	0.16739
3430.43123	0.16813
3429.14546	0.16880
3427.85969	0.16939
3426.57392	0.16982
3425.28815	0.17006
3424.00239	0.17028
3422.71662	0.17065
3421.43085	0.17116
3420.14508	0.17158
3418.85931	0.17184
3417.57354	0.17203
3416.28777	0.17231
3415.00200	0.17276
3413.71624	0.17341
3412.43047	0.17430
3411.14470	0.17537
3409.85893	0.17648
3408.57316	0.17748
3407.28739	0.17825
3406.00162	0.17884
3404.71585	0.17940
3403.43008	0.18009
3402.14432	0.18088
3400.85855	0.18158
3399.57278	0.18198
3398.28701	0.18196
3397.00124	0.18166
3395.71547	0.18138
3394.42970	0.18146
3393.14393	0.18205
3391.85817	0.18312
3390.57240	0.18436
3389.28663	0.18542
3388.00086	0.18603
3386.71509	0.18624
3385.42932	0.18634
3384.14355	0.18665
3382.85778	0.18728
3381.57201	0.18812
3380.28625	0.18895
3379.00048	0.18966
3377.71471	0.19033
3376.42894	0.19112
3375.14317	0.19212
3373.85740	0.19322
3372.57163	0.19428
3371.28586	0.19522
3370.00010	0.19599
3368.71433	0.19663
3367.42856	0.19733
3366.14279	0.19829
3364.85702	0.19953
3363.57125	0.20081
3362.28548	0.20191
3360.99971	0.20281
3359.71394	0.20367
3358.42818	0.20469
3357.14241	0.20586
3355.85664	0.20708
3354.57087	0.20827
3353.28510	0.20947
3351.99933	0.21070
3350.71356	0.21185
3349.42779	0.21280
3348.14202	0.21360
3346.85626	0.21444
3345.57049	0.21544
3344.28472	0.21657
3342.99895	0.21773
3341.71318	0.21895
3340.42741	0.22024
3339.14164	0.22146
3337.85587	0.22240
3336.57011	0.22304
3335.28434	0.22362
3333.99857	0.22440
3332.71280	0.22533
3331.42703	0.22613
3330.14126	0.22671
3328.85549	0.22725
3327.56972	0.22802
3326.28395	0.22905
3324.99819	0.23017
3323.71242	0.23121
3322.42665	0.23211
3321.14088	0.23289
3319.85511	0.23360
3318.56934	0.23425
3317.28357	0.23485
3315.99780	0.23538
3314.71204	0.23584
3313.42627	0.23623
3312.14050	0.23658
3310.85473	0.23693
3309.56896	0.23737
3308.28319	0.23792
3306.99742	0.23853
3305.71165	0.23908
3304.42588	0.23953
3303.14012	0.23997
3301.85435	0.24049
3300.56858	0.24106
3299.28281	0.24151
3297.99704	0.24167
3296.71127	0.24163
3295.42550	0.24157
3294.13973	0.24166
3292.85397	0.24186
3291.56820	0.24203
3290.28243	0.24202
3288.99666	0.24181
3287.71089	0.24147
3286.42512	0.24114
3285.13935	0.24084
3283.85358	0.24050
3282.56781	0.24009
3281.28205	0.23971
3279.99628	0.23945
3278.71051	0.23932
3277.42474	0.23928
3276.13897	0.23930
3274.85320	0.23926
3273.56743	0.23895
3272.28166	0.23826
3270.99590	0.23735
3269.71013	0.23644
3268.42436	0.23569
3267.13859	0.23505
3265.85282	0.23449
3264.56705	0.23403
3263.28128	0.23370
3261.99551	0.23337
3260.70974	0.23281
3259.42398	0.23190
3258.13821	0.23076
3256.85244	0.22960
3255.56667	0.22860
3254.28090	0.22779
3252.99513	0.22713
3251.70936	0.22660
3250.42359	0.22620
3249.13783	0.22591
3247.85206	0.22561
3246.56629	0.22514
3245.28052	0.22435
3243.99475	0.22324
3242.70898	0.22207
3241.42321	0.22111
3240.13744	0.22039
3238.85167	0.21979
3237.56591	0.21918
3236.28014	0.21859
3234.99437	0.21812
3233.70860	0.21776
3232.42283	0.21739
3231.13706	0.21683
3229.85129	0.21604
3228.56552	0.21509
3227.27976	0.21413
3225.99399	0.21328
3224.70822	0.21260
3223.42245	0.21213
3222.13668	0.21196
3220.85091	0.21211
3219.56514	0.21240
3218.27937	0.21248
3216.99360	0.21205
3215.70784	0.21115
3214.42207	0.21010
3213.13630	0.20929
3211.85053	0.20879
3210.56476	0.20838
3209.27899	0.20786
3207.99322	0.20728
3206.70745	0.20679
3205.42169	0.20643
3204.13592	0.20610
3202.85015	0.20568
3201.56438	0.20510
3200.27861	0.20429
3198.99284	0.20330
3197.70707	0.20233
3196.42130	0.20159
3195.13553	0.20110
3193.84977	0.20066
3192.56400	0.20001
3191.27823	0.19911
3189.99246	0.19807
3188.70669	0.19707
3187.42092	0.19615
3186.13515	0.19527
3184.84938	0.19442
3183.56362	0.19355
3182.27785	0.19264
3180.99208	0.19168
3179.70631	0.19071
3178.42054	0.18977
3177.13477	0.18883
3175.84900	0.18784
3174.56323	0.18683
3173.27746	0.18591
3171.99170	0.18525
3170.70593	0.18486
3169.42016	0.18455
3168.13439	0.18401
3166.84862	0.18308
3165.56285	0.18183
3164.27708	0.18053
3162.99131	0.17940
3161.70555	0.17858
3160.41978	0.17801
3159.13401	0.17745
3157.84824	0.17663
3156.56247	0.17543
3155.27670	0.17397
3153.99093	0.17246
3152.70516	0.17109
3151.41939	0.16997
3150.13363	0.16921
3148.84786	0.16877
3147.56209	0.16844
3146.27632	0.16795
3144.99055	0.16723
3143.70478	0.16639
3142.41901	0.16556
3141.13324	0.16470
3139.84748	0.16371
3138.56171	0.16264
3137.27594	0.16170
3135.99017	0.16104
3134.70440	0.16071
3133.41863	0.16056
3132.13286	0.16035
3130.84709	0.15988
3129.56132	0.15912
3128.27556	0.15818
3126.98979	0.15728
3125.70402	0.15660
3124.41825	0.15627
3123.13248	0.15621
3121.84671	0.15627
3120.56094	0.15624
3119.27517	0.15608
3117.98940	0.15587
3116.70364	0.15571
3115.41787	0.15559
3114.13210	0.15546
3112.84633	0.15534
3111.56056	0.15531
3110.27479	0.15538
3108.98902	0.15545
3107.70325	0.15540
3106.41749	0.15531
3105.13172	0.15543
3103.84595	0.15587
3102.56018	0.15649
3101.27441	0.15697
3099.98864	0.15714
3098.70287	0.15710
3097.41710	0.15707
3096.13133	0.15720
3094.84557	0.15746
3093.55980	0.15769
3092.27403	0.15772
3090.98826	0.15748
3089.70249	0.15717
3088.41672	0.15710
3087.13095	0.15738
3085.84518	0.15784
3084.55942	0.15823
3083.27365	0.15849
3081.98788	0.15869
3080.70211	0.15891
3079.41634	0.15910
3078.13057	0.15921
3076.84480	0.15917
3075.55903	0.15904
3074.27326	0.15890
3072.98750	0.15881
3071.70173	0.15875
3070.41596	0.15869
3069.13019	0.15866
3067.84442	0.15875
3066.55865	0.15893
3065.27288	0.15899
3063.98711	0.15869
3062.70135	0.15792
3061.41558	0.15682
3060.12981	0.15564
3058.84404	0.15454
3057.55827	0.15358
3056.27250	0.15277
3054.98673	0.15214
3053.70096	0.15168
3052.41519	0.15135
3051.12943	0.15097
3049.84366	0.15035
3048.55789	0.14943
3047.27212	0.14836
3045.98635	0.14738
3044.70058	0.14663
3043.41481	0.14601
3042.12904	0.14536
3040.84328	0.14466
3039.55751	0.14392
3038.27174	0.14311
3036.98597	0.14212
3035.70020	0.14094
3034.41443	0.13972
3033.12866	0.13870
3031.84289	0.13799
3030.55712	0.13751
3029.27136	0.13707
3027.98559	0.13652
3026.69982	0.13588
3025.41405	0.13527
3024.12828	0.13468
3022.84251	0.13401
3021.55674	0.13319
3020.27097	0.13224
3018.98521	0.13131
3017.69944	0.13054
3016.41367	0.12999
3015.12790	0.12965
3013.84213	0.12943
3012.55636	0.12924
3011.27059	0.12902
3009.98482	0.12874
3008.69905	0.12837
3007.41329	0.12794
3006.12752	0.12751
3004.84175	0.12714
3003.55598	0.12690
3002.27021	0.12676
3000.98444	0.12671
2999.69867	0.12683
2998.41290	0.12721
2997.12714	0.12791
2995.84137	0.12870
2994.55560	0.12933
2993.26983	0.12968
2991.98406	0.12978
2990.69829	0.12981
2989.41252	0.12997
2988.12675	0.13039
2986.84098	0.13102
2985.55522	0.13174
2984.26945	0.13252
2982.98368	0.13342
2981.69791	0.13434
2980.41214	0.13499
2979.12637	0.13525
2977.84060	0.13530
2976.55483	0.13547
2975.26907	0.13586
2973.98330	0.13630
2972.69753	0.13670
2971.41176	0.13715
2970.12599	0.13778
2968.84022	0.13843
2967.55445	0.13889
2966.26868	0.13917
2964.98291	0.13947
2963.69715	0.13989
2962.41138	0.14031
2961.12561	0.14061
2959.83984	0.14077
2958.55407	0.14077
2957.26830	0.14062
2955.98253	0.14045
2954.69676	0.14048
2953.41100	0.14073
2952.12523	0.14102
2950.83946	0.14114
2949.55369	0.14111
2948.26792	0.14109
2946.98215	0.14117
2945.69638	0.14126
2944.41061	0.14126
2943.12484	0.14118
2941.83908	0.14114
2940.55331	0.14123
2939.26754	0.14141
2937.98177	0.14157
2936.69600	0.14159
2935.41023	0.14141
2934.12446	0.14106
2932.83869	0.14064
2931.55293	0.14030
2930.26716	0.14010
2928.98139	0.13987
2927.69562	0.13943
2926.40985	0.13874
2925.12408	0.13795
2923.83831	0.13716
2922.55254	0.13634
2921.26677	0.13548
2919.98101	0.13467
2918.69524	0.13402
2917.40947	0.13348
2916.12370	0.13291
2914.83793	0.13218
2913.55216	0.13127
2912.26639	0.13031
2910.98062	0.12939
2909.69486	0.12853
2908.40909	0.12773
2907.12332	0.12699
2905.83755	0.12632
2904.55178	0.12562
2903.26601	0.12481
2901.98024	0.12390
2900.69447	0.12301
2899.40870	0.12224
2898.12294	0.12167
2896.83717	0.12133
2895.55140	0.12121
2894.26563	0.12119
2892.97986	0.12110
2891.69409	0.12091
2890.40832	0.12067
2889.12255	0.12049
2887.83678	0.12045
2886.55102	0.12056
2885.26525	0.12069
2883.97948	0.12072
2882.69371	0.12064
2881.40794	0.12057
2880.12217	0.12058
2878.83640	0.12060
2877.55063	0.12056
2876.26487	0.12042
2874.97910	0.12017
2873.69333	0.11975
2872.40756	0.11904
2871.12179	0.11810
2869.83602	0.11712
2868.55025	0.11628
2867.26448	0.11558
2865.97871	0.11491
2864.69295	0.11416
2863.40718	0.11333
2862.12141	0.11250
2860.83564	0.11173
2859.54987	0.11104
2858.26410	0.11045
2856.97833	0.10993
2855.69256	0.10944
2854.40680	0.10893
2853.12103	0.10838
2851.83526	0.10779
2850.54949	0.10720
2849.26372	0.10665
2847.97795	0.10610
2846.69218	0.10549
2845.40641	0.10479
2844.12064	0.10411
2842.83488	0.10360
2841.54911	0.10333
2840.26334	0.10316
2838.97757	0.10288
2837.69180	0.10233
2836.40603	0.10151
2835.12026	0.10062
2833.83449	0.09993
2832.54873	0.09960
2831.26296	0.09954
2829.97719	0.09958
2828.69142	0.09955
2827.40565	0.09934
2826.11988	0.09893
2824.83411	0.09845
2823.54834	0.09803
2822.26257	0.09771
2820.97681	0.09740
2819.69104	0.09700
2818.40527	0.09653
2817.11950	0.09609
2815.83373	0.09571
2814.54796	0.09540
2813.26219	0.09515
2811.97642	0.09498
2810.69066	0.09487
2809.40489	0.09478
2808.11912	0.09468
2806.83335	0.09456
2805.54758	0.09443
2804.26181	0.09426
2802.97604	0.09394
2801.69027	0.09341
2800.40450	0.09279
2799.11874	0.09229
2797.83297	0.09198
2796.54720	0.09178
2795.26143	0.09160
2793.97566	0.09139
2792.68989	0.09115
2791.40412	0.09088
2790.11835	0.09060
2788.83259	0.09033
2787.54682	0.09010
2786.26105	0.08994
2784.97528	0.08985
2783.68951	0.08983
2782.40374	0.08977
2781.11797	0.08954
2779.83220	0.08910
2778.54643	0.08857
2777.26067	0.08812
2775.97490	0.08788
2774.68913	0.08779
2773.40336	0.08767
2772.11759	0.08735
2770.83182	0.08688
2769.54605	0.08642
2768.26028	0.08617
2766.97452	0.08614
2765.68875	0.08615
2764.40298	0.08600
2763.11721	0.08568
2761.83144	0.08531
2760.54567	0.08499
2759.25990	0.08472
2757.97413	0.08445
2756.68836	0.08424
2755.40260	0.08414
2754.11683	0.08413
2752.83106	0.08408
2751.54529	0.08392
2750.25952	0.08368
2748.97375	0.08346
2747.68798	0.08326
2746.40221	0.08305
2745.11645	0.08282
2743.83068	0.08265
2742.54491	0.08257
2741.25914	0.08250
2739.97337	0.08232
2738.68760	0.08196
2737.40183	0.08145
2736.11606	0.08094
2734.83029	0.08054
2733.54453	0.08033
2732.25876	0.08027
2730.97299	0.08026
2729.68722	0.08018
2728.40145	0.08001
2727.11568	0.07976
2725.82991	0.07948
2724.54414	0.07917
2723.25838	0.07886
2721.97261	0.07855
2720.68684	0.07826
2719.40107	0.07796
2718.11530	0.07763
2716.82953	0.07728
2715.54376	0.07697
2714.25799	0.07672
2712.97222	0.07654
2711.68646	0.07646
2710.40069	0.07650
2709.11492	0.07656
2707.82915	0.07647
2706.54338	0.07619
2705.25761	0.07580
2703.97184	0.07547
2702.68607	0.07523
2701.40031	0.07502
2700.11454	0.07483
2698.82877	0.07469
2697.54300	0.07461
2696.25723	0.07454
2694.97146	0.07443
2693.68569	0.07433
2692.39992	0.07425
2691.11415	0.07417
2689.82839	0.07405
2688.54262	0.07391
2687.25685	0.07380
2685.97108	0.07372
2684.68531	0.07361
2683.39954	0.07342
2682.11377	0.07318
2680.82800	0.07301
2679.54224	0.07297
2678.25647	0.07306
2676.97070	0.07320
2675.68493	0.07328
2674.39916	0.07327
2673.11339	0.07316
2671.82762	0.07296
2670.54185	0.07272
2669.25608	0.07255
2667.97032	0.07248
2666.68455	0.07247
2665.39878	0.07245
2664.11301	0.07238
2662.82724	0.07228
2661.54147	0.07223
2660.25570	0.07223
2658.96993	0.07224
2657.68417	0.07222
2656.39840	0.07215
2655.11263	0.07200
2653.82686	0.07171
2652.54109	0.07131
2651.25532	0.07089
2649.96955	0.07055
2648.68378	0.07027
2647.39801	0.06993
2646.11225	0.06948
2644.82648	0.06895
2643.54071	0.06846
2642.25494	0.06807
2640.96917	0.06775
2639.68340	0.06747
2638.39763	0.06722
2637.11186	0.06702
2635.82609	0.06686
2634.54033	0.06676
2633.25456	0.06672
2631.96879	0.06670
2630.68302	0.06662
2629.39725	0.06644
2628.11148	0.06623
2626.82571	0.06603
2625.53994	0.06582
2624.25418	0.06552
2622.96841	0.06512
2621.68264	0.06473
2620.39687	0.06447
2619.11110	0.06432
2617.82533	0.06418
2616.53956	0.06401
2615.25379	0.06383
2613.96802	0.06363
2612.68226	0.06339
2611.39649	0.06311
2610.11072	0.06282
2608.82495	0.06258
2607.53918	0.06247
2606.25341	0.06254
2604.96764	0.06270
2603.68187	0.06271
2602.39611	0.06244
2601.11034	0.06199
2599.82457	0.06153
2598.53880	0.06114
2597.25303	0.06082
2595.96726	0.06062
2594.68149	0.06053
2593.39572	0.06045
2592.10995	0.06031
2590.82419	0.06021
2589.53842	0.06020
2588.25265	0.06012
2586.96688	0.05982
2585.68111	0.05938
2584.39534	0.05900
2583.10957	0.05871
2581.82380	0.05841
2580.53804	0.05813
2579.25227	0.05805
2577.96650	0.05826
2576.68073	0.05864
2575.39496	0.05889
2574.10919	0.05879
2572.82342	0.05837
2571.53765	0.05787
2570.25188	0.05753
2568.96612	0.05740
2567.68035	0.05736
2566.39458	0.05730
2565.10881	0.05720
2563.82304	0.05711
2562.53727	0.05700
2561.25150	0.05683
2559.96573	0.05652
2558.67997	0.05605
2557.39420	0.05549
2556.10843	0.05500
2554.82266	0.05474
2553.53689	0.05477
2552.25112	0.05498
2550.96535	0.05516
2549.67958	0.05514
2548.39381	0.05491
2547.10805	0.05463
2545.82228	0.05447
2544.53651	0.05443
2543.25074	0.05434
2541.96497	0.05412
2540.67920	0.05382
2539.39343	0.05355
2538.10766	0.05336
2536.82190	0.05317
2535.53613	0.05290
2534.25036	0.05254
2532.96459	0.05217
2531.67882	0.05191
2530.39305	0.05180
2529.10728	0.05184
2527.82151	0.05199
2526.53574	0.05219
2525.24998	0.05232
2523.96421	0.05224
2522.67844	0.05198
2521.39267	0.05168
2520.10690	0.05145
2518.82113	0.05130
2517.53536	0.05122
2516.24959	0.05125
2514.96383	0.05139
2513.67806	0.05157
2512.39229	0.05162
2511.10652	0.05151
2509.82075	0.05125
2508.53498	0.05093
2507.24921	0.05065
2505.96344	0.05046
2504.67767	0.05033
2503.39191	0.05019
2502.10614	0.05002
2500.82037	0.04997
2499.53460	0.05019
2498.24883	0.05059
2496.96306	0.05088
2495.67729	0.05087
2494.39152	0.05058
2493.10576	0.05018
2491.81999	0.04982
2490.53422	0.04956
2489.24845	0.04939
2487.96268	0.04919
2486.67691	0.04887
2485.39114	0.04845
2484.10537	0.04805
2482.81960	0.04782
2481.53384	0.04782
2480.24807	0.04805
2478.96230	0.04846
2477.67653	0.04896
2476.39076	0.04941
2475.10499	0.04964
2473.81922	0.04961
2472.53345	0.04946
2471.24769	0.04933
2469.96192	0.04918
2468.67615	0.04893
2467.39038	0.04867
2466.10461	0.04858
2464.81884	0.04871
2463.53307	0.04890
2462.24730	0.04893
2460.96153	0.04873
2459.67577	0.04838
2458.39000	0.04808
2457.10423	0.04799
2455.81846	0.04812
2454.53269	0.04826
2453.24692	0.04819
2451.96115	0.04790
2450.67538	0.04755
2449.38962	0.04729
2448.10385	0.04714
2446.81808	0.04701
2445.53231	0.04686
2444.24654	0.04670
2442.96077	0.04659
2441.67500	0.04663
2440.38923	0.04683
2439.10346	0.04709
2437.81770	0.04727
2436.53193	0.04728
2435.24616	0.04714
2433.96039	0.04692
2432.67462	0.04671
2431.38885	0.04655
2430.10308	0.04647
2428.81731	0.04646
2427.53155	0.04649
2426.24578	0.04648
2424.96001	0.04641
2423.67424	0.04640
2422.38847	0.04659
2421.10270	0.04696
2419.81693	0.04728
2418.53116	0.04732
2417.24539	0.04708
2415.95963	0.04671
2414.67386	0.04642
2413.38809	0.04632
2412.10232	0.04642
2410.81655	0.04658
2409.53078	0.04665
2408.24501	0.04661
2406.95924	0.04652
2405.67347	0.04644
2404.38771	0.04635
2403.10194	0.04623
2401.81617	0.04608
2400.53040	0.04584
2399.24463	0.04550
2397.95886	0.04513
2396.67309	0.04492
2395.38732	0.04490
2394.10156	0.04496
2392.81579	0.04489
2391.53002	0.04473
2390.24425	0.04464
2388.95848	0.04475
2387.67271	0.04498
2386.38694	0.04522
2385.10117	0.04542
2383.81540	0.04565
2382.52964	0.04587
2381.24387	0.04601
2379.95810	0.04602
2378.67233	0.04598
2377.38656	0.04591
2376.10079	0.04577
2374.81502	0.04558
2373.52925	0.04552
2372.24349	0.04572
2370.95772	0.04609
2369.67195	0.04641
2368.38618	0.04664
2367.10041	0.04687
2365.81464	0.04706
2364.52887	0.04717
2363.24310	0.04724
2361.95733	0.04737
2360.67157	0.04767
2359.38580	0.04784
2358.10003	0.04767
2356.81426	0.04724
2355.52849	0.04677
2354.24272	0.04638
2352.95695	0.04622
2351.67118	0.04644
2350.38542	0.04682
2349.09965	0.04697
2347.81388	0.04698
2346.52811	0.04729
2345.24234	0.04756
2343.95657	0.04711
2342.67080	0.04631
2341.38503	0.04650
2340.09926	0.04750
2338.81350	0.04741
2337.52773	0.04623
2336.24196	0.04619
2334.95619	0.04699
2333.67042	0.04649
2332.38465	0.04532
2331.09888	0.04563
2329.81311	0.04615
2328.52735	0.04571
2327.24158	0.04637
2325.95581	0.04764
2324.67004	0.04774
2323.38427	0.04766
2322.09850	0.04783
2320.81273	0.04718
2319.52696	0.04666
2318.24119	0.04640
2316.95543	0.04576
2315.66966	0.04541
2314.38389	0.04520
2313.09812	0.04466
2311.81235	0.04417
2310.52658	0.04359
2309.24081	0.04316
2307.95504	0.04310
2306.66928	0.04307
2305.38351	0.04300
2304.09774	0.04278
2302.81197	0.04244
2301.52620	0.04213
2300.24043	0.04181
2298.95466	0.04158
2297.66889	0.04146
2296.38312	0.04143
2295.09736	0.04142
2293.81159	0.04132
2292.52582	0.04118
2291.24005	0.04107
2289.95428	0.04101
2288.66851	0.04097
2287.38274	0.04090
2286.09697	0.04071
2284.81121	0.04034
2283.52544	0.03981
2282.23967	0.03930
2280.95390	0.03899
2279.66813	0.03893
2278.38236	0.03899
2277.09659	0.03909
2275.81082	0.03913
2274.52505	0.03896
2273.23929	0.03846
2271.95352	0.03768
2270.66775	0.03683
2269.38198	0.03606
2268.09621	0.03548
2266.81044	0.03516
2265.52467	0.03505
2264.23890	0.03500
2262.95314	0.03498
2261.66737	0.03511
2260.38160	0.03541
2259.09583	0.03570
2257.81006	0.03567
2256.52429	0.03518
2255.23852	0.03442
2253.95275	0.03376
2252.66698	0.03344
2251.38122	0.03347
2250.09545	0.03375
2248.80968	0.03408
2247.52391	0.03401
2246.23814	0.03393
2244.95237	0.03398
2243.66660	0.03407
2242.38083	0.03403
2241.09507	0.03375
2239.80930	0.03340
2238.52353	0.03332
2237.23776	0.03355
2235.95199	0.03375
2234.66622	0.03356
2233.38045	0.03307
2232.09468	0.03266
2230.80891	0.03248
2229.52315	0.03227
2228.23738	0.03185
2226.95161	0.03138
2225.66584	0.03113
2224.38007	0.03105
2223.09430	0.03086
2221.80853	0.03045
2220.52276	0.03008
2219.23700	0.03004
2217.95123	0.03027
2216.66546	0.03040
2215.37969	0.03015
2214.09392	0.02957
2212.80815	0.02903
2211.52238	0.02895
2210.23661	0.02944
2208.95084	0.03015
2207.66508	0.03060
2206.37931	0.03067
2205.09354	0.03058
2203.80777	0.03036
2202.52200	0.02970
2201.23623	0.02842
2199.95046	0.02692
2198.66469	0.02593
2197.37893	0.02581
2196.09316	0.02631
2194.80739	0.02690
2193.52162	0.02728
2192.23585	0.02742
2190.95008	0.02723
2189.66431	0.02662
2188.37854	0.02566
2187.09277	0.02474
2185.80701	0.02415
2184.52124	0.02399
2183.23547	0.02424
2181.94970	0.02490
2180.66393	0.02577
2179.37816	0.02645
2178.09239	0.02657
2176.80662	0.02592
2175.52085	0.02458
2174.23509	0.02296
2172.94932	0.02181
2171.66355	0.02167
2170.37778	0.02230
2169.09201	0.02289
2167.80624	0.02281
2166.52047	0.02198
2165.23470	0.02067
2163.94894	0.01930
2162.66317	0.01827
2161.37740	0.01778
2160.09163	0.01770
2158.80586	0.01777
2157.52009	0.01795
2156.23432	0.01842
2154.94855	0.01946
2153.66278	0.02110
2152.37702	0.02287
2151.09125	0.02401
2149.80548	0.02417
2148.51971	0.02377
2147.23394	0.02339
2145.94817	0.02322
2144.66240	0.02311
2143.37663	0.02298
2142.09087	0.02284
2140.80510	0.02278
2139.51933	0.02289
2138.23356	0.02329
2136.94779	0.02392
2135.66202	0.02456
2134.37625	0.02505
2133.09048	0.02539
2131.80471	0.02575
2130.51895	0.02626
2129.23318	0.02692
2127.94741	0.02754
2126.66164	0.02794
2125.37587	0.02819
2124.09010	0.02848
2122.80433	0.02895
2121.51856	0.02949
2120.23280	0.02993
2118.94703	0.03015
2117.66126	0.03024
2116.37549	0.03033
2115.08972	0.03051
2113.80395	0.03067
2112.51818	0.03066
2111.23241	0.03050
2109.94664	0.03032
2108.66088	0.03028
2107.37511	0.03043
2106.08934	0.03066
2104.80357	0.03071
2103.51780	0.03051
2102.23203	0.03021
2100.94626	0.02993
2099.66049	0.02910
2098.37473	0.02825
2097.08896	0.02740
2095.80319	0.02663
2094.51742	0.02619
2093.23165	0.02621
2091.94588	0.02661
2090.66011	0.02720
2089.37434	0.02786
2088.08857	0.02851
2086.80281	0.02911
2085.51704	0.02952
2084.23127	0.02964
2082.94550	0.02944
2081.65973	0.02908
2080.37396	0.02870
2079.08819	0.02828
2077.80242	0.02767
2076.51666	0.02683
2075.23089	0.02590
2073.94512	0.02516
2072.65935	0.02480
2071.37358	0.02481
2070.08781	0.02501
2068.80204	0.02518
2067.51627	0.02524
2066.23050	0.02520
2064.94474	0.02508
2063.65897	0.02487
2062.37320	0.02459
2061.08743	0.02429
2059.80166	0.02400
2058.51589	0.02376
2057.23012	0.02360
2055.94435	0.02345
2054.65859	0.02327
2053.37282	0.02312
2052.08705	0.02309
2050.80128	0.02308
2049.51551	0.02285
2048.22974	0.02222
2046.94397	0.02136
2045.65820	0.02059
2044.37243	0.02016
2043.08667	0.02000
2041.80090	0.01987
2040.51513	0.01949
2039.22936	0.01880
2037.94359	0.01800
2036.65782	0.01741
2035.37205	0.01723
2034.08628	0.01731
2032.80052	0.01729
2031.51475	0.01705
2030.22898	0.01690
2028.94321	0.01731
2027.65744	0.01839
2026.37167	0.01976
2025.08590	0.02092
2023.80013	0.02150
2022.51436	0.02122
2021.22860	0.02000
2019.94283	0.01827
2018.65706	0.01687
2017.37129	0.01635
2016.08552	0.01654
2014.79975	0.01691
2013.51398	0.01718
2012.22821	0.01744
2010.94245	0.01778
2009.65668	0.01809
2008.37091	0.01821
2007.08514	0.01812
2005.79937	0.01805
2004.51360	0.01825
2003.22783	0.01879
2001.94206	0.01944
2000.65629	0.01991
1999.37053	0.02008
1998.08476	0.02004
1996.79899	0.01996
1995.51322	0.02001
1994.22745	0.02021
1992.94168	0.02041
1991.65591	0.02036
1990.37014	0.02008
1989.08438	0.01991
1987.79861	0.01998
1986.51284	0.01997
1985.22707	0.01947
1983.94130	0.01854
1982.65553	0.01762
1981.36976	0.01693
1980.08399	0.01622
1978.79822	0.01519
1977.51246	0.01402
1976.22669	0.01322
1974.94092	0.01310
1973.65515	0.01358
1972.36938	0.01434
1971.08361	0.01512
1969.79784	0.01581
1968.51207	0.01635
1967.22631	0.01678
1965.94054	0.01722
1964.65477	0.01780
1963.36900	0.01850
1962.08323	0.01920
1960.79746	0.01970
1959.51169	0.01986
1958.22592	0.01980
1956.94015	0.01987
1955.65439	0.02027
1954.36862	0.02078
1953.08285	0.02103
1951.79708	0.02094
1950.51131	0.02080
1949.22554	0.02086
1947.93977	0.02104
1946.65400	0.02114
1945.36823	0.02109
1944.08247	0.02103
1942.79670	0.02107
1941.51093	0.02122
1940.22516	0.02140
1938.93939	0.02161
1937.65362	0.02189
1936.36785	0.02220
1935.08208	0.02240
1933.79632	0.02233
1932.51055	0.02206
1931.22478	0.02179
1929.93901	0.02171
1928.65324	0.02186
1927.36747	0.02217
1926.08170	0.02245
1924.79593	0.02256
1923.51016	0.02252
1922.22440	0.02258
1920.93863	0.02294
1919.65286	0.02351
1918.36709	0.02398
1917.08132	0.02418
1915.79555	0.02419
1914.50978	0.02418
1913.22401	0.02418
1911.93825	0.02416
1910.65248	0.02412
1909.36671	0.02405
1908.08094	0.02390
1906.79517	0.02369
1905.50940	0.02354
1904.22363	0.02360
1902.93786	0.02382
1901.65209	0.02399
1900.36633	0.02391
1899.08056	0.02360
1897.79479	0.02323
1896.50902	0.02298
1895.22325	0.02294
1893.93748	0.02307
1892.65171	0.02328
1891.36594	0.02349
1890.08018	0.02363
1888.79441	0.02367
1887.50864	0.02358
1886.22287	0.02341
1884.93710	0.02324
1883.65133	0.02317
1882.36556	0.02318
1881.07979	0.02317
1879.79402	0.02307
1878.50826	0.02294
1877.22249	0.02291
1875.93672	0.02301
1874.65095	0.02323
1873.36518	0.02349
1872.07941	0.02371
1870.79364	0.02382
1869.50787	0.02379
1868.22211	0.02367
1866.93634	0.02355
1865.65057	0.02344
1864.36480	0.02330
1863.07903	0.02312
1861.79326	0.02297
1860.50749	0.02287
1859.22172	0.02281
1857.93595	0.02274
1856.65019	0.02270
1855.36442	0.02270
1854.07865	0.02270
1852.79288	0.02263
1851.50711	0.02256
1850.22134	0.02260
1848.93557	0.02276
1847.64980	0.02296
1846.36404	0.02313
1845.07827	0.02324
1843.79250	0.02325
1842.50673	0.02309
1841.22096	0.02283
1839.93519	0.02258
1838.64942	0.02245
1837.36365	0.02243
1836.07788	0.02248
1834.79212	0.02253
1833.50635	0.02255
1832.22058	0.02259
1830.93481	0.02262
1829.64904	0.02264
1828.36327	0.02266
1827.07750	0.02272
1825.79173	0.02277
1824.50597	0.02268
1823.22020	0.02242
1821.93443	0.02211
1820.64866	0.02187
1819.36289	0.02179
1818.07712	0.02184
1816.79135	0.02199
1815.50558	0.02221
1814.21981	0.02247
1812.93405	0.02270
1811.64828	0.02282
1810.36251	0.02279
1809.07674	0.02267
1807.79097	0.02254
1806.50520	0.02245
1805.21943	0.02242
1803.93366	0.02244
1802.64790	0.02248
1801.36213	0.02248
1800.07636	0.02240
1798.79059	0.02229
1797.50482	0.02220
1796.21905	0.02220
1794.93328	0.02228
1793.64751	0.02241
1792.36174	0.02251
1791.07598	0.02250
1789.79021	0.02240
1788.50444	0.02229
1787.21867	0.02223
1785.93290	0.02220
1784.64713	0.02216
1783.36136	0.02211
1782.07559	0.02208
1780.78983	0.02210
1779.50406	0.02210
1778.21829	0.02204
1776.93252	0.02196
1775.64675	0.02196
1774.36098	0.02209
1773.07521	0.02228
1771.78944	0.02238
1770.50367	0.02241
1769.21791	0.02247
1767.93214	0.02256
1766.64637	0.02259
1765.36060	0.02257
1764.07483	0.02256
1762.78906	0.02256
1761.50329	0.02252
1760.21752	0.02247
1758.93176	0.02250
1757.64599	0.02264
1756.36022	0.02284
1755.07445	0.02305
1753.78868	0.02334
1752.50291	0.02370
1751.21714	0.02404
1749.93137	0.02426
1748.64560	0.02441
1747.35984	0.02456
1746.07407	0.02473
1744.78830	0.02494
1743.50253	0.02522
1742.21676	0.02559
1740.93099	0.02602
1739.64522	0.02646
1738.35945	0.02687
1737.07369	0.02735
1735.78792	0.02793
1734.50215	0.02848
1733.21638	0.02884
1731.93061	0.02914
1730.64484	0.02953
1729.35907	0.02998
1728.07330	0.03039
1726.78753	0.03079
1725.50177	0.03130
1724.21600	0.03191
1722.93023	0.03250
1721.64446	0.03305
1720.35869	0.03368
1719.07292	0.03446
1717.78715	0.03527
1716.50138	0.03598
1715.21561	0.03666
1713.92985	0.03755
1712.64408	0.03878
1711.35831	0.04037
1710.07254	0.04220
1708.78677	0.04422
1707.50100	0.04641
1706.21523	0.04878
1704.92946	0.05131
1703.64370	0.05405
1702.35793	0.05714
1701.07216	0.06050
1699.78639	0.06387
1698.50062	0.06725
1697.21485	0.07083
1695.92908	0.07455
1694.64331	0.07814
1693.35754	0.08154
1692.07178	0.08495
1690.78601	0.08841
1689.50024	0.09187
1688.21447	0.09540
1686.92870	0.09919
1685.64293	0.10331
1684.35716	0.10754
1683.07139	0.11167
1681.78563	0.11580
1680.49986	0.12011
1679.21409	0.12462
1677.92832	0.12935
1676.64255	0.13431
1675.35678	0.13943
1674.07101	0.14459
1672.78524	0.14984
1671.49947	0.15533
1670.21371	0.16103
1668.92794	0.16674
1667.64217	0.17226
1666.35640	0.17759
1665.07063	0.18282
1663.78486	0.18800
1662.49909	0.19306
1661.21332	0.19792
1659.92756	0.20254
1658.64179	0.20687
1657.35602	0.21092
1656.07025	0.21487
1654.78448	0.21892
1653.49871	0.22285
1652.21294	0.22623
1650.92717	0.22899
1649.64140	0.23149
1648.35564	0.23406
1647.06987	0.23666
1645.78410	0.23912
1644.49833	0.24138
1643.21256	0.24350
1641.92679	0.24552
1640.64102	0.24744
1639.35525	0.24927
1638.06949	0.25108
1636.78372	0.25288
1635.49795	0.25449
1634.21218	0.25573
1632.92641	0.25657
1631.64064	0.25703
1630.35487	0.25704
1629.06910	0.25650
1627.78333	0.25533
1626.49757	0.25351
1625.21180	0.25109
1623.92603	0.24808
1622.64026	0.24444
1621.35449	0.24022
1620.06872	0.23561
1618.78295	0.23082
1617.49718	0.22593
1616.21142	0.22084
1614.92565	0.21552
1613.63988	0.21009
1612.35411	0.20465
1611.06834	0.19920
1609.78257	0.19375
1608.49680	0.18837
1607.21103	0.18315
1605.92526	0.17818
1604.63950	0.17346
1603.35373	0.16898
1602.06796	0.16472
1600.78219	0.16068
1599.49642	0.15690
1598.21065	0.15343
1596.92488	0.15028
1595.63911	0.14742
1594.35335	0.14480
1593.06758	0.14240
1591.78181	0.14029
1590.49604	0.13853
1589.21027	0.13717
1587.92450	0.13621
1586.63873	0.13559
1585.35296	0.13523
1584.06719	0.13509
1582.78143	0.13512
1581.49566	0.13533
1580.20989	0.13578
1578.92412	0.13660
1577.63835	0.13792
1576.35258	0.13961
1575.06681	0.14148
1573.78104	0.14350
1572.49528	0.14578
1571.20951	0.14839
1569.92374	0.15127
1568.63797	0.15434
1567.35220	0.15757
1566.06643	0.16090
1564.78066	0.16424
1563.49489	0.16752
1562.20912	0.17087
1560.92336	0.17443
1559.63759	0.17805
1558.35182	0.18144
1557.06605	0.18449
1555.78028	0.18734
1554.49451	0.19004
1553.20874	0.19250
1551.92297	0.19469
1550.63721	0.19665
1549.35144	0.19839
1548.06567	0.19991
1546.77990	0.20124
1545.49413	0.20240
1544.20836	0.20338
1542.92259	0.20421
1541.63682	0.20495
1540.35105	0.20556
1539.06529	0.20588
1537.77952	0.20586
1536.49375	0.20565
1535.20798	0.20541
1533.92221	0.20509
1532.63644	0.20457
1531.35067	0.20385
1530.06490	0.20301
1528.77914	0.20212
1527.49337	0.20114
1526.20760	0.20005
1524.92183	0.19883
1523.63606	0.19758
1522.35029	0.19634
1521.06452	0.19498
1519.77875	0.19344
1518.49298	0.19180
1517.20722	0.19006
1515.92145	0.18808
1514.63568	0.18577
1513.34991	0.18317
1512.06414	0.18033
1510.77837	0.17729
1509.49260	0.17414
1508.20683	0.17095
1506.92107	0.16762
1505.63530	0.16399
1504.34953	0.16012
1503.06376	0.15624
1501.77799	0.15251
1500.49222	0.14893
1499.20645	0.14540
1497.92068	0.14186
1496.63491	0.13823
1495.34915	0.13451
1494.06338	0.13082
1492.77761	0.12734
1491.49184	0.12412
1490.20607	0.12114
1488.92030	0.11842
1487.63453	0.11602
1486.34876	0.11399
1485.06299	0.11231
1483.77723	0.11094
1482.49146	0.10988
1481.20569	0.10914
1479.91992	0.10878
1478.63415	0.10882
1477.34838	0.10924
1476.06261	0.11000
1474.77684	0.11111
1473.49108	0.11254
1472.20531	0.11417
1470.91954	0.11586
1469.63377	0.11755
1468.34800	0.11927
1467.06223	0.12107
1465.77646	0.12296
1464.49069	0.12494
1463.20492	0.12699
1461.91916	0.12912
1460.63339	0.13136
1459.34762	0.13373
1458.06185	0.13617
1456.77608	0.13845
1455.49031	0.14038
1454.20454	0.14196
1452.91877	0.14322
1451.63301	0.14415
1450.34724	0.14472
1449.06147	0.14495
1447.77570	0.14485
1446.48993	0.14445
1445.20416	0.14378
1443.91839	0.14290
1442.63262	0.14182
1441.34685	0.14056
1440.06109	0.13916
1438.77532	0.13766
1437.48955	0.13603
1436.20378	0.13419
1434.91801	0.13220
1433.63224	0.13023
1432.34647	0.12842
1431.06070	0.12682
1429.77494	0.12541
1428.48917	0.12418
1427.20340	0.12312
1425.91763	0.12224
1424.63186	0.12154
1423.34609	0.12101
1422.06032	0.12068
1420.77455	0.12056
1419.48878	0.12057
1418.20302	0.12060
1416.91725	0.12065
1415.63148	0.12077
1414.34571	0.12098
1413.05994	0.12125
1411.77417	0.12161
1410.48840	0.12205
1409.20263	0.12255
1407.91687	0.12310
1406.63110	0.12370
1405.34533	0.12429
1404.05956	0.12478
1402.77379	0.12510
1401.48802	0.12526
1400.20225	0.12527
1398.91648	0.12516
1397.63071	0.12496
1396.34495	0.12474
1395.05918	0.12451
1393.77341	0.12421
1392.48764	0.12385
1391.20187	0.12347
1389.91610	0.12311
1388.63033	0.12275
1387.34456	0.12233
1386.05880	0.12182
1384.77303	0.12123
1383.48726	0.12059
1382.20149	0.11994
1380.91572	0.11927
1379.62995	0.11859
1378.34418	0.11787
1377.05841	0.11708
1375.77264	0.11623
1374.48688	0.11529
1373.20111	0.11424
1371.91534	0.11308
1370.62957	0.11182
1369.34380	0.11048
1368.05803	0.10908
1366.77226	0.10763
1365.48649	0.10624
1364.20073	0.10498
1362.91496	0.10390
1361.62919	0.10297
1360.34342	0.10219
1359.05765	0.10156
1357.77188	0.10113
1356.48611	0.10093
1355.20034	0.10095
1353.91457	0.10120
1352.62881	0.10166
1351.34304	0.10231
1350.05727	0.10313
1348.77150	0.10409
1347.48573	0.10516
1346.19996	0.10631
1344.91419	0.10748
1343.62842	0.10863
1342.34266	0.10970
1341.05689	0.11066
1339.77112	0.11145
1338.48535	0.11203
1337.19958	0.11237
1335.91381	0.11242
1334.62804	0.11216
1333.34227	0.11161
1332.05650	0.11084
1330.77074	0.10993
1329.48497	0.10896
1328.19920	0.10797
1326.91343	0.10699
1325.62766	0.10606
1324.34189	0.10524
1323.05612	0.10456
1321.77035	0.10399
1320.48459	0.10349
1319.19882	0.10304
1317.91305	0.10264
1316.62728	0.10230
1315.34151	0.10198
1314.05574	0.10161
1312.76997	0.10115
1311.48420	0.10061
1310.19843	0.10002
1308.91267	0.09941
1307.62690	0.09880
1306.34113	0.09823
1305.05536	0.09774
1303.76959	0.09736
1302.48382	0.09702
1301.19805	0.09668
1299.91228	0.09630
1298.62652	0.09594
1297.34075	0.09567
1296.05498	0.09558
1294.76921	0.09570
1293.48344	0.09601
1292.19767	0.09645
1290.91190	0.09697
1289.62613	0.09755
1288.34036	0.09817
1287.05460	0.09886
1285.76883	0.09959
1284.48306	0.10031
1283.19729	0.10096
1281.91152	0.10150
1280.62575	0.10194
1279.33998	0.10225
1278.05421	0.10246
1276.76845	0.10260
1275.48268	0.10269
1274.19691	0.10274
1272.91114	0.10279
1271.62537	0.10289
1270.33960	0.10310
1269.05383	0.10343
1267.76806	0.10386
1266.48229	0.10436
1265.19653	0.10493
1263.91076	0.10552
1262.62499	0.10615
1261.33922	0.10682
1260.05345	0.10758
1258.76768	0.10844
1257.48191	0.10937
1256.19614	0.11035
1254.91037	0.11133
1253.62461	0.11232
1252.33884	0.11331
1251.05307	0.11435
1249.76730	0.11550
1248.48153	0.11679
1247.19576	0.11819
1245.90999	0.11965
1244.62422	0.12110
1243.33846	0.12249
1242.05269	0.12376
1240.76692	0.12487
1239.48115	0.12576
1238.19538	0.12641
1236.90961	0.12684
1235.62384	0.12705
1234.33807	0.12707
1233.05230	0.12686
1231.76654	0.12640
1230.48077	0.12568
1229.19500	0.12470
1227.90923	0.12346
1226.62346	0.12198
1225.33769	0.12032
1224.05192	0.11854
1222.76615	0.11671
1221.48039	0.11487
1220.19462	0.11307
1218.90885	0.11136
1217.62308	0.10980
1216.33731	0.10847
1215.05154	0.10745
1213.76577	0.10676
1212.48000	0.10637
1211.19423	0.10622
1209.90847	0.10626
1208.62270	0.10645
1207.33693	0.10675
1206.05116	0.10711
1204.76539	0.10745
1203.47962	0.10767
1202.19385	0.10763
1200.90808	0.10728
1199.62232	0.10662
1198.33655	0.10558
1197.05078	0.10432
1195.76501	0.10294
1194.47924	0.10148
1193.19347	0.09999
1191.90770	0.09853
1190.62193	0.09712
1189.33616	0.09579
1188.05040	0.09458
1186.76463	0.09349
1185.47886	0.09251
1184.19309	0.09160
1182.90732	0.09077
1181.62155	0.09003
1180.33578	0.08939
1179.05001	0.08888
1177.76425	0.08845
1176.47848	0.08805
1175.19271	0.08767
1173.90694	0.08733
1172.62117	0.08711
1171.33540	0.08701
1170.04963	0.08698
1168.76386	0.08697
1167.47809	0.08696
1166.19233	0.08695
1164.90656	0.08695
1163.62079	0.08694
1162.33502	0.08688
1161.04925	0.08675
1159.76348	0.08651
1158.47771	0.08610
1157.19194	0.08547
1155.90618	0.08465
1154.62041	0.08374
1153.33464	0.08283
1152.04887	0.08194
1150.76310	0.08100
1149.47733	0.07997
1148.19156	0.07891
1146.90579	0.07792
1145.62002	0.07704
1144.33426	0.07627
1143.04849	0.07557
1141.76272	0.07491
1140.47695	0.07429
1139.19118	0.07369
1137.90541	0.07312
1136.61964	0.07261
1135.33387	0.07220
1134.04811	0.07189
1132.76234	0.07166
1131.47657	0.07143
1130.19080	0.07115
1128.90503	0.07082
1127.61926	0.07051
1126.33349	0.07028
1125.04772	0.07015
1123.76195	0.07007
1122.47619	0.07001
1121.19042	0.06998
1119.90465	0.06998
1118.61888	0.07001
1117.33311	0.07010
1116.04734	0.07023
1114.76157	0.07039
1113.47580	0.07054
1112.19004	0.07067
1110.90427	0.07084
1109.61850	0.07110
1108.33273	0.07146
1107.04696	0.07186
1105.76119	0.07229
1104.47542	0.07274
1103.18965	0.07318
1101.90388	0.07360
1100.61812	0.07400
1099.33235	0.07439
1098.04658	0.07482
1096.76081	0.07535
1095.47504	0.07596
1094.18927	0.07666
1092.90350	0.07744
1091.61773	0.07833
1090.33197	0.07938
1089.04620	0.08060
1087.76043	0.08196
1086.47466	0.08340
1085.18889	0.08480
1083.90312	0.08600
1082.61735	0.08684
1081.33158	0.08730
1080.04581	0.08742
1078.76005	0.08729
1077.47428	0.08692
1076.18851	0.08637
1074.90274	0.08573
1073.61697	0.08513
1072.33120	0.08466
1071.04543	0.08431
1069.75966	0.08402
1068.47390	0.08377
1067.18813	0.08356
1065.90236	0.08340
1064.61659	0.08325
1063.33082	0.08309
1062.04505	0.08288
1060.75928	0.08259
1059.47351	0.08228
1058.18774	0.08195
1056.90198	0.08160
1055.61621	0.08119
1054.33044	0.08074
1053.04467	0.08027
1051.75890	0.07984
1050.47313	0.07942
1049.18736	0.07903
1047.90159	0.07872
1046.61583	0.07851
1045.33006	0.07838
1044.04429	0.07825
1042.75852	0.07813
1041.47275	0.07813
1040.18698	0.07835
1038.90121	0.07881
1037.61544	0.07942
1036.32967	0.08005
1035.04391	0.08060
1033.75814	0.08103
1032.47237	0.08131
1031.18660	0.08140
1029.90083	0.08123
1028.61506	0.08077
1027.32929	0.08007
1026.04352	0.07921
1024.75775	0.07825
1023.47199	0.07722
1022.18622	0.07622
1020.90045	0.07533
1019.61468	0.07460
1018.32891	0.07405
1017.04314	0.07361
1015.75737	0.07325
1014.47160	0.07288
1013.18584	0.07242
1011.90007	0.07184
1010.61430	0.07111
1009.32853	0.07030
1008.04276	0.06949
1006.75699	0.06872
1005.47122	0.06798
1004.18545	0.06721
1002.89968	0.06641
1001.61392	0.06564
1000.32815	0.06494
999.04238	0.06428
997.75661	0.06363
996.47084	0.06306
995.18507	0.06257
993.89930	0.06210
992.61353	0.06154
991.32777	0.06089
990.04200	0.06024
988.75623	0.05968
987.47046	0.05925
986.18469	0.05893
984.89892	0.05871
983.61315	0.05856
982.32738	0.05848
981.04161	0.05851
979.75585	0.05864
978.47008	0.05883
977.18431	0.05903
975.89854	0.05919
974.61277	0.05931
973.32700	0.05933
972.04123	0.05918
970.75546	0.05883
969.46970	0.05833
968.18393	0.05777
966.89816	0.05724
965.61239	0.05679
964.32662	0.05643
963.04085	0.05615
961.75508	0.05593
960.46931	0.05572
959.18354	0.05546
957.89778	0.05516
956.61201	0.05488
955.32624	0.05462
954.04047	0.05434
952.75470	0.05401
951.46893	0.05370
950.18316	0.05349
948.89739	0.05341
947.61163	0.05341
946.32586	0.05338
945.04009	0.05331
943.75432	0.05323
942.46855	0.05318
941.18278	0.05315
939.89701	0.05313
938.61124	0.05308
937.32547	0.05302
936.03971	0.05296
934.75394	0.05291
933.46817	0.05286
932.18240	0.05276
930.89663	0.05255
929.61086	0.05226
928.32509	0.05200
927.03932	0.05188
925.75356	0.05193
924.46779	0.05207
923.18202	0.05216
921.89625	0.05213
920.61048	0.05196
919.32471	0.05167
918.03894	0.05132
916.75317	0.05094
915.46740	0.05060
914.18164	0.05033
912.89587	0.05013
911.61010	0.04996
910.32433	0.04978
909.03856	0.04958
907.75279	0.04939
906.46702	0.04924
905.18125	0.04914
903.89549	0.04904
902.60972	0.04890
901.32395	0.04874
900.03818	0.04859
898.75241	0.04844
897.46664	0.04826
896.18087	0.04807
894.89510	0.04791
893.60933	0.04779
892.32357	0.04770
891.03780	0.04762
889.75203	0.04761
888.46626	0.04767
887.18049	0.04779
885.89472	0.04792
884.60895	0.04804
883.32318	0.04814
882.03742	0.04813
880.75165	0.04798
879.46588	0.04776
878.18011	0.04766
876.89434	0.04778
875.60857	0.04805
874.32280	0.04828
873.03703	0.04832
871.75126	0.04822
870.46550	0.04807
869.17973	0.04795
867.89396	0.04784
866.60819	0.04768
865.32242	0.04751
864.03665	0.04737
862.75088	0.04731
861.46511	0.04732
860.17935	0.04736
858.89358	0.04741
857.60781	0.04747
856.32204	0.04755
855.03627	0.04762
853.75050	0.04766
852.46473	0.04771
851.17896	0.04777
849.89319	0.04785
848.60743	0.04785
847.32166	0.04772
846.03589	0.04750
844.75012	0.04730
843.46435	0.04721
842.17858	0.04719
840.89281	0.04716
839.60704	0.04709
838.32128	0.04700
837.03551	0.04697
835.74974	0.04700
834.46397	0.04709
833.17820	0.04718
831.89243	0.04725
830.60666	0.04731
829.32089	0.04738
828.03512	0.04752
826.74936	0.04774
825.46359	0.04801
824.17782	0.04827
822.89205	0.04850
821.60628	0.04873
820.32051	0.04902
819.03474	0.04936
817.74897	0.04969
816.46321	0.04996
815.17744	0.05016
813.89167	0.05033
812.60590	0.05050
811.32013	0.05075
810.03436	0.05107
808.74859	0.05142
807.46282	0.05177
806.17705	0.05207
804.89129	0.05232
803.60552	0.05248
802.31975	0.05257
801.03398	0.05263
799.74821	0.05267
798.46244	0.05273
797.17667	0.05285
795.89090	0.05304
794.60513	0.05329
793.31937	0.05356
792.03360	0.05382
790.74783	0.05402
789.46206	0.05418
788.17629	0.05430
786.89052	0.05447
785.60475	0.05470
784.31898	0.05494
783.03322	0.05512
781.74745	0.05523
780.46168	0.05536
779.17591	0.05559
777.89014	0.05593
776.60437	0.05632
775.31860	0.05667
774.03283	0.05698
772.74706	0.05727
771.46130	0.05754
770.17553	0.05777
768.88976	0.05797
767.60399	0.05816
766.31822	0.05836
765.03245	0.05860
763.74668	0.05883
762.46091	0.05903
761.17515	0.05914
759.88938	0.05922
758.60361	0.05935
757.31784	0.05958
756.03207	0.05990
754.74630	0.06026
753.46053	0.06059
752.17476	0.06088
750.88899	0.06113
749.60323	0.06137
748.31746	0.06163
747.03169	0.06196
745.74592	0.06232
744.46015	0.06264
743.17438	0.06290
741.88861	0.06311
740.60284	0.06327
739.31708	0.06340
738.03131	0.06350
736.74554	0.06365
735.45977	0.06393
734.17400	0.06434
732.88823	0.06479
731.60246	0.06520
730.31669	0.06556
729.03092	0.06593
727.74516	0.06633
726.45939	0.06669
725.17362	0.06698
723.88785	0.06718
722.60208	0.06754
721.31631	0.06802
720.03054	0.06854
718.74477	0.06905
717.45901	0.06950
716.17324	0.06985
714.88747	0.07007
713.60170	0.07022
712.31593	0.07037
711.03016	0.07058
709.74439	0.07088
708.45862	0.07124
707.17285	0.07163
705.88709	0.07203
704.60132	0.07241
703.31555	0.07274
702.02978	0.07302
700.74401	0.07327
699.45824	0.07350
698.17247	0.07372
696.88670	0.07394
695.60094	0.07418
694.31517	0.07439
693.02940	0.07454
691.74363	0.07462
690.45786	0.07467
689.17209	0.07474
687.88632	0.07487
686.60055	0.07504
685.31478	0.07524
684.02902	0.07548
682.74325	0.07575
681.45748	0.07602
680.17171	0.07625
678.88594	0.07646
677.60017	0.07666
676.31440	0.07687
675.02863	0.07706
673.74287	0.07722
672.45710	0.07738
671.17133	0.07758
669.88556	0.07784
668.59979	0.07809
667.31402	0.07826
666.02825	0.07846
664.74248	0.07863
663.45671	0.07874
662.17095	0.07882
660.88518	0.07889
659.59941	0.07898
658.31364	0.07909
657.02787	0.07923
655.74210	0.07939
654.45633	0.07961
653.17056	0.07987
651.88480	0.08013
650.59903	0.08031
649.31326	0.08039
648.02749	0.08040
646.74172	0.08038
645.45595	0.08039
644.17018	0.08045
642.88441	0.08053
641.59864	0.08059
640.31288	0.08060
639.02711	0.08058
637.74134	0.08057
636.45557	0.08059
635.16980	0.08066
633.88403	0.08076
632.59826	0.08086
631.31249	0.08089
630.02673	0.08052
628.74096	0.07994
627.45519	0.08031
626.16942	0.07965
624.88365	0.07815
623.59788	0.07640
622.31211	0.07476
621.02634	0.07372
619.74057	0.07378
618.45481	0.07496
617.16904	0.07660
615.88327	0.07777
614.59750	0.07808
613.31173	0.07802
612.02596	0.07805
610.74019	0.07787
609.45442	0.07706
608.16866	0.07621
606.88289	0.07629
605.59712	0.07735
604.31135	0.07866
603.02558	0.07968
601.73981	0.08038
600.45404	0.08085
599.16827	0.08107
597.88250	0.08106
596.59674	0.08101
595.31097	0.08108
594.02520	0.08123
592.73943	0.08134
591.45366	0.08135
590.16789	0.08137
588.88212	0.08147
587.59635	0.08158
586.31059	0.08160
585.02482	0.08152
583.73905	0.08150
582.45328	0.08162
581.16751	0.08184
579.88174	0.08202
578.59597	0.08212
577.31020	0.08218
576.02443	0.08229
574.73867	0.08244
573.45290	0.08255
572.16713	0.08254
570.88136	0.08242
569.59559	0.08229
568.30982	0.08226
567.02405	0.08238
565.73828	0.08259
564.45251	0.08283
563.16675	0.08311
561.88098	0.08342
560.59521	0.08371
559.30944	0.08386
558.02367	0.08382
556.73790	0.08371
555.45213	0.08367
554.16636	0.08379
552.88060	0.08398
551.59483	0.08409
550.30906	0.08406
549.02329	0.08391
547.73752	0.08374
546.45175	0.08362
545.16598	0.08355
543.88021	0.08351
542.59444	0.08343
541.30868	0.08323
540.02291	0.08292
538.73714	0.08262
537.45137	0.08248
536.16560	0.08259
534.87983	0.08285
533.59406	0.08313
532.30829	0.08331
531.02253	0.08335
529.73676	0.08328
528.45099	0.08317
527.16522	0.08307
525.87945	0.08292
524.59368	0.08269
523.30791	0.08246
522.02214	0.08236
520.73637	0.08238
519.45061	0.08235
518.16484	0.08208
516.87907	0.08156
515.59330	0.08098
514.30753	0.08055
513.02176	0.08034
511.73599	0.08029
510.45022	0.08025
509.16446	0.08008
507.87869	0.07973
506.59292	0.07929
505.30715	0.07891
504.02138	0.07871
502.73561	0.07865
501.44984	0.07856
500.16407	0.07833
498.87830	0.07797
497.59254	0.07758
496.30677	0.07727
495.02100	0.07707
493.73523	0.07692
492.44946	0.07672
491.16369	0.07640
489.87792	0.07601
488.59215	0.07563
487.30639	0.07535
486.02062	0.07521
484.73485	0.07518
483.44908	0.07516
482.16331	0.07505
480.87754	0.07483
479.59177	0.07462
478.30600	0.07452
477.02023	0.07456
475.73447	0.07459
474.44870	0.07446
473.16293	0.07411
471.87716	0.07358
470.59139	0.07296
469.30562	0.07240
468.01985	0.07200
466.73408	0.07180
465.44832	0.07173
464.16255	0.07162
462.87678	0.07131
461.59101	0.07081
460.30524	0.07027
459.01947	0.06986
457.73370	0.06962
456.44793	0.06949
455.16216	0.06938
453.87640	0.06919
452.59063	0.06886
451.30486	0.06839
450.01909	0.06789
448.73332	0.06742
447.44755	0.06698
446.16178	0.06657
444.87601	0.06619
443.59025	0.06588
442.30448	0.06566
441.01871	0.06549
439.73294	0.06530
438.44717	0.06500
437.16140	0.06459
435.87563	0.06415
434.58986	0.06376
433.30409	0.06348
432.01833	0.06329
430.73256	0.06313
429.44679	0.06293
428.16102	0.06268
426.87525	0.06237
425.58948	0.06203
424.30371	0.06170
423.01794	0.06140
421.73218	0.06114
420.44641	0.06093
419.16064	0.06074
417.87487	0.06054
416.58910	0.06032
415.30333	0.06007
414.01756	0.05979
412.73179	0.05951
411.44602	0.05925
410.16026	0.05900
408.87449	0.05872
407.58872	0.05844
406.30295	0.05820
405.01718	0.05799
403.73141	0.05780
402.44564	0.05762
401.15987	0.05748
399.87411	0.05737
