3996.16951	0.03999
3994.24086	0.03984
3992.31220	0.03980
3990.38355	0.04008
3988.45490	0.04020
3986.52624	0.03976
3984.59759	0.03910
3982.66894	0.03889
3980.74028	0.03923
3978.81163	0.03976
3976.88298	0.04002
3974.95432	0.03987
3973.02567	0.03952
3971.09702	0.03911
3969.16836	0.03899
3967.23971	0.03942
3965.31106	0.03966
3963.38240	0.03927
3961.45375	0.03895
3959.52510	0.03929
3957.59645	0.04001
3955.66779	0.04052
3953.73914	0.04055
3951.81049	0.04029
3949.88183	0.03984
3947.95318	0.03915
3946.02453	0.03849
3944.09587	0.03802
3942.16722	0.03789
3940.23857	0.03815
3938.30991	0.03810
3936.38126	0.03761
3934.45261	0.03751
3932.52395	0.03796
3930.59530	0.03821
3928.66665	0.03791
3926.73799	0.03745
3924.80934	0.03737
3922.88069	0.03775
3920.95203	0.03811
3919.02338	0.03823
3917.09473	0.03842
3915.16607	0.03858
3913.23742	0.03842
3911.30877	0.03817
3909.38011	0.03804
3907.45146	0.03772
3905.52281	0.03718
3903.59415	0.03700
3901.66550	0.03753
3899.73685	0.03801
3897.80819	0.03787
3895.87954	0.03774
3893.95089	0.03793
3892.02224	0.03793
3890.09358	0.03762
3888.16493	0.03750
3886.23628	0.03771
3884.30762	0.03768
3882.37897	0.03704
3880.45032	0.03642
3878.52166	0.03650
3876.59301	0.03707
3874.66436	0.03740
3872.73570	0.03720
3870.80705	0.03696
3868.87840	0.03703
3866.94974	0.03717
3865.02109	0.03721
3863.09244	0.03723
3861.16378	0.03715
3859.23513	0.03695
3857.30648	0.03676
3855.37782	0.03670
3853.44917	0.03682
3851.52052	0.03689
3849.59186	0.03677
3847.66321	0.03658
3845.73456	0.03614
3843.80590	0.03541
3841.87725	0.03511
3839.94860	0.03560
3838.01994	0.03604
3836.09129	0.03588
3834.16264	0.03568
3832.23398	0.03572
3830.30533	0.03562
3828.37668	0.03546
3826.44803	0.03523
3824.51937	0.03476
3822.59072	0.03452
3820.66207	0.03482
3818.73341	0.03511
3816.80476	0.03512
3814.87611	0.03518
3812.94745	0.03537
3811.01880	0.03539
3809.09015	0.03514
3807.16149	0.03497
3805.23284	0.03475
3803.30419	0.03424
3801.37553	0.03422
3799.44688	0.03497
3797.51823	0.03532
3795.58957	0.03466
3793.66092	0.03392
3791.73227	0.03409
3789.80361	0.03483
3787.87496	0.03517
3785.94631	0.03478
3784.01765	0.03407
3782.08900	0.03372
3780.16035	0.03391
3778.23169	0.03412
3776.30304	0.03405
3774.37439	0.03417
3772.44573	0.03469
3770.51708	0.03498
3768.58843	0.03477
3766.65977	0.03431
3764.73112	0.03373
3762.80247	0.03317
3760.87381	0.03280
3758.94516	0.03288
3757.01651	0.03353
3755.08786	0.03419
3753.15920	0.03459
3751.23055	0.03503
3749.30190	0.03507
3747.37324	0.03423
3745.44459	0.03342
3743.51594	0.03335
3741.58728	0.03358
3739.65863	0.03352
3737.72998	0.03335
3735.80132	0.03354
3733.87267	0.03380
3731.94402	0.03354
3730.01536	0.03297
3728.08671	0.03287
3726.15806	0.03332
3724.22940	0.03358
3722.30075	0.03298
3720.37210	0.03207
3718.44344	0.03180
3716.51479	0.03184
3714.58614	0.03154
3712.65748	0.03120
3710.72883	0.03144
3708.80018	0.03208
3706.87152	0.03238
3704.94287	0.03218
3703.01422	0.03170
3701.08556	0.03121
3699.15691	0.03108
3697.22826	0.03141
3695.29960	0.03182
3693.37095	0.03214
3691.44230	0.03231
3689.51365	0.03212
3687.58499	0.03174
3685.65634	0.03157
3683.72769	0.03167
3681.79903	0.03172
3679.87038	0.03162
3677.94173	0.03165
3676.01307	0.03195
3674.08442	0.03206
3672.15577	0.03188
3670.22711	0.03211
3668.29846	0.03271
3666.36981	0.03270
3664.44115	0.03219
3662.51250	0.03217
3660.58385	0.03259
3658.65519	0.03271
3656.72654	0.03249
3654.79789	0.03208
3652.86923	0.03155
3650.94058	0.03141
3649.01193	0.03188
3647.08327	0.03243
3645.15462	0.03303
3643.22597	0.03387
3641.29731	0.03447
3639.36866	0.03447
3637.44001	0.03429
3635.51135	0.03422
3633.58270	0.03401
3631.65405	0.03380
3629.72539	0.03382
3627.79674	0.03367
3625.86809	0.03327
3623.93943	0.03334
3622.01078	0.03420
3620.08213	0.03545
3618.15348	0.03644
3616.22482	0.03681
3614.29617	0.03666
3612.36752	0.03645
3610.43886	0.03664
3608.51021	0.03706
3606.58156	0.03722
3604.65290	0.03720
3602.72425	0.03745
3600.79560	0.03782
3598.86694	0.03778
3596.93829	0.03744
3595.00964	0.03759
3593.08098	0.03840
3591.15233	0.03894
3589.22368	0.03863
3587.29502	0.03831
3585.36637	0.03876
3583.43772	0.03971
3581.50906	0.04048
3579.58041	0.04083
3577.65176	0.04113
3575.72310	0.04134
3573.79445	0.04115
3571.86580	0.04081
3569.93714	0.04069
3568.00849	0.04087
3566.07984	0.04147
3564.15118	0.04222
3562.22253	0.04251
3560.29388	0.04251
3558.36522	0.04283
3556.43657	0.04314
3554.50792	0.04301
3552.57927	0.04287
3550.65061	0.04317
3548.72196	0.04390
3546.79331	0.04467
3544.86465	0.04510
3542.93600	0.04530
3541.00735	0.04547
3539.07869	0.04546
3537.15004	0.04524
3535.22139	0.04496
3533.29273	0.04502
3531.36408	0.04567
3529.43543	0.04632
3527.50677	0.04658
3525.57812	0.04681
3523.64947	0.04706
3521.72081	0.04705
3519.79216	0.04705
3517.86351	0.04760
3515.93485	0.04851
3514.00620	0.04912
3512.07755	0.04930
3510.14889	0.04921
3508.22024	0.04915
3506.29159	0.04952
3504.36293	0.05007
3502.43428	0.05009
3500.50563	0.04962
3498.57697	0.04945
3496.64832	0.04966
3494.71967	0.04994
3492.79101	0.05039
3490.86236	0.05100
3488.93371	0.05132
3487.00506	0.05115
3485.07640	0.05094
3483.14775	0.05115
3481.21910	0.05157
3479.29044	0.05185
3477.36179	0.05213
3475.43314	0.05259
3473.50448	0.05298
3471.57583	0.05302
3469.64718	0.05289
3467.71852	0.05298
3465.78987	0.05350
3463.86122	0.05413
3461.93256	0.05432
3460.00391	0.05417
3458.07526	0.05416
3456.14660	0.05430
3454.21795	0.05436
3452.28930	0.05433
3450.36064	0.05429
3448.43199	0.05437
3446.50334	0.05465
3444.57468	0.05481
3442.64603	0.05471
3440.71738	0.05455
3438.78872	0.05458
3436.86007	0.05493
3434.93142	0.05538
3433.00276	0.05563
3431.07411	0.05596
3429.14546	0.05649
3427.21680	0.05665
3425.28815	0.05643
3423.35950	0.05646
3421.43084	0.05686
3419.50219	0.05726
3417.57354	0.05752
3415.64489	0.05795
3413.71623	0.05838
3411.78758	0.05843
3409.85893	0.05846
3407.93027	0.05865
3406.00162	0.05859
3404.07297	0.05835
3402.14431	0.05839
3400.21566	0.05872
3398.28701	0.05886
3396.35835	0.05880
3394.42970	0.05888
3392.50105	0.05902
3390.57239	0.05895
3388.64374	0.05886
3386.71509	0.05894
3384.78643	0.05891
3382.85778	0.05866
3380.92913	0.05853
3379.00047	0.05868
3377.07182	0.05884
3375.14317	0.05896
3373.21451	0.05916
3371.28586	0.05954
3369.35721	0.06000
3367.42855	0.06016
3365.49990	0.05993
3363.57125	0.05969
3361.64259	0.05971
3359.71394	0.05990
3357.78529	0.06015
3355.85663	0.06030
3353.92798	0.06036
3351.99933	0.06056
3350.07068	0.06091
3348.14202	0.06120
3346.21337	0.06125
3344.28472	0.06092
3342.35606	0.06056
3340.42741	0.06059
3338.49876	0.06085
3336.57010	0.06100
3334.64145	0.06110
3332.71280	0.06138
3330.78414	0.06182
3328.85549	0.06229
3326.92684	0.06267
3324.99818	0.06268
3323.06953	0.06242
3321.14088	0.06237
3319.21222	0.06238
3317.28357	0.06209
3315.35492	0.06186
3313.42626	0.06220
3311.49761	0.06274
3309.56896	0.06281
3307.64030	0.06253
3305.71165	0.06253
3303.78300	0.06284
3301.85434	0.06307
3299.92569	0.06313
3297.99704	0.06308
3296.06838	0.06291
3294.13973	0.06259
3292.21108	0.06234
3290.28242	0.06237
3288.35377	0.06251
3286.42512	0.06249
3284.49646	0.06235
3282.56781	0.06245
3280.63916	0.06291
3278.71051	0.06328
3276.78185	0.06318
3274.85320	0.06279
3272.92455	0.06224
3270.99589	0.06165
3269.06724	0.06136
3267.13859	0.06159
3265.20993	0.06195
3263.28128	0.06191
3261.35263	0.06162
3259.42397	0.06154
3257.49532	0.06155
3255.56667	0.06141
3253.63801	0.06127
3251.70936	0.06129
3249.78071	0.06135
3247.85205	0.06130
3245.92340	0.06123
3243.99475	0.06116
3242.06609	0.06098
3240.13744	0.06089
3238.20879	0.06109
3236.28013	0.06127
3234.35148	0.06099
3232.42283	0.06054
3230.49417	0.06040
3228.56552	0.06053
3226.63687	0.06055
3224.70821	0.06034
3222.77956	0.06010
3220.85091	0.06001
3218.92225	0.06001
3216.99360	0.06002
3215.06495	0.06011
3213.13630	0.06020
3211.20764	0.05996
3209.27899	0.05951
3207.35034	0.05936
3205.42168	0.05950
3203.49303	0.05970
3201.56438	0.05987
3199.63572	0.05974
3197.70707	0.05934
3195.77842	0.05897
3193.84976	0.05867
3191.92111	0.05852
3189.99246	0.05872
3188.06380	0.05896
3186.13515	0.05884
3184.20650	0.05837
3182.27784	0.05806
3180.34919	0.05823
3178.42054	0.05849
3176.49188	0.05841
3174.56323	0.05818
3172.63458	0.05802
3170.70592	0.05774
3168.77727	0.05725
3166.84862	0.05677
3164.91996	0.05644
3162.99131	0.05626
3161.06266	0.05633
3159.13400	0.05655
3157.20535	0.05650
3155.27670	0.05606
3153.34804	0.05566
3151.41939	0.05559
3149.49074	0.05557
3147.56209	0.05537
3145.63343	0.05525
3143.70478	0.05533
3141.77613	0.05538
3139.84747	0.05523
3137.91882	0.05492
3135.99017	0.05463
3134.06151	0.05438
3132.13286	0.05434
3130.20421	0.05461
3128.27555	0.05493
3126.34690	0.05506
3124.41825	0.05477
3122.48959	0.05401
3120.56094	0.05348
3118.63229	0.05372
3116.70363	0.05409
3114.77498	0.05382
3112.84633	0.05334
3110.91767	0.05329
3108.98902	0.05353
3107.06037	0.05376
3105.13171	0.05394
3103.20306	0.05390
3101.27441	0.05345
3099.34575	0.05299
3097.41710	0.05292
3095.48845	0.05299
3093.55979	0.05298
3091.63114	0.05305
3089.70249	0.05315
3087.77383	0.05311
3085.84518	0.05309
3083.91653	0.05333
3081.98787	0.05370
3080.05922	0.05373
3078.13057	0.05340
3076.20192	0.05312
3074.27326	0.05294
3072.34461	0.05281
3070.41596	0.05294
3068.48730	0.05318
3066.55865	0.05322
3064.63000	0.05297
3062.70134	0.05252
3060.77269	0.05213
3058.84404	0.05197
3056.91538	0.05197
3054.98673	0.05206
3053.05808	0.05225
3051.12942	0.05242
3049.20077	0.05233
3047.27212	0.05192
3045.34346	0.05133
3043.41481	0.05083
3041.48616	0.05064
3039.55750	0.05059
3037.62885	0.05041
3035.70020	0.05031
3033.77154	0.05055
3031.84289	0.05083
3029.91424	0.05067
3027.98558	0.05012
3026.05693	0.04960
3024.12828	0.04942
3022.19962	0.04940
3020.27097	0.04930
3018.34232	0.04903
3016.41366	0.04875
3014.48501	0.04866
3012.55636	0.04880
3010.62771	0.04888
3008.69905	0.04877
3006.77040	0.04872
3004.84175	0.04878
3002.91309	0.04867
3000.98444	0.04845
2999.05579	0.04833
2997.12713	0.04826
2995.19848	0.04829
2993.26983	0.04848
2991.34117	0.04857
2989.41252	0.04840
2987.48387	0.04820
2985.55521	0.04824
2983.62656	0.04845
2981.69791	0.04867
2979.76925	0.04879
2977.84060	0.04868
2975.91195	0.04848
2973.98329	0.04846
2972.05464	0.04845
2970.12599	0.04817
2968.19733	0.04788
2966.26868	0.04790
2964.34003	0.04810
2962.41137	0.04830
2960.48272	0.04841
2958.55407	0.04835
2956.62541	0.04814
2954.69676	0.04795
2952.76811	0.04792
2950.83945	0.04792
2948.91080	0.04775
2946.98215	0.04751
2945.05349	0.04750
2943.12484	0.04776
2941.19619	0.04803
2939.26754	0.04812
2937.33888	0.04797
2935.41023	0.04759
2933.48158	0.04707
2931.55292	0.04659
2929.62427	0.04635
2927.69562	0.04645
2925.76696	0.04658
2923.83831	0.04651
2921.90966	0.04641
2919.98100	0.04637
2918.05235	0.04635
2916.12370	0.04629
2914.19504	0.04595
2912.26639	0.04554
2910.33774	0.04532
2908.40908	0.04526
2906.48043	0.04531
2904.55178	0.04528
2902.62312	0.04505
2900.69447	0.04474
2898.76582	0.04451
2896.83716	0.04449
2894.90851	0.04464
2892.97986	0.04458
2891.05120	0.04431
2889.12255	0.04429
2887.19390	0.04451
2885.26524	0.04452
2883.33659	0.04418
2881.40794	0.04387
2879.47928	0.04374
2877.55063	0.04358
2875.62198	0.04331
2873.69333	0.04311
2871.76467	0.04302
2869.83602	0.04303
2867.90737	0.04307
2865.97871	0.04298
2864.05006	0.04267
2862.12141	0.04227
2860.19275	0.04198
2858.26410	0.04184
2856.33545	0.04171
2854.40679	0.04169
2852.47814	0.04173
2850.54949	0.04160
2848.62083	0.04145
2846.69218	0.04150
2844.76353	0.04153
2842.83487	0.04124
2840.90622	0.04075
2838.97757	0.04038
2837.04891	0.04025
2835.12026	0.04030
2833.19161	0.04045
2831.26295	0.04055
2829.33430	0.04044
2827.40565	0.04011
2825.47699	0.03988
2823.54834	0.03986
2821.61969	0.03982
2819.69103	0.03966
2817.76238	0.03952
2815.83373	0.03940
2813.90507	0.03923
2811.97642	0.03914
2810.04777	0.03911
2808.11912	0.03893
2806.19046	0.03871
2804.26181	0.03865
2802.33316	0.03869
2800.40450	0.03870
2798.47585	0.03866
2796.54720	0.03857
2794.61854	0.03840
2792.68989	0.03821
2790.76124	0.03811
2788.83258	0.03809
2786.90393	0.03807
2784.97528	0.03794
2783.04662	0.03763
2781.11797	0.03721
2779.18932	0.03691
2777.26066	0.03687
2775.33201	0.03704
2773.40336	0.03716
2771.47470	0.03708
2769.54605	0.03695
2767.61740	0.03690
2765.68874	0.03688
2763.76009	0.03675
2761.83144	0.03657
2759.90278	0.03649
2757.97413	0.03650
2756.04548	0.03645
2754.11682	0.03635
2752.18817	0.03630
2750.25952	0.03629
2748.33086	0.03622
2746.40221	0.03602
2744.47356	0.03583
2742.54490	0.03571
2740.61625	0.03558
2738.68760	0.03546
2736.75895	0.03541
2734.83029	0.03535
2732.90164	0.03529
2730.97299	0.03521
2729.04433	0.03507
2727.11568	0.03496
2725.18703	0.03499
2723.25837	0.03506
2721.32972	0.03506
2719.40107	0.03497
2717.47241	0.03469
2715.54376	0.03434
2713.61511	0.03415
2711.68645	0.03416
2709.75780	0.03424
2707.82915	0.03427
2705.90049	0.03427
2703.97184	0.03427
2702.04319	0.03420
2700.11453	0.03403
2698.18588	0.03388
2696.25723	0.03375
2694.32857	0.03347
2692.39992	0.03318
2690.47127	0.03322
2688.54261	0.03342
2686.61396	0.03343
2684.68531	0.03326
2682.75665	0.03308
2680.82800	0.03294
2678.89935	0.03286
2676.97069	0.03279
2675.04204	0.03268
2673.11339	0.03270
2671.18474	0.03279
2669.25608	0.03271
2667.32743	0.03250
2665.39878	0.03240
2663.47012	0.03238
2661.54147	0.03227
2659.61282	0.03202
2657.68416	0.03162
2655.75551	0.03117
2653.82686	0.03085
2651.89820	0.03079
2649.96955	0.03073
2648.04090	0.03043
2646.11224	0.03002
2644.18359	0.02975
2642.25494	0.02963
2640.32628	0.02973
2638.39763	0.02985
2636.46898	0.02960
2634.54032	0.02903
2632.61167	0.02853
2630.68302	0.02843
2628.75436	0.02854
2626.82571	0.02850
2624.89706	0.02836
2622.96840	0.02832
2621.03975	0.02835
2619.11110	0.02830
2617.18244	0.02809
2615.25379	0.02782
2613.32514	0.02769
2611.39648	0.02764
2609.46783	0.02739
2607.53918	0.02694
2605.61052	0.02655
2603.68187	0.02644
2601.75322	0.02672
2599.82457	0.02703
2597.89591	0.02691
2595.96726	0.02661
2594.03861	0.02668
2592.10995	0.02691
2590.18130	0.02666
2588.25265	0.02598
2586.32399	0.02533
2584.39534	0.02494
2582.46669	0.02489
2580.53803	0.02502
2578.60938	0.02514
2576.68073	0.02538
2574.75207	0.02565
2572.82342	0.02580
2570.89477	0.02580
2568.96611	0.02552
2567.03746	0.02490
2565.10881	0.02433
2563.18015	0.02429
2561.25150	0.02462
2559.32285	0.02493
2557.39419	0.02511
2555.46554	0.02518
2553.53689	0.02501
2551.60823	0.02465
2549.67958	0.02428
2547.75093	0.02398
2545.82227	0.02406
2543.89362	0.02455
2541.96497	0.02487
2540.03631	0.02477
2538.10766	0.02449
2536.17901	0.02415
2534.25036	0.02377
2532.32170	0.02351
2530.39305	0.02356
2528.46440	0.02388
2526.53574	0.02415
2524.60709	0.02419
2522.67844	0.02404
2520.74978	0.02378
2518.82113	0.02351
2516.89248	0.02337
2514.96382	0.02326
2513.03517	0.02316
2511.10652	0.02326
2509.17786	0.02335
2507.24921	0.02335
2505.32056	0.02337
2503.39190	0.02344
2501.46325	0.02342
2499.53460	0.02315
2497.60594	0.02280
2495.67729	0.02285
2493.74864	0.02329
2491.81998	0.02351
2489.89133	0.02327
2487.96268	0.02308
2486.03402	0.02327
2484.10537	0.02351
2482.17672	0.02349
2480.24806	0.02333
2478.31941	0.02319
2476.39076	0.02305
2474.46210	0.02282
2472.53345	0.02258
2470.60480	0.02252
2468.67615	0.02256
2466.74749	0.02261
2464.81884	0.02277
2462.89019	0.02301
2460.96153	0.02305
2459.03288	0.02278
2457.10423	0.02237
2455.17557	0.02190
2453.24692	0.02147
2451.31827	0.02143
2449.38961	0.02183
2447.46096	0.02206
2445.53231	0.02199
2443.60365	0.02199
2441.67500	0.02191
2439.74635	0.02180
2437.81769	0.02192
2435.88904	0.02214
2433.96039	0.02219
2432.03173	0.02212
2430.10308	0.02208
2428.17443	0.02203
2426.24577	0.02194
2424.31712	0.02202
2422.38847	0.02228
2420.45981	0.02234
2418.53116	0.02226
2416.60251	0.02231
2414.67385	0.02225
2412.74520	0.02196
2410.81655	0.02187
2408.88789	0.02217
2406.95924	0.02243
2405.03059	0.02234
2403.10193	0.02224
2401.17328	0.02236
2399.24463	0.02237
2397.31598	0.02218
2395.38732	0.02213
2393.45867	0.02240
2391.53002	0.02263
2389.60136	0.02257
2387.67271	0.02250
2385.74406	0.02254
2383.81540	0.02248
2381.88675	0.02242
2379.95810	0.02268
2378.02944	0.02315
2376.10079	0.02341
2374.17214	0.02344
2372.24348	0.02335
2370.31483	0.02383
2368.38618	0.02347
2366.45752	0.02326
2364.52887	0.02317
2362.60022	0.02218
2360.67156	0.02317
2358.74291	0.02412
2356.81426	0.02331
2354.88560	0.02286
2352.95695	0.02289
2351.02830	0.02276
2349.09964	0.02269
2347.17099	0.02272
2345.24234	0.02296
2343.31368	0.02289
2341.38503	0.02241
2339.45638	0.02360
2337.52772	0.02230
2335.59907	0.02268
2333.67042	0.02282
2331.74177	0.02266
2329.81311	0.02246
2327.88446	0.02210
2325.95581	0.02150
2324.02715	0.02091
2322.09850	0.02072
2320.16985	0.02081
2318.24119	0.02083
2316.31254	0.02073
2314.38389	0.02064
2312.45523	0.02068
2310.52658	0.02080
2308.59793	0.02078
2306.66927	0.02060
2304.74062	0.02028
2302.81197	0.01987
2300.88331	0.01977
2298.95466	0.01982
2297.02601	0.01964
2295.09735	0.01917
2293.16870	0.01852
2291.24005	0.01797
2289.31139	0.01764
2287.38274	0.01748
2285.45409	0.01747
2283.52543	0.01762
2281.59678	0.01769
2279.66813	0.01741
2277.73947	0.01689
2275.81082	0.01664
2273.88217	0.01677
2271.95351	0.01687
2270.02486	0.01678
2268.09621	0.01647
2266.16755	0.01588
2264.23890	0.01552
2262.31025	0.01590
2260.38160	0.01634
2258.45294	0.01616
2256.52429	0.01593
2254.59564	0.01601
2252.66698	0.01572
2250.73833	0.01492
2248.80968	0.01442
2246.88102	0.01441
2244.95237	0.01422
2243.02372	0.01371
2241.09506	0.01332
2239.16641	0.01314
2237.23776	0.01314
2235.30910	0.01342
2233.38045	0.01383
2231.45180	0.01412
2229.52314	0.01424
2227.59449	0.01391
2225.66584	0.01330
2223.73718	0.01339
2221.80853	0.01383
2219.87988	0.01324
2217.95122	0.01208
2216.02257	0.01138
2214.09392	0.01052
2212.16526	0.00931
2210.23661	0.00890
2208.30796	0.00976
2206.37930	0.01065
2204.45065	0.01024
2202.52200	0.00930
2200.59334	0.00899
2198.66469	0.00911
2196.73604	0.00920
2194.80739	0.00886
2192.87873	0.00827
2190.95008	0.00823
2189.02143	0.00849
2187.09277	0.00829
2185.16412	0.00785
2183.23547	0.00758
2181.30681	0.00749
2179.37816	0.00746
2177.44951	0.00720
2175.52085	0.00624
2173.59220	0.00488
2171.66355	0.00412
2169.73489	0.00412
2167.80624	0.00435
2165.87759	0.00449
2163.94893	0.00436
2162.02028	0.00387
2160.09163	0.00339
2158.16297	0.00408
2156.23432	0.00623
2154.30567	0.00775
2152.37701	0.00765
2150.44836	0.00757
2148.51971	0.00802
2146.59105	0.00827
2144.66240	0.00882
2142.73375	0.00989
2140.80509	0.01100
2138.87644	0.01207
2136.94779	0.01252
2135.01913	0.01199
2133.09048	0.01144
2131.16183	0.01147
2129.23318	0.01150
2127.30452	0.01134
2125.37587	0.01163
2123.44722	0.01203
2121.51856	0.01184
2119.58991	0.01168
2117.66126	0.01206
2115.73260	0.01238
2113.80395	0.01237
2111.87530	0.01219
2109.94664	0.01188
2108.01799	0.01154
2106.08934	0.01105
2104.16068	0.01049
2102.23203	0.01028
2100.30338	0.01022
2098.37472	0.00944
2096.44607	0.00915
2094.51742	0.00992
2092.58876	0.01089
2090.66011	0.01139
2088.73146	0.01140
2086.80280	0.01095
2084.87415	0.01045
2082.94550	0.01009
2081.01684	0.00944
2079.08819	0.00825
2077.15954	0.00711
2075.23088	0.00657
2073.30223	0.00642
2071.37358	0.00646
2069.44492	0.00639
2067.51627	0.00598
2065.58762	0.00554
2063.65896	0.00555
2061.73031	0.00629
2059.80166	0.00749
2057.87301	0.00815
2055.94435	0.00794
2054.01570	0.00756
2052.08705	0.00710
2050.15839	0.00592
2048.22974	0.00430
2046.30109	0.00299
2044.37243	0.00202
2042.44378	0.00140
2040.51513	0.00129
2038.58647	0.00144
2036.65782	0.00161
2034.72917	0.00174
2032.80051	0.00143
2030.87186	0.00073
2028.94321	0.00062
2027.01455	0.00128
2025.08590	0.00170
2023.15725	0.00134
2021.22859	0.00084
2019.29994	0.00110
2017.37129	0.00201
2015.44263	0.00301
2013.51398	0.00367
2011.58533	0.00341
2009.65667	0.00222
2007.72802	0.00126
2005.79937	0.00170
2003.87071	0.00331
2001.94206	0.00526
2000.01341	0.00682
1998.08475	0.00742
1996.15610	0.00715
1994.22745	0.00667
1992.29880	0.00664
1990.37014	0.00695
1988.44149	0.00689
1986.51284	0.00639
1984.58418	0.00574
1982.65553	0.00469
1980.72688	0.00309
1978.79822	0.00185
1976.86957	0.00182
1974.94092	0.00210
1973.01226	0.00192
1971.08361	0.00226
1969.15496	0.00379
1967.22630	0.00547
1965.29765	0.00629
1963.36900	0.00653
1961.44034	0.00689
1959.51169	0.00764
1957.58304	0.00864
1955.65438	0.00933
1953.72573	0.00878
1951.79708	0.00753
1949.86842	0.00748
1947.93977	0.00886
1946.01112	0.01010
1944.08246	0.01039
1942.15381	0.01038
1940.22516	0.01059
1938.29650	0.01089
1936.36785	0.01082
1934.43920	0.01036
1932.51054	0.00996
1930.58189	0.00979
1928.65324	0.00989
1926.72458	0.01021
1924.79593	0.01050
1922.86728	0.01085
1920.93863	0.01137
1919.00997	0.01169
1917.08132	0.01171
1915.15267	0.01149
1913.22401	0.01126
1911.29536	0.01124
1909.36671	0.01129
1907.43805	0.01124
1905.50940	0.01115
1903.58075	0.01107
1901.65209	0.01110
1899.72344	0.01133
1897.79479	0.01158
1895.86613	0.01155
1893.93748	0.01139
1892.00883	0.01139
1890.08017	0.01167
1888.15152	0.01207
1886.22287	0.01232
1884.29421	0.01240
1882.36556	0.01239
1880.43691	0.01231
1878.50825	0.01217
1876.57960	0.01207
1874.65095	0.01196
1872.72229	0.01177
1870.79364	0.01163
1868.86499	0.01179
1866.93633	0.01219
1865.00768	0.01240
1863.07903	0.01227
1861.15037	0.01218
1859.22172	0.01230
1857.29307	0.01261
1855.36442	0.01293
1853.43576	0.01292
1851.50711	0.01251
1849.57846	0.01208
1847.64980	0.01195
1845.72115	0.01209
1843.79250	0.01242
1841.86384	0.01281
1839.93519	0.01298
1838.00654	0.01287
1836.07788	0.01268
1834.14923	0.01253
1832.22058	0.01244
1830.29192	0.01243
1828.36327	0.01246
1826.43462	0.01240
1824.50596	0.01214
1822.57731	0.01176
1820.64866	0.01153
1818.72000	0.01171
1816.79135	0.01228
1814.86270	0.01289
1812.93404	0.01318
1811.00539	0.01314
1809.07674	0.01292
1807.14808	0.01271
1805.21943	0.01269
1803.29078	0.01281
1801.36212	0.01278
1799.43347	0.01266
1797.50482	0.01269
1795.57616	0.01287
1793.64751	0.01297
1791.71886	0.01294
1789.79021	0.01287
1787.86155	0.01277
1785.93290	0.01271
1784.00425	0.01275
1782.07559	0.01286
1780.14694	0.01291
1778.21829	0.01286
1776.28963	0.01283
1774.36098	0.01285
1772.43233	0.01294
1770.50367	0.01306
1768.57502	0.01307
1766.64637	0.01295
1764.71771	0.01290
1762.78906	0.01303
1760.86041	0.01317
1758.93175	0.01322
1757.00310	0.01326
1755.07445	0.01327
1753.14579	0.01319
1751.21714	0.01314
1749.28849	0.01330
1747.35983	0.01352
1745.43118	0.01361
1743.50253	0.01362
1741.57387	0.01365
1739.64522	0.01365
1737.71657	0.01360
1735.78791	0.01357
1733.85926	0.01363
1731.93061	0.01372
1730.00195	0.01381
1728.07330	0.01399
1726.14465	0.01420
1724.21599	0.01432
1722.28734	0.01434
1720.35869	0.01436
1718.43004	0.01446
1716.50138	0.01470
1714.57273	0.01505
1712.64408	0.01548
1710.71542	0.01592
1708.78677	0.01644
1706.85812	0.01713
1704.92946	0.01791
1703.00081	0.01868
1701.07216	0.01963
1699.14350	0.02085
1697.21485	0.02215
1695.28620	0.02343
1693.35754	0.02472
1691.42889	0.02605
1689.50024	0.02741
1687.57158	0.02874
1685.64293	0.03001
1683.71428	0.03128
1681.78562	0.03256
1679.85697	0.03389
1677.92832	0.03529
1675.99966	0.03666
1674.07101	0.03790
1672.14236	0.03909
1670.21370	0.04031
1668.28505	0.04149
1666.35640	0.04255
1664.42774	0.04360
1662.49909	0.04474
1660.57044	0.04589
1658.64178	0.04684
1656.71313	0.04754
1654.78448	0.04816
1652.85583	0.04879
1650.92717	0.04935
1648.99852	0.04976
1647.06987	0.05006
1645.14121	0.05031
1643.21256	0.05050
1641.28391	0.05055
1639.35525	0.05037
1637.42660	0.04994
1635.49795	0.04935
1633.56929	0.04867
1631.64064	0.04791
1629.71199	0.04702
1627.78333	0.04601
1625.85468	0.04496
1623.92603	0.04393
1621.99737	0.04289
1620.06872	0.04180
1618.14007	0.04073
1616.21141	0.03978
1614.28276	0.03894
1612.35411	0.03812
1610.42545	0.03734
1608.49680	0.03661
1606.56815	0.03587
1604.63949	0.03516
1602.71084	0.03459
1600.78219	0.03419
1598.85353	0.03390
1596.92488	0.03361
1594.99623	0.03334
1593.06757	0.03317
1591.13892	0.03316
1589.21027	0.03325
1587.28161	0.03336
1585.35296	0.03344
1583.42431	0.03350
1581.49566	0.03361
1579.56700	0.03376
1577.63835	0.03395
1575.70970	0.03421
1573.78104	0.03461
1571.85239	0.03506
1569.92374	0.03550
1567.99508	0.03589
1566.06643	0.03621
1564.13778	0.03651
1562.20912	0.03677
1560.28047	0.03698
1558.35182	0.03725
1556.42316	0.03769
1554.49451	0.03816
1552.56586	0.03849
1550.63720	0.03869
1548.70855	0.03893
1546.77990	0.03926
1544.85124	0.03952
1542.92259	0.03958
1540.99394	0.03954
1539.06528	0.03958
1537.13663	0.03977
1535.20798	0.03992
1533.27932	0.03990
1531.35067	0.03979
1529.42202	0.03975
1527.49336	0.03983
1525.56471	0.03993
1523.63606	0.03999
1521.70740	0.04007
1519.77875	0.04023
1517.85010	0.04042
1515.92145	0.04056
1513.99279	0.04067
1512.06414	0.04080
1510.13549	0.04099
1508.20683	0.04119
1506.27818	0.04139
1504.34953	0.04164
1502.42087	0.04184
1500.49222	0.04192
1498.56357	0.04195
1496.63491	0.04202
1494.70626	0.04207
1492.77761	0.04205
1490.84895	0.04203
1488.92030	0.04211
1486.99165	0.04228
1485.06299	0.04256
1483.13434	0.04294
1481.20569	0.04342
1479.27703	0.04402
1477.34838	0.04463
1475.41973	0.04524
1473.49107	0.04588
1471.56242	0.04642
1469.63377	0.04681
1467.70511	0.04715
1465.77646	0.04750
1463.84781	0.04786
1461.91915	0.04827
1459.99050	0.04871
1458.06185	0.04918
1456.13319	0.04969
1454.20454	0.05025
1452.27589	0.05082
1450.34724	0.05127
1448.41858	0.05152
1446.48993	0.05164
1444.56128	0.05170
1442.63262	0.05173
1440.70397	0.05172
1438.77532	0.05166
1436.84666	0.05152
1434.91801	0.05138
1432.98936	0.05135
1431.06070	0.05149
1429.13205	0.05179
1427.20340	0.05227
1425.27474	0.05285
1423.34609	0.05343
1421.41744	0.05390
1419.48878	0.05425
1417.56013	0.05454
1415.63148	0.05479
1413.70282	0.05488
1411.77417	0.05474
1409.84552	0.05441
1407.91686	0.05392
1405.98821	0.05322
1404.05956	0.05227
1402.13090	0.05113
1400.20225	0.04989
1398.27360	0.04858
1396.34494	0.04716
1394.41629	0.04564
1392.48764	0.04416
1390.55898	0.04277
1388.63033	0.04134
1386.70168	0.03986
1384.77302	0.03837
1382.84437	0.03684
1380.91572	0.03535
1378.98707	0.03398
1377.05841	0.03273
1375.12976	0.03154
1373.20111	0.03035
1371.27245	0.02916
1369.34380	0.02805
1367.41515	0.02712
1365.48649	0.02635
1363.55784	0.02567
1361.62919	0.02502
1359.70053	0.02438
1357.77188	0.02384
1355.84323	0.02342
1353.91457	0.02307
1351.98592	0.02276
1350.05727	0.02251
1348.12861	0.02234
1346.19996	0.02221
1344.27131	0.02201
1342.34265	0.02175
1340.41400	0.02151
1338.48535	0.02136
1336.55669	0.02127
1334.62804	0.02116
1332.69939	0.02097
1330.77073	0.02073
1328.84208	0.02049
1326.91343	0.02031
1324.98477	0.02018
1323.05612	0.02003
1321.12747	0.01989
1319.19881	0.01980
1317.27016	0.01972
1315.34151	0.01959
1313.41286	0.01935
1311.48420	0.01905
1309.55555	0.01880
1307.62690	0.01860
1305.69824	0.01840
1303.76959	0.01823
1301.84094	0.01813
1299.91228	0.01802
1297.98363	0.01786
1296.05498	0.01771
1294.12632	0.01764
1292.19767	0.01761
1290.26902	0.01758
1288.34036	0.01762
1286.41171	0.01774
1284.48306	0.01785
1282.55440	0.01791
1280.62575	0.01795
1278.69710	0.01795
1276.76844	0.01787
1274.83979	0.01777
1272.91114	0.01774
1270.98248	0.01779
1269.05383	0.01784
1267.12518	0.01788
1265.19652	0.01792
1263.26787	0.01793
1261.33922	0.01790
1259.41056	0.01788
1257.48191	0.01788
1255.55326	0.01792
1253.62460	0.01801
1251.69595	0.01804
1249.76730	0.01800
1247.83864	0.01798
1245.90999	0.01801
1243.98134	0.01802
1242.05269	0.01795
1240.12403	0.01786
1238.19538	0.01776
1236.26673	0.01769
1234.33807	0.01767
1232.40942	0.01758
1230.48077	0.01736
1228.55211	0.01710
1226.62346	0.01682
1224.69481	0.01648
1222.76615	0.01610
1220.83750	0.01579
1218.90885	0.01557
1216.98019	0.01539
1215.05154	0.01522
1213.12289	0.01507
1211.19423	0.01496
1209.26558	0.01494
1207.33693	0.01497
1205.40827	0.01498
1203.47962	0.01495
1201.55097	0.01494
1199.62231	0.01510
1197.69366	0.01499
1195.76501	0.01488
1193.83635	0.01481
1191.90770	0.01477
1189.97905	0.01471
1188.05039	0.01463
1186.12174	0.01461
1184.19309	0.01463
1182.26443	0.01470
1180.33578	0.01487
1178.40713	0.01513
1176.47848	0.01539
1174.54982	0.01569
1172.62117	0.01605
1170.69252	0.01644
1168.76386	0.01681
1166.83521	0.01720
1164.90656	0.01769
1162.97790	0.01833
1161.04925	0.01900
1159.12060	0.01952
1157.19194	0.01999
1155.26329	0.02065
1153.33464	0.02150
1151.40598	0.02236
1149.47733	0.02320
1147.54868	0.02410
1145.62002	0.02516
1143.69137	0.02636
1141.76272	0.02758
1139.83406	0.02884
1137.90541	0.03020
1135.97676	0.03164
1134.04810	0.03326
1132.11945	0.03521
1130.19080	0.03741
1128.26214	0.03971
1126.33349	0.04212
1124.40484	0.04476
1122.47618	0.04763
1120.54753	0.05065
1118.61888	0.05377
1116.69022	0.05702
1114.76157	0.06031
1112.83292	0.06354
1110.90427	0.06683
1108.97561	0.07021
1107.04696	0.07347
1105.11831	0.07657
1103.18965	0.07971
1101.26100	0.08284
1099.33235	0.08583
1097.40369	0.08873
1095.47504	0.09145
1093.54639	0.09388
1091.61773	0.09623
1089.68908	0.09865
1087.76043	0.10102
1085.83177	0.10333
1083.90312	0.10567
1081.97447	0.10807
1080.04581	0.11060
1078.11716	0.11335
1076.18851	0.11618
1074.25985	0.11889
1072.33120	0.12160
1070.40255	0.12445
1068.47389	0.12742
1066.54524	0.13053
1064.61659	0.13370
1062.68793	0.13683
1060.75928	0.13991
1058.83063	0.14294
1056.90197	0.14583
1054.97332	0.14866
1053.04467	0.15152
1051.11601	0.15438
1049.18736	0.15711
1047.25871	0.15982
1045.33005	0.16271
1043.40140	0.16572
1041.47275	0.16873
1039.54410	0.17169
1037.61544	0.17461
1035.68679	0.17752
1033.75814	0.18035
1031.82948	0.18295
1029.90083	0.18526
1027.97218	0.18727
1026.04352	0.18894
1024.11487	0.19013
1022.18622	0.19076
1020.25756	0.19093
1018.32891	0.19078
1016.40026	0.19024
1014.47160	0.18903
1012.54295	0.18709
1010.61430	0.18460
1008.68564	0.18167
1006.75699	0.17832
1004.82834	0.17457
1002.89968	0.17048
1000.97103	0.16612
999.04238	0.16146
997.11372	0.15640
995.18507	0.15102
993.25642	0.14557
991.32776	0.14013
989.39911	0.13464
987.47046	0.12910
985.54180	0.12351
983.61315	0.11787
981.68450	0.11230
979.75584	0.10689
977.82719	0.10168
975.89854	0.09677
973.96989	0.09234
972.04123	0.08854
970.11258	0.08548
968.18393	0.08323
966.25527	0.08179
964.32662	0.08099
962.39797	0.08053
960.46931	0.08001
958.54066	0.07915
956.61201	0.07785
954.68335	0.07607
952.75470	0.07392
950.82605	0.07159
948.89739	0.06926
946.96874	0.06702
945.04009	0.06479
943.11143	0.06259
941.18278	0.06051
939.25413	0.05847
937.32547	0.05647
935.39682	0.05463
933.46817	0.05300
931.53951	0.05148
929.61086	0.05009
927.68221	0.04879
925.75355	0.04753
923.82490	0.04640
921.89625	0.04536
919.96759	0.04434
918.03894	0.04339
916.11029	0.04264
914.18163	0.04204
912.25298	0.04144
910.32433	0.04082
908.39567	0.04035
906.46702	0.04002
904.53837	0.03967
902.60972	0.03921
900.68106	0.03878
898.75241	0.03861
896.82376	0.03863
894.89510	0.03862
892.96645	0.03850
891.03780	0.03835
889.10914	0.03829
887.18049	0.03856
885.25184	0.03935
883.32318	0.04074
881.39453	0.04263
879.46588	0.04451
877.53722	0.04583
875.60857	0.04667
873.67992	0.04724
871.75126	0.04727
869.82261	0.04662
867.89396	0.04560
865.96530	0.04442
864.03665	0.04312
862.10800	0.04179
860.17934	0.04053
858.25069	0.03942
856.32204	0.03845
854.39338	0.03766
852.46473	0.03703
850.53608	0.03645
848.60742	0.03592
846.67877	0.03550
844.75012	0.03517
842.82146	0.03483
840.89281	0.03440
838.96416	0.03392
837.03551	0.03352
835.10685	0.03325
833.17820	0.03300
831.24955	0.03276
829.32089	0.03252
827.39224	0.03219
825.46359	0.03185
823.53493	0.03173
821.60628	0.03184
819.67763	0.03185
817.74897	0.03156
815.82032	0.03122
813.89167	0.03102
811.96301	0.03090
810.03436	0.03083
808.10571	0.03080
806.17705	0.03074
804.24840	0.03064
802.31975	0.03063
800.39109	0.03070
798.46244	0.03078
796.53379	0.03086
794.60513	0.03086
792.67648	0.03071
790.74783	0.03048
788.81917	0.03030
786.89052	0.03023
784.96187	0.03019
783.03321	0.03020
781.10456	0.03031
779.17591	0.03032
777.24725	0.03018
775.31860	0.03012
773.38995	0.03029
771.46130	0.03054
769.53264	0.03060
767.60399	0.03049
765.67534	0.03042
763.74668	0.03040
761.81803	0.03033
759.88938	0.03027
757.96072	0.03028
756.03207	0.03041
754.10342	0.03061
752.17476	0.03080
750.24611	0.03093
748.31746	0.03093
746.38880	0.03088
744.46015	0.03088
742.53150	0.03089
740.60284	0.03082
738.67419	0.03071
736.74554	0.03078
734.81688	0.03102
732.88823	0.03120
730.95958	0.03123
729.03092	0.03114
727.10227	0.03096
725.17362	0.03083
723.24496	0.03091
721.31631	0.03111
719.38766	0.03123
717.45900	0.03129
715.53035	0.03133
713.60170	0.03129
711.67304	0.03123
709.74439	0.03120
707.81574	0.03117
705.88708	0.03119
703.95843	0.03124
702.02978	0.03122
700.10113	0.03111
698.17247	0.03104
696.24382	0.03106
694.31517	0.03107
692.38651	0.03104
690.45786	0.03102
688.52921	0.03105
686.60055	0.03118
684.67190	0.03129
682.74325	0.03135
680.81459	0.03138
678.88594	0.03131
676.95729	0.03126
675.02863	0.03123
673.09998	0.03122
671.17133	0.03125
669.24267	0.03133
667.31402	0.03138
665.38537	0.03133
663.45671	0.03112
661.52806	0.03089
659.59941	0.03077
657.67075	0.03071
655.74210	0.03064
653.81345	0.03056
651.88479	0.03058
649.95614	0.03072
648.02749	0.03093
646.09883	0.03109
644.17018	0.03118
642.24153	0.03129
640.31287	0.03149
638.38422	0.03177
636.45557	0.03219
634.52692	0.03285
632.59826	0.03342
630.66961	0.03452
628.74096	0.03785
626.81230	0.03563
624.88365	0.03263
622.95500	0.03233
621.02634	0.03564
619.09769	0.04054
617.16904	0.04565
615.24038	0.05081
613.31173	0.05498
611.38308	0.05775
609.45442	0.06151
607.52577	0.06664
605.59712	0.07039
603.66846	0.07330
601.73981	0.07613
599.81116	0.07727
597.88250	0.07652
595.95385	0.07485
594.02520	0.07292
592.09654	0.07146
590.16789	0.07106
588.23924	0.07152
586.31058	0.07250
584.38193	0.07401
582.45328	0.07597
580.52462	0.07818
578.59597	0.08063
576.66732	0.08335
574.73866	0.08620
572.81001	0.08885
570.88136	0.09121
568.95270	0.09392
567.02405	0.09748
565.09540	0.10134
563.16675	0.10458
561.23809	0.10642
559.30944	0.10615
557.38079	0.10366
555.45213	0.09966
553.52348	0.09509
551.59483	0.09050
549.66617	0.08596
547.73752	0.08160
545.80887	0.07765
543.88021	0.07414
541.95156	0.07107
540.02291	0.06837
538.09425	0.06584
536.16560	0.06345
534.23695	0.06132
532.30829	0.05928
530.37964	0.05714
528.45099	0.05508
526.52233	0.05331
524.59368	0.05174
522.66503	0.05012
520.73637	0.04843
518.80772	0.04683
516.87907	0.04539
514.95041	0.04413
513.02176	0.04306
511.09311	0.04205
509.16445	0.04108
507.23580	0.04015
505.30715	0.03910
503.37849	0.03801
501.44984	0.03723
499.52119	0.03679
497.59254	0.03624
495.66388	0.03539
493.73523	0.03452
491.80658	0.03393
489.87792	0.03354
487.94927	0.03313
486.02062	0.03273
484.09196	0.03248
482.16331	0.03226
480.23466	0.03196
478.30600	0.03175
476.37735	0.03181
474.44870	0.03193
472.52004	0.03188
470.59139	0.03166
468.66274	0.03138
466.73408	0.03103
464.80543	0.03069
462.87678	0.03042
460.94812	0.03018
459.01947	0.02987
457.09082	0.02947
455.16216	0.02907
453.23351	0.02863
451.30486	0.02816
449.37620	0.02781
447.44755	0.02756
445.51890	0.02739
443.59024	0.02730
441.66159	0.02718
439.73294	0.02698
437.80428	0.02680
435.87563	0.02661
433.94698	0.02641
432.01833	0.02628
430.08967	0.02615
428.16102	0.02592
426.23237	0.02559
424.30371	0.02531
422.37506	0.02516
420.44641	0.02507
418.51775	0.02488
416.58910	0.02459
414.66045	0.02440
412.73179	0.02439
410.80314	0.02442
408.87449	0.02439
406.94583	0.02440
405.01718	0.02446
403.08853	0.02443
401.15987	0.02434
399.23122	0.02429
