3996.16951	0.06124
3994.24086	0.06124
3992.31220	0.06106
3990.38355	0.06112
3988.45490	0.06152
3986.52624	0.06175
3984.59759	0.06159
3982.66894	0.06143
3980.74028	0.06147
3978.81163	0.06159
3976.88298	0.06177
3974.95432	0.06182
3973.02567	0.06152
3971.09702	0.06100
3969.16836	0.06071
3967.23971	0.06083
3965.31106	0.06087
3963.38240	0.06048
3961.45375	0.06011
3959.52510	0.06016
3957.59645	0.06050
3955.66779	0.06094
3953.73914	0.06123
3951.81049	0.06121
3949.88183	0.06098
3947.95318	0.06043
3946.02453	0.05978
3944.09587	0.05969
3942.16722	0.06009
3940.23857	0.06028
3938.30991	0.05985
3936.38126	0.05912
3934.45261	0.05893
3932.52395	0.05905
3930.59530	0.05861
3928.66665	0.05806
3926.73799	0.05801
3924.80934	0.05804
3922.88069	0.05773
3920.95203	0.05748
3919.02338	0.05765
3917.09473	0.05816
3915.16607	0.05841
3913.23742	0.05836
3911.30877	0.05840
3909.38011	0.05875
3907.45146	0.05904
3905.52281	0.05890
3903.59415	0.05844
3901.66550	0.05822
3899.73685	0.05822
3897.80819	0.05784
3895.87954	0.05748
3893.95089	0.05754
3892.02224	0.05778
3890.09358	0.05755
3888.16493	0.05760
3886.23628	0.05840
3884.30762	0.05805
3882.37897	0.05713
3880.45032	0.05691
3878.52166	0.05702
3876.59301	0.05746
3874.66436	0.05755
3872.73570	0.05708
3870.80705	0.05741
3868.87840	0.05753
3866.94974	0.05727
3865.02109	0.05728
3863.09244	0.05695
3861.16378	0.05672
3859.23513	0.05631
3857.30648	0.05593
3855.37782	0.05710
3853.44917	0.05814
3851.52052	0.05711
3849.59186	0.05602
3847.66321	0.05552
3845.73456	0.05487
3843.80590	0.05414
3841.87725	0.05401
3839.94860	0.05520
3838.01994	0.05640
3836.09129	0.05570
3834.16264	0.05477
3832.23398	0.05456
3830.30533	0.05423
3828.37668	0.05406
3826.44803	0.05411
3824.51937	0.05385
3822.59072	0.05417
3820.66207	0.05434
3818.73341	0.05400
3816.80476	0.05456
3814.87611	0.05439
3812.94745	0.05379
3811.01880	0.05368
3809.09015	0.05383
3807.16149	0.05408
3805.23284	0.05308
3803.30419	0.05231
3801.37553	0.05240
3799.44688	0.05203
3797.51823	0.05233
3795.58957	0.05246
3793.66092	0.05199
3791.73227	0.05224
3789.80361	0.05287
3787.87496	0.05279
3785.94631	0.05224
3784.01765	0.05181
3782.08900	0.05182
3780.16035	0.05225
3778.23169	0.05215
3776.30304	0.05150
3774.37439	0.05120
3772.44573	0.05146
3770.51708	0.05173
3768.58843	0.05147
3766.65977	0.05154
3764.73112	0.05167
3762.80247	0.05124
3760.87381	0.05087
3758.94516	0.05063
3757.01651	0.05044
3755.08786	0.05034
3753.15920	0.05113
3751.23055	0.05212
3749.30190	0.05190
3747.37324	0.05066
3745.44459	0.05082
3743.51594	0.05038
3741.58728	0.04930
3739.65863	0.04963
3737.72998	0.05027
3735.80132	0.05040
3733.87267	0.05024
3731.94402	0.04949
3730.01536	0.04824
3728.08671	0.04821
3726.15806	0.04895
3724.22940	0.04933
3722.30075	0.04947
3720.37210	0.04886
3718.44344	0.04820
3716.51479	0.04784
3714.58614	0.04755
3712.65748	0.04730
3710.72883	0.04705
3708.80018	0.04712
3706.87152	0.04699
3704.94287	0.04697
3703.01422	0.04752
3701.08556	0.04774
3699.15691	0.04748
3697.22826	0.04735
3695.29960	0.04761
3693.37095	0.04819
3691.44230	0.04867
3689.51365	0.04886
3687.58499	0.04824
3685.65634	0.04737
3683.72769	0.04752
3681.79903	0.04784
3679.87038	0.04748
3677.94173	0.04685
3676.01307	0.04677
3674.08442	0.04596
3672.15577	0.04594
3670.22711	0.04693
3668.29846	0.04699
3666.36981	0.04686
3664.44115	0.04692
3662.51250	0.04748
3660.58385	0.04831
3658.65519	0.04880
3656.72654	0.04881
3654.79789	0.04796
3652.86923	0.04732
3650.94058	0.04789
3649.01193	0.04873
3647.08327	0.04926
3645.15462	0.04999
3643.22597	0.05099
3641.29731	0.05178
3639.36866	0.05204
3637.44001	0.05178
3635.51135	0.05128
3633.58270	0.05106
3631.65405	0.05086
3629.72539	0.05159
3627.79674	0.05201
3625.86809	0.05218
3623.93943	0.05238
3622.01078	0.05344
3620.08213	0.05441
3618.15348	0.05482
3616.22482	0.05544
3614.29617	0.05590
3612.36752	0.05591
3610.43886	0.05606
3608.51021	0.05659
3606.58156	0.05673
3604.65290	0.05724
3602.72425	0.05834
3600.79560	0.05930
3598.86694	0.05947
3596.93829	0.05941
3595.00964	0.05966
3593.08098	0.06013
3591.15233	0.06071
3589.22368	0.06117
3587.29502	0.06123
3585.36637	0.06140
3583.43772	0.06230
3581.50906	0.06338
3579.58041	0.06407
3577.65176	0.06469
3575.72310	0.06521
3573.79445	0.06556
3571.86580	0.06619
3569.93714	0.06715
3568.00849	0.06782
3566.07984	0.06791
3564.15118	0.06819
3562.22253	0.06889
3560.29388	0.06963
3558.36522	0.07056
3556.43657	0.07148
3554.50792	0.07207
3552.57927	0.07258
3550.65061	0.07320
3548.72196	0.07405
3546.79331	0.07490
3544.86465	0.07528
3542.93600	0.07553
3541.00735	0.07606
3539.07869	0.07671
3537.15004	0.07723
3535.22139	0.07742
3533.29273	0.07753
3531.36408	0.07796
3529.43543	0.07856
3527.50677	0.07929
3525.57812	0.08038
3523.64947	0.08149
3521.72081	0.08201
3519.79216	0.08207
3517.86351	0.08227
3515.93485	0.08282
3514.00620	0.08354
3512.07755	0.08398
3510.14889	0.08420
3508.22024	0.08475
3506.29159	0.08565
3504.36293	0.08642
3502.43428	0.08683
3500.50563	0.08718
3498.57697	0.08767
3496.64832	0.08811
3494.71967	0.08849
3492.79101	0.08916
3490.86236	0.09002
3488.93371	0.09057
3487.00506	0.09069
3485.07640	0.09083
3483.14775	0.09120
3481.21910	0.09161
3479.29044	0.09210
3477.36179	0.09281
3475.43314	0.09347
3473.50448	0.09382
3471.57583	0.09397
3469.64718	0.09436
3467.71852	0.09513
3465.78987	0.09591
3463.86122	0.09622
3461.93256	0.09612
3460.00391	0.09619
3458.07526	0.09665
3456.14660	0.09697
3454.21795	0.09695
3452.28930	0.09712
3450.36064	0.09773
3448.43199	0.09851
3446.50334	0.09914
3444.57468	0.09948
3442.64603	0.09985
3440.71738	0.10034
3438.78872	0.10089
3436.86007	0.10142
3434.93142	0.10182
3433.00276	0.10225
3431.07411	0.10300
3429.14546	0.10365
3427.21680	0.10372
3425.28815	0.10353
3423.35950	0.10372
3421.43084	0.10439
3419.50219	0.10498
3417.57354	0.10544
3415.64489	0.10632
3413.71623	0.10741
3411.78758	0.10785
3409.85893	0.10773
3407.93027	0.10771
3406.00162	0.10796
3404.07297	0.10831
3402.14431	0.10871
3400.21566	0.10913
3398.28701	0.10946
3396.35835	0.10976
3394.42970	0.11020
3392.50105	0.11074
3390.57239	0.11121
3388.64374	0.11172
3386.71509	0.11233
3384.78643	0.11275
3382.85778	0.11286
3380.92913	0.11303
3379.00047	0.11356
3377.07182	0.11431
3375.14317	0.11502
3373.21451	0.11553
3371.28586	0.11581
3369.35721	0.11616
3367.42855	0.11683
3365.49990	0.11770
3363.57125	0.11855
3361.64259	0.11935
3359.71394	0.12017
3357.78529	0.12110
3355.85663	0.12214
3353.92798	0.12310
3351.99933	0.12403
3350.07068	0.12510
3348.14202	0.12630
3346.21337	0.12734
3344.28472	0.12810
3342.35606	0.12889
3340.42741	0.12975
3338.49876	0.13048
3336.57010	0.13118
3334.64145	0.13203
3332.71280	0.13292
3330.78414	0.13369
3328.85549	0.13450
3326.92684	0.13550
3324.99818	0.13629
3323.06953	0.13657
3321.14088	0.13679
3319.21222	0.13714
3317.28357	0.13728
3315.35492	0.13739
3313.42626	0.13783
3311.49761	0.13841
3309.56896	0.13879
3307.64030	0.13899
3305.71165	0.13929
3303.78300	0.13965
3301.85434	0.13982
3299.92569	0.13994
3297.99704	0.14022
3296.06838	0.14031
3294.13973	0.14000
3292.21108	0.13954
3290.28242	0.13917
3288.35377	0.13902
3286.42512	0.13894
3284.49646	0.13883
3282.56781	0.13904
3280.63916	0.13943
3278.71051	0.13923
3276.78185	0.13844
3274.85320	0.13765
3272.92455	0.13692
3270.99589	0.13625
3269.06724	0.13573
3267.13859	0.13531
3265.20993	0.13510
3263.28128	0.13501
3261.35263	0.13467
3259.42397	0.13413
3257.49532	0.13376
3255.56667	0.13348
3253.63801	0.13284
3251.70936	0.13186
3249.78071	0.13086
3247.85205	0.13002
3245.92340	0.12954
3243.99475	0.12929
3242.06609	0.12883
3240.13744	0.12827
3238.20879	0.12792
3236.28013	0.12759
3234.35148	0.12694
3232.42283	0.12603
3230.49417	0.12527
3228.56552	0.12516
3226.63687	0.12542
3224.70821	0.12523
3222.77956	0.12457
3220.85091	0.12399
3218.92225	0.12374
3216.99360	0.12374
3215.06495	0.12360
3213.13630	0.12297
3211.20764	0.12210
3209.27899	0.12142
3207.35034	0.12099
3205.42168	0.12068
3203.49303	0.12051
3201.56438	0.12048
3199.63572	0.12021
3197.70707	0.11949
3195.77842	0.11865
3193.84976	0.11789
3191.92111	0.11721
3189.99246	0.11670
3188.06380	0.11634
3186.13515	0.11587
3184.20650	0.11520
3182.27784	0.11467
3180.34919	0.11424
3178.42054	0.11345
3176.49188	0.11242
3174.56323	0.11170
3172.63458	0.11099
3170.70592	0.10973
3168.77727	0.10841
3166.84862	0.10774
3164.91996	0.10749
3162.99131	0.10692
3161.06266	0.10592
3159.13400	0.10507
3157.20535	0.10463
3155.27670	0.10425
3153.34804	0.10361
3151.41939	0.10291
3149.49074	0.10232
3147.56209	0.10163
3145.63343	0.10081
3143.70478	0.10011
3141.77613	0.09956
3139.84747	0.09902
3137.91882	0.09856
3135.99017	0.09822
3134.06151	0.09768
3132.13286	0.09689
3130.20421	0.09635
3128.27555	0.09617
3126.34690	0.09602
3124.41825	0.09579
3122.48959	0.09533
3120.56094	0.09482
3118.63229	0.09470
3116.70363	0.09474
3114.77498	0.09455
3112.84633	0.09440
3110.91767	0.09455
3108.98902	0.09481
3107.06037	0.09495
3105.13171	0.09509
3103.20306	0.09536
3101.27441	0.09554
3099.34575	0.09543
3097.41710	0.09515
3095.48845	0.09505
3093.55979	0.09546
3091.63114	0.09632
3089.70249	0.09698
3087.77383	0.09699
3085.84518	0.09679
3083.91653	0.09695
3081.98787	0.09733
3080.05922	0.09759
3078.13057	0.09757
3076.20192	0.09736
3074.27326	0.09721
3072.34461	0.09729
3070.41596	0.09749
3068.48730	0.09746
3066.55865	0.09709
3064.63000	0.09654
3062.70134	0.09584
3060.77269	0.09513
3058.84404	0.09476
3056.91538	0.09461
3054.98673	0.09433
3053.05808	0.09391
3051.12942	0.09327
3049.20077	0.09244
3047.27212	0.09168
3045.34346	0.09094
3043.41481	0.09025
3041.48616	0.08994
3039.55750	0.08981
3037.62885	0.08938
3035.70020	0.08866
3033.77154	0.08785
3031.84289	0.08700
3029.91424	0.08631
3027.98558	0.08583
3026.05693	0.08535
3024.12828	0.08490
3022.19962	0.08458
3020.27097	0.08413
3018.34232	0.08338
3016.41366	0.08265
3014.48501	0.08232
3012.55636	0.08233
3010.62771	0.08229
3008.69905	0.08211
3006.77040	0.08202
3004.84175	0.08195
3002.91309	0.08180
3000.98444	0.08175
2999.05579	0.08185
2997.12713	0.08199
2995.19848	0.08223
2993.26983	0.08259
2991.34117	0.08294
2989.41252	0.08323
2987.48387	0.08341
2985.55521	0.08344
2983.62656	0.08380
2981.69791	0.08481
2979.76925	0.08586
2977.84060	0.08628
2975.91195	0.08625
2973.98329	0.08637
2972.05464	0.08681
2970.12599	0.08736
2968.19733	0.08787
2966.26868	0.08840
2964.34003	0.08905
2962.41137	0.08958
2960.48272	0.08999
2958.55407	0.09052
2956.62541	0.09105
2954.69676	0.09119
2952.76811	0.09098
2950.83945	0.09076
2948.91080	0.09089
2946.98215	0.09131
2945.05349	0.09163
2943.12484	0.09196
2941.19619	0.09266
2939.26754	0.09353
2937.33888	0.09409
2935.41023	0.09424
2933.48158	0.09425
2931.55292	0.09446
2929.62427	0.09503
2927.69562	0.09577
2925.76696	0.09611
2923.83831	0.09583
2921.90966	0.09518
2919.98100	0.09440
2918.05235	0.09358
2916.12370	0.09257
2914.19504	0.09102
2912.26639	0.08927
2910.33774	0.08789
2908.40908	0.08684
2906.48043	0.08589
2904.55178	0.08500
2902.62312	0.08421
2900.69447	0.08354
2898.76582	0.08300
2896.83716	0.08254
2894.90851	0.08203
2892.97986	0.08147
2891.05120	0.08104
2889.12255	0.08086
2887.19390	0.08087
2885.26524	0.08093
2883.33659	0.08086
2881.40794	0.08073
2879.47928	0.08066
2877.55063	0.08054
2875.62198	0.08039
2873.69333	0.08026
2871.76467	0.08009
2869.83602	0.07986
2867.90737	0.07950
2865.97871	0.07894
2864.05006	0.07836
2862.12141	0.07786
2860.19275	0.07758
2858.26410	0.07763
2856.33545	0.07785
2854.40679	0.07804
2852.47814	0.07801
2850.54949	0.07748
2848.62083	0.07643
2846.69218	0.07527
2844.76353	0.07424
2842.83487	0.07329
2840.90622	0.07238
2838.97757	0.07154
2837.04891	0.07096
2835.12026	0.07073
2833.19161	0.07060
2831.26295	0.07029
2829.33430	0.06974
2827.40565	0.06898
2825.47699	0.06826
2823.54834	0.06773
2821.61969	0.06735
2819.69103	0.06713
2817.76238	0.06707
2815.83373	0.06704
2813.90507	0.06692
2811.97642	0.06658
2810.04777	0.06604
2808.11912	0.06550
2806.19046	0.06524
2804.26181	0.06518
2802.33316	0.06506
2800.40450	0.06483
2798.47585	0.06458
2796.54720	0.06441
2794.61854	0.06422
2792.68989	0.06394
2790.76124	0.06367
2788.83258	0.06345
2786.90393	0.06320
2784.97528	0.06291
2783.04662	0.06264
2781.11797	0.06233
2779.18932	0.06207
2777.26066	0.06199
2775.33201	0.06201
2773.40336	0.06197
2771.47470	0.06174
2769.54605	0.06138
2767.61740	0.06111
2765.68874	0.06098
2763.76009	0.06087
2761.83144	0.06081
2759.90278	0.06081
2757.97413	0.06068
2756.04548	0.06039
2754.11682	0.06017
2752.18817	0.06012
2750.25952	0.06002
2748.33086	0.05978
2746.40221	0.05957
2744.47356	0.05939
2742.54490	0.05904
2740.61625	0.05853
2738.68760	0.05816
2736.75895	0.05808
2734.83029	0.05802
2732.90164	0.05781
2730.97299	0.05757
2729.04433	0.05741
2727.11568	0.05734
2725.18703	0.05725
2723.25837	0.05710
2721.32972	0.05698
2719.40107	0.05690
2717.47241	0.05659
2715.54376	0.05609
2713.61511	0.05576
2711.68645	0.05578
2709.75780	0.05594
2707.82915	0.05588
2705.90049	0.05554
2703.97184	0.05523
2702.04319	0.05512
2700.11453	0.05510
2698.18588	0.05504
2696.25723	0.05492
2694.32857	0.05470
2692.39992	0.05445
2690.47127	0.05436
2688.54261	0.05441
2686.61396	0.05444
2684.68531	0.05437
2682.75665	0.05422
2680.82800	0.05405
2678.89935	0.05392
2676.97069	0.05380
2675.04204	0.05361
2673.11339	0.05351
2671.18474	0.05359
2669.25608	0.05350
2667.32743	0.05311
2665.39878	0.05271
2663.47012	0.05255
2661.54147	0.05249
2659.61282	0.05221
2657.68416	0.05179
2655.75551	0.05147
2653.82686	0.05128
2651.89820	0.05120
2649.96955	0.05107
2648.04090	0.05077
2646.11224	0.05041
2644.18359	0.05000
2642.25494	0.04958
2640.32628	0.04935
2638.39763	0.04924
2636.46898	0.04895
2634.54032	0.04848
2632.61167	0.04808
2630.68302	0.04786
2628.75436	0.04772
2626.82571	0.04762
2624.89706	0.04763
2622.96840	0.04759
2621.03975	0.04725
2619.11110	0.04677
2617.18244	0.04649
2615.25379	0.04631
2613.32514	0.04593
2611.39648	0.04542
2609.46783	0.04495
2607.53918	0.04454
2605.61052	0.04432
2603.68187	0.04438
2601.75322	0.04456
2599.82457	0.04460
2597.89591	0.04448
2595.96726	0.04432
2594.03861	0.04409
2592.10995	0.04379
2590.18130	0.04352
2588.25265	0.04310
2586.32399	0.04254
2584.39534	0.04225
2582.46669	0.04234
2580.53803	0.04236
2578.60938	0.04211
2576.68073	0.04200
2574.75207	0.04216
2572.82342	0.04225
2570.89477	0.04214
2568.96611	0.04185
2567.03746	0.04142
2565.10881	0.04100
2563.18015	0.04084
2561.25150	0.04094
2559.32285	0.04106
2557.39419	0.04101
2555.46554	0.04087
2553.53689	0.04070
2551.60823	0.04053
2549.67958	0.04052
2547.75093	0.04069
2545.82227	0.04078
2543.89362	0.04066
2541.96497	0.04038
2540.03631	0.04011
2538.10766	0.03992
2536.17901	0.03971
2534.25036	0.03937
2532.32170	0.03912
2530.39305	0.03901
2528.46440	0.03873
2526.53574	0.03839
2524.60709	0.03838
2522.67844	0.03874
2520.74978	0.03892
2518.82113	0.03869
2516.89248	0.03847
2514.96382	0.03840
2513.03517	0.03835
2511.10652	0.03842
2509.17786	0.03864
2507.24921	0.03879
2505.32056	0.03857
2503.39190	0.03830
2501.46325	0.03830
2499.53460	0.03813
2497.60594	0.03752
2495.67729	0.03719
2493.74864	0.03768
2491.81998	0.03821
2489.89133	0.03800
2487.96268	0.03762
2486.03402	0.03775
2484.10537	0.03803
2482.17672	0.03798
2480.24806	0.03757
2478.31941	0.03689
2476.39076	0.03640
2474.46210	0.03649
2472.53345	0.03669
2470.60480	0.03670
2468.67615	0.03673
2466.74749	0.03672
2464.81884	0.03666
2462.89019	0.03665
2460.96153	0.03644
2459.03288	0.03587
2457.10423	0.03532
2455.17557	0.03522
2453.24692	0.03531
2451.31827	0.03528
2449.38961	0.03530
2447.46096	0.03533
2445.53231	0.03526
2443.60365	0.03527
2441.67500	0.03548
2439.74635	0.03574
2437.81769	0.03576
2435.88904	0.03546
2433.96039	0.03522
2432.03173	0.03528
2430.10308	0.03543
2428.17443	0.03547
2426.24577	0.03532
2424.31712	0.03520
2422.38847	0.03526
2420.45981	0.03521
2418.53116	0.03522
2416.60251	0.03559
2414.67385	0.03564
2412.74520	0.03508
2410.81655	0.03473
2408.88789	0.03496
2406.95924	0.03529
2405.03059	0.03530
2403.10193	0.03509
2401.17328	0.03511
2399.24463	0.03532
2397.31598	0.03533
2395.38732	0.03513
2393.45867	0.03516
2391.53002	0.03544
2389.60136	0.03569
2387.67271	0.03583
2385.74406	0.03585
2383.81540	0.03572
2381.88675	0.03562
2379.95810	0.03579
2378.02944	0.03623
2376.10079	0.03661
2374.17214	0.03667
2372.24348	0.03652
2370.31483	0.03663
2368.38618	0.03637
2366.45752	0.03630
2364.52887	0.03635
2362.60022	0.03590
2360.67156	0.03624
2358.74291	0.03657
2356.81426	0.03625
2354.88560	0.03609
2352.95695	0.03616
2351.02830	0.03612
2349.09964	0.03602
2347.17099	0.03597
2345.24234	0.03594
2343.31368	0.03569
2341.38503	0.03534
2339.45638	0.03600
2337.52772	0.03553
2335.59907	0.03567
2333.67042	0.03572
2331.74177	0.03551
2329.81311	0.03522
2327.88446	0.03485
2325.95581	0.03437
2324.02715	0.03397
2322.09850	0.03386
2320.16985	0.03384
2318.24119	0.03368
2316.31254	0.03336
2314.38389	0.03305
2312.45523	0.03298
2310.52658	0.03304
2308.59793	0.03288
2306.66927	0.03252
2304.74062	0.03210
2302.81197	0.03164
2300.88331	0.03130
2298.95466	0.03124
2297.02601	0.03119
2295.09735	0.03077
2293.16870	0.03016
2291.24005	0.02977
2289.31139	0.02960
2287.38274	0.02932
2285.45409	0.02884
2283.52543	0.02854
2281.59678	0.02869
2279.66813	0.02885
2277.73947	0.02848
2275.81082	0.02789
2273.88217	0.02755
2271.95351	0.02738
2270.02486	0.02729
2268.09621	0.02717
2266.16755	0.02678
2264.23890	0.02637
2262.31025	0.02638
2260.38160	0.02635
2258.45294	0.02582
2256.52429	0.02527
2254.59564	0.02528
2252.66698	0.02558
2250.73833	0.02568
2248.80968	0.02552
2246.88102	0.02505
2244.95237	0.02409
2243.02372	0.02298
2241.09506	0.02281
2239.16641	0.02369
2237.23776	0.02434
2235.30910	0.02426
2233.38045	0.02424
2231.45180	0.02468
2229.52314	0.02494
2227.59449	0.02431
2225.66584	0.02327
2223.73718	0.02280
2221.80853	0.02276
2219.87988	0.02257
2217.95122	0.02247
2216.02257	0.02221
2214.09392	0.02109
2212.16526	0.01978
2210.23661	0.01917
2208.30796	0.01923
2206.37930	0.01944
2204.45065	0.01932
2202.52200	0.01935
2200.59334	0.01974
2198.66469	0.01965
2196.73604	0.01906
2194.80739	0.01842
2192.87873	0.01793
2190.95008	0.01801
2189.02143	0.01851
2187.09277	0.01879
2185.16412	0.01867
2183.23547	0.01814
2181.30681	0.01723
2179.37816	0.01632
2177.44951	0.01586
2175.52085	0.01531
2173.59220	0.01409
2171.66355	0.01321
2169.73489	0.01361
2167.80624	0.01431
2165.87759	0.01389
2163.94893	0.01250
2162.02028	0.01128
2160.09163	0.01101
2158.16297	0.01254
2156.23432	0.01535
2154.30567	0.01695
2152.37701	0.01664
2150.44836	0.01634
2148.51971	0.01691
2146.59105	0.01754
2144.66240	0.01829
2142.73375	0.01949
2140.80509	0.02075
2138.87644	0.02162
2136.94779	0.02201
2135.01913	0.02201
2133.09048	0.02165
2131.16183	0.02145
2129.23318	0.02184
2127.30452	0.02246
2125.37587	0.02294
2123.44722	0.02323
2121.51856	0.02323
2119.58991	0.02311
2117.66126	0.02312
2115.73260	0.02297
2113.80395	0.02269
2111.87530	0.02250
2109.94664	0.02205
2108.01799	0.02159
2106.08934	0.02166
2104.16068	0.02190
2102.23203	0.02160
2100.30338	0.02080
2098.37472	0.02022
2096.44607	0.02062
2094.51742	0.02155
2092.58876	0.02183
2090.66011	0.02140
2088.73146	0.02114
2086.80280	0.02116
2084.87415	0.02129
2082.94550	0.02137
2081.01684	0.02083
2079.08819	0.01950
2077.15954	0.01834
2075.23088	0.01803
2073.30223	0.01816
2071.37358	0.01818
2069.44492	0.01778
2067.51627	0.01713
2065.58762	0.01657
2063.65896	0.01663
2061.73031	0.01770
2059.80166	0.01872
2057.87301	0.01845
2055.94435	0.01765
2054.01570	0.01737
2052.08705	0.01712
2050.15839	0.01614
2048.22974	0.01484
2046.30109	0.01407
2044.37243	0.01399
2042.44378	0.01417
2040.51513	0.01414
2038.58647	0.01362
2036.65782	0.01295
2034.72917	0.01264
2032.80051	0.01262
2030.87186	0.01260
2028.94321	0.01242
2027.01455	0.01244
2025.08590	0.01243
2023.15725	0.01139
2021.22859	0.01038
2019.29994	0.01118
2017.37129	0.01304
2015.44263	0.01446
2013.51398	0.01503
2011.58533	0.01454
2009.65667	0.01331
2007.72802	0.01250
2005.79937	0.01274
2003.87071	0.01355
2001.94206	0.01423
2000.01341	0.01453
1998.08475	0.01463
1996.15610	0.01471
1994.22745	0.01495
1992.29880	0.01546
1990.37014	0.01560
1988.44149	0.01514
1986.51284	0.01473
1984.58418	0.01459
1982.65553	0.01414
1980.72688	0.01278
1978.79822	0.01129
1976.86957	0.01089
1974.94092	0.01107
1973.01226	0.01107
1971.08361	0.01141
1969.15496	0.01211
1967.22630	0.01272
1965.29765	0.01339
1963.36900	0.01437
1961.44034	0.01539
1959.51169	0.01595
1957.58304	0.01599
1955.65438	0.01601
1953.72573	0.01605
1951.79708	0.01592
1949.86842	0.01600
1947.93977	0.01646
1946.01112	0.01683
1944.08246	0.01698
1942.15381	0.01712
1940.22516	0.01741
1938.29650	0.01790
1936.36785	0.01829
1934.43920	0.01820
1932.51054	0.01761
1930.58189	0.01699
1928.65324	0.01679
1926.72458	0.01707
1924.79593	0.01766
1922.86728	0.01821
1920.93863	0.01823
1919.00997	0.01793
1917.08132	0.01777
1915.15267	0.01789
1913.22401	0.01829
1911.29536	0.01862
1909.36671	0.01839
1907.43805	0.01793
1905.50940	0.01781
1903.58075	0.01790
1901.65209	0.01807
1899.72344	0.01838
1897.79479	0.01853
1895.86613	0.01835
1893.93748	0.01804
1892.00883	0.01788
1890.08017	0.01802
1888.15152	0.01828
1886.22287	0.01844
1884.29421	0.01845
1882.36556	0.01825
1880.43691	0.01802
1878.50825	0.01802
1876.57960	0.01821
1874.65095	0.01820
1872.72229	0.01794
1870.79364	0.01792
1868.86499	0.01819
1866.93633	0.01834
1865.00768	0.01829
1863.07903	0.01819
1861.15037	0.01819
1859.22172	0.01835
1857.29307	0.01857
1855.36442	0.01866
1853.43576	0.01851
1851.50711	0.01820
1849.57846	0.01791
1847.64980	0.01780
1845.72115	0.01800
1843.79250	0.01829
1841.86384	0.01834
1839.93519	0.01832
1838.00654	0.01816
1836.07788	0.01801
1834.14923	0.01800
1832.22058	0.01809
1830.29192	0.01815
1828.36327	0.01798
1826.43462	0.01776
1824.50596	0.01753
1822.57731	0.01729
1820.64866	0.01733
1818.72000	0.01765
1816.79135	0.01806
1814.86270	0.01828
1812.93404	0.01822
1811.00539	0.01802
1809.07674	0.01781
1807.14808	0.01767
1805.21943	0.01763
1803.29078	0.01768
1801.36212	0.01768
1799.43347	0.01753
1797.50482	0.01743
1795.57616	0.01756
1793.64751	0.01779
1791.71886	0.01774
1789.79021	0.01746
1787.86155	0.01735
1785.93290	0.01732
1784.00425	0.01719
1782.07559	0.01707
1780.14694	0.01709
1778.21829	0.01705
1776.28963	0.01694
1774.36098	0.01702
1772.43233	0.01718
1770.50367	0.01711
1768.57502	0.01720
1766.64637	0.01724
1764.71771	0.01725
1762.78906	0.01753
1760.86041	0.01760
1758.93175	0.01755
1757.00310	0.01776
1755.07445	0.01793
1753.14579	0.01818
1751.21714	0.01856
1749.28849	0.01884
1747.35983	0.01919
1745.43118	0.01952
1743.50253	0.01991
1741.57387	0.02047
1739.64522	0.02088
1737.71657	0.02083
1735.78791	0.02129
1733.85926	0.02210
1731.93061	0.02224
1730.00195	0.02240
1728.07330	0.02281
1726.14465	0.02330
1724.21599	0.02377
1722.28734	0.02404
1720.35869	0.02435
1718.43004	0.02505
1716.50138	0.02563
1714.57273	0.02616
1712.64408	0.02708
1710.71542	0.02836
1708.78677	0.02999
1706.85812	0.03198
1704.92946	0.03417
1703.00081	0.03668
1701.07216	0.04001
1699.14350	0.04312
1697.21485	0.04655
1695.28620	0.05039
1693.35754	0.05355
1691.42889	0.05701
1689.50024	0.06064
1687.57158	0.06430
1685.64293	0.06869
1683.71428	0.07304
1681.78562	0.07717
1679.85697	0.08204
1677.92832	0.08742
1675.99966	0.09322
1674.07101	0.09889
1672.14236	0.10461
1670.21370	0.11078
1668.28505	0.11675
1666.35640	0.12236
1664.42774	0.12803
1662.49909	0.13356
1660.57044	0.13851
1658.64178	0.14283
1656.71313	0.14651
1654.78448	0.15032
1652.85583	0.15375
1650.92717	0.15563
1648.99852	0.15753
1647.06987	0.15979
1645.14121	0.16141
1643.21256	0.16265
1641.28391	0.16402
1639.35525	0.16523
1637.42660	0.16649
1635.49795	0.16755
1633.56929	0.16761
1631.64064	0.16708
1629.71199	0.16603
1627.78333	0.16394
1625.85468	0.16067
1623.92603	0.15647
1621.99737	0.15131
1620.06872	0.14570
1618.14007	0.14029
1616.21141	0.13457
1614.28276	0.12836
1612.35411	0.12257
1610.42545	0.11716
1608.49680	0.11200
1606.56815	0.10711
1604.63949	0.10258
1602.71084	0.09850
1600.78219	0.09487
1598.85353	0.09163
1596.92488	0.08880
1594.99623	0.08636
1593.06757	0.08437
1591.13892	0.08288
1589.21027	0.08181
1587.28161	0.08112
1585.35296	0.08083
1583.42431	0.08095
1581.49566	0.08142
1579.56700	0.08225
1577.63835	0.08390
1575.70970	0.08598
1573.78104	0.08797
1571.85239	0.09069
1569.92374	0.09397
1567.99508	0.09722
1566.06643	0.10072
1564.13778	0.10437
1562.20912	0.10812
1560.28047	0.11232
1558.35182	0.11594
1556.42316	0.11878
1554.49451	0.12175
1552.56586	0.12426
1550.63720	0.12624
1548.70855	0.12778
1546.77990	0.12894
1544.85124	0.12978
1542.92259	0.13026
1540.99394	0.13063
1539.06528	0.13047
1537.13663	0.12958
1535.20798	0.12889
1533.27932	0.12819
1531.35067	0.12697
1529.42202	0.12566
1527.49336	0.12431
1525.56471	0.12267
1523.63606	0.12088
1521.70740	0.11922
1519.77875	0.11721
1517.85010	0.11517
1515.92145	0.11303
1513.99279	0.11044
1512.06414	0.10747
1510.13549	0.10415
1508.20683	0.10096
1506.27818	0.09765
1504.34953	0.09378
1502.42087	0.09021
1500.49222	0.08701
1498.56357	0.08378
1496.63491	0.08058
1494.70626	0.07727
1492.77761	0.07419
1490.84895	0.07163
1488.92030	0.06933
1486.99165	0.06740
1485.06299	0.06597
1483.13434	0.06509
1481.20569	0.06472
1479.27703	0.06478
1477.34838	0.06531
1475.41973	0.06632
1473.49107	0.06787
1471.56242	0.06958
1469.63377	0.07130
1467.70511	0.07330
1465.77646	0.07544
1463.84781	0.07741
1461.91915	0.07934
1459.99050	0.08155
1458.06185	0.08404
1456.13319	0.08600
1454.20454	0.08714
1452.27589	0.08804
1450.34724	0.08844
1448.41858	0.08826
1446.48993	0.08756
1444.56128	0.08655
1442.63262	0.08547
1440.70397	0.08426
1438.77532	0.08298
1436.84666	0.08152
1434.91801	0.07948
1432.98936	0.07738
1431.06070	0.07565
1429.13205	0.07427
1427.20340	0.07329
1425.27474	0.07274
1423.34609	0.07233
1421.41744	0.07212
1419.48878	0.07215
1417.56013	0.07197
1415.63148	0.07191
1413.70282	0.07215
1411.77417	0.07254
1409.84552	0.07303
1407.91686	0.07367
1405.98821	0.07438
1404.05956	0.07484
1402.13090	0.07493
1400.20225	0.07486
1398.27360	0.07463
1396.34494	0.07434
1394.41629	0.07407
1392.48764	0.07372
1390.55898	0.07342
1388.63033	0.07320
1386.70168	0.07288
1384.77302	0.07248
1382.84437	0.07211
1380.91572	0.07166
1378.98707	0.07112
1377.05841	0.07048
1375.12976	0.06969
1373.20111	0.06869
1371.27245	0.06751
1369.34380	0.06634
1367.41515	0.06512
1365.48649	0.06389
1363.55784	0.06282
1361.62919	0.06194
1359.70053	0.06129
1357.77188	0.06096
1355.84323	0.06100
1353.91457	0.06133
1351.98592	0.06188
1350.05727	0.06266
1348.12861	0.06368
1346.19996	0.06484
1344.27131	0.06594
1342.34265	0.06693
1340.41400	0.06779
1338.48535	0.06840
1336.55669	0.06869
1334.62804	0.06857
1332.69939	0.06791
1330.77073	0.06681
1328.84208	0.06564
1326.91343	0.06465
1324.98477	0.06387
1323.05612	0.06329
1321.12747	0.06288
1319.19881	0.06260
1317.27016	0.06235
1315.34151	0.06204
1313.41286	0.06162
1311.48420	0.06113
1309.55555	0.06063
1307.62690	0.06015
1305.69824	0.05973
1303.76959	0.05941
1301.84094	0.05915
1299.91228	0.05893
1297.98363	0.05877
1296.05498	0.05877
1294.12632	0.05906
1292.19767	0.05964
1290.26902	0.06039
1288.34036	0.06120
1286.41171	0.06204
1284.48306	0.06286
1282.55440	0.06352
1280.62575	0.06388
1278.69710	0.06401
1276.76844	0.06405
1274.83979	0.06411
1272.91114	0.06419
1270.98248	0.06436
1269.05383	0.06465
1267.12518	0.06508
1265.19652	0.06561
1263.26787	0.06622
1261.33922	0.06689
1259.41056	0.06771
1257.48191	0.06869
1255.55326	0.06978
1253.62460	0.07098
1251.69595	0.07224
1249.76730	0.07353
1247.83864	0.07490
1245.90999	0.07635
1243.98134	0.07774
1242.05269	0.07898
1240.12403	0.08001
1238.19538	0.08076
1236.26673	0.08122
1234.33807	0.08133
1232.40942	0.08094
1230.48077	0.08003
1228.55211	0.07878
1226.62346	0.07719
1224.69481	0.07519
1222.76615	0.07305
1220.83750	0.07111
1218.90885	0.06951
1216.98019	0.06826
1215.05154	0.06737
1213.12289	0.06684
1211.19423	0.06671
1209.26558	0.06694
1207.33693	0.06739
1205.40827	0.06777
1203.47962	0.06786
1201.55097	0.06757
1199.62231	0.06696
1197.69366	0.06594
1195.76501	0.06465
1193.83635	0.06325
1191.90770	0.06191
1189.97905	0.06064
1188.05039	0.05944
1186.12174	0.05838
1184.19309	0.05755
1182.26443	0.05696
1180.33578	0.05651
1178.40713	0.05609
1176.47848	0.05574
1174.54982	0.05553
1172.62117	0.05542
1170.69252	0.05527
1168.76386	0.05507
1166.83521	0.05496
1164.90656	0.05499
1162.97790	0.05499
1161.04925	0.05476
1159.12060	0.05431
1157.19194	0.05369
1155.26329	0.05289
1153.33464	0.05192
1151.40598	0.05085
1149.47733	0.04977
1147.54868	0.04880
1145.62002	0.04803
1143.69137	0.04742
1141.76272	0.04680
1139.83406	0.04624
1137.90541	0.04574
1135.97676	0.04524
1134.04810	0.04484
1132.11945	0.04469
1130.19080	0.04472
1128.26214	0.04476
1126.33349	0.04469
1124.40484	0.04447
1122.47618	0.04418
1120.54753	0.04398
1118.61888	0.04390
1116.69022	0.04384
1114.76157	0.04376
1112.83292	0.04369
1110.90427	0.04381
1108.97561	0.04424
1107.04696	0.04470
1105.11831	0.04500
1103.18965	0.04532
1101.26100	0.04577
1099.33235	0.04630
1097.40369	0.04689
1095.47504	0.04742
1093.54639	0.04795
1091.61773	0.04878
1089.68908	0.05000
1087.76043	0.05136
1085.83177	0.05266
1083.90312	0.05374
1081.97447	0.05443
1080.04581	0.05467
1078.11716	0.05463
1076.18851	0.05439
1074.25985	0.05387
1072.33120	0.05324
1070.40255	0.05273
1068.47389	0.05250
1066.54524	0.05253
1064.61659	0.05264
1062.68793	0.05263
1060.75928	0.05239
1058.83063	0.05197
1056.90197	0.05142
1054.97332	0.05084
1053.04467	0.05032
1051.11601	0.04987
1049.18736	0.04937
1047.25871	0.04886
1045.33005	0.04851
1043.40140	0.04832
1041.47275	0.04823
1039.54410	0.04829
1037.61544	0.04859
1035.68679	0.04907
1033.75814	0.04952
1031.82948	0.04967
1029.90083	0.04934
1027.97218	0.04861
1026.04352	0.04771
1024.11487	0.04679
1022.18622	0.04591
1020.25756	0.04507
1018.32891	0.04434
1016.40026	0.04380
1014.47160	0.04333
1012.54295	0.04278
1010.61430	0.04213
1008.68564	0.04142
1006.75699	0.04067
1004.82834	0.03997
1002.89968	0.03940
1000.97103	0.03893
999.04238	0.03841
997.11372	0.03785
995.18507	0.03731
993.25642	0.03683
991.32776	0.03650
989.39911	0.03624
987.47046	0.03597
985.54180	0.03575
983.61315	0.03571
981.68450	0.03583
979.75584	0.03602
977.82719	0.03626
975.89854	0.03658
973.96989	0.03689
972.04123	0.03694
970.11258	0.03672
968.18393	0.03642
966.25527	0.03610
964.32662	0.03566
962.39797	0.03521
960.46931	0.03486
958.54066	0.03456
956.61201	0.03428
954.68335	0.03402
952.75470	0.03382
950.82605	0.03371
948.89739	0.03366
946.96874	0.03359
945.04009	0.03352
943.11143	0.03353
941.18278	0.03364
939.25413	0.03374
937.32547	0.03379
935.39682	0.03379
933.46817	0.03377
931.53951	0.03368
929.61086	0.03349
927.68221	0.03330
925.75355	0.03325
923.82490	0.03336
921.89625	0.03339
919.96759	0.03326
918.03894	0.03309
916.11029	0.03294
914.18163	0.03283
912.25298	0.03273
910.32433	0.03246
908.39567	0.03208
906.46702	0.03182
904.53837	0.03167
902.60972	0.03156
900.68106	0.03145
898.75241	0.03132
896.82376	0.03116
894.89510	0.03096
892.96645	0.03078
891.03780	0.03070
889.10914	0.03063
887.18049	0.03057
885.25184	0.03052
883.32318	0.03049
881.39453	0.03055
879.46588	0.03069
877.53722	0.03085
875.60857	0.03102
873.67992	0.03107
871.75126	0.03086
869.82261	0.03057
867.89396	0.03042
865.96530	0.03042
864.03665	0.03048
862.10800	0.03058
860.17934	0.03072
858.25069	0.03080
856.32204	0.03082
854.39338	0.03081
852.46473	0.03078
850.53608	0.03078
848.60742	0.03076
846.67877	0.03069
844.75012	0.03067
842.82146	0.03067
840.89281	0.03062
838.96416	0.03054
837.03551	0.03052
835.10685	0.03048
833.17820	0.03042
831.24955	0.03052
829.32089	0.03073
827.39224	0.03085
825.46359	0.03096
823.53493	0.03124
821.60628	0.03170
819.67763	0.03213
817.74897	0.03244
815.82032	0.03263
813.89167	0.03274
811.96301	0.03284
810.03436	0.03301
808.10571	0.03325
806.17705	0.03346
804.24840	0.03364
802.31975	0.03384
800.39109	0.03395
798.46244	0.03397
796.53379	0.03406
794.60513	0.03431
792.67648	0.03469
790.74783	0.03506
788.81917	0.03527
786.89052	0.03541
784.96187	0.03563
783.03321	0.03589
781.10456	0.03605
779.17591	0.03614
777.24725	0.03633
775.31860	0.03670
773.38995	0.03720
771.46130	0.03778
769.53264	0.03826
767.60399	0.03850
765.67534	0.03857
763.74668	0.03865
761.81803	0.03875
759.88938	0.03895
757.96072	0.03926
756.03207	0.03969
754.10342	0.04016
752.17476	0.04048
750.24611	0.04065
748.31746	0.04079
746.38880	0.04103
744.46015	0.04137
742.53150	0.04167
740.60284	0.04193
738.67419	0.04216
736.74554	0.04232
734.81688	0.04251
732.88823	0.04287
730.95958	0.04340
729.03092	0.04399
727.10227	0.04449
725.17362	0.04485
723.24496	0.04513
721.31631	0.04537
719.38766	0.04553
717.45900	0.04580
715.53035	0.04619
713.60170	0.04656
711.67304	0.04686
709.74439	0.04718
707.81574	0.04751
705.88708	0.04786
703.95843	0.04818
702.02978	0.04842
700.10113	0.04858
698.17247	0.04877
696.24382	0.04907
694.31517	0.04933
692.38651	0.04949
690.45786	0.04961
688.52921	0.04976
686.60055	0.04999
684.67190	0.05028
682.74325	0.05060
680.81459	0.05097
678.88594	0.05127
676.95729	0.05156
675.02863	0.05177
673.09998	0.05188
671.17133	0.05199
669.24267	0.05216
667.31402	0.05239
665.38537	0.05267
663.45671	0.05288
661.52806	0.05299
659.59941	0.05313
657.67075	0.05335
655.74210	0.05353
653.81345	0.05361
651.88479	0.05370
649.95614	0.05383
648.02749	0.05395
646.09883	0.05403
644.17018	0.05409
642.24153	0.05408
640.31287	0.05404
638.38422	0.05409
636.45557	0.05418
634.52692	0.05424
632.59826	0.05422
630.66961	0.05448
628.74096	0.05556
626.81230	0.05399
624.88365	0.05200
622.95500	0.05126
621.02634	0.05181
619.09769	0.05273
617.16904	0.05475
615.24038	0.05840
613.31173	0.06118
611.38308	0.06085
609.45442	0.05831
607.52577	0.05572
605.59712	0.05417
603.66846	0.05375
601.73981	0.05399
599.81116	0.05442
597.88250	0.05468
595.95385	0.05456
594.02520	0.05441
592.09654	0.05471
590.16789	0.05523
588.23924	0.05545
586.31058	0.05533
584.38193	0.05516
582.45328	0.05507
580.52462	0.05511
578.59597	0.05523
576.66732	0.05526
574.73866	0.05519
572.81001	0.05525
570.88136	0.05544
568.95270	0.05553
567.02405	0.05552
565.09540	0.05559
563.16675	0.05578
561.23809	0.05604
559.30944	0.05618
557.38079	0.05602
555.45213	0.05580
553.52348	0.05582
551.59483	0.05584
549.66617	0.05558
547.73752	0.05534
545.80887	0.05540
543.88021	0.05550
541.95156	0.05549
540.02291	0.05546
538.09425	0.05530
536.16560	0.05504
534.23695	0.05485
532.30829	0.05483
530.37964	0.05492
528.45099	0.05501
526.52233	0.05493
524.59368	0.05454
522.66503	0.05390
520.73637	0.05330
518.80772	0.05298
516.87907	0.05286
514.95041	0.05280
513.02176	0.05267
511.09311	0.05228
509.16445	0.05185
507.23580	0.05160
505.30715	0.05124
503.37849	0.05071
501.44984	0.05037
499.52119	0.05028
497.59254	0.05013
495.66388	0.04972
493.73523	0.04928
491.80658	0.04896
489.87792	0.04865
487.94927	0.04834
486.02062	0.04815
484.09196	0.04793
482.16331	0.04743
480.23466	0.04683
478.30600	0.04643
476.37735	0.04624
474.44870	0.04606
472.52004	0.04570
470.59139	0.04522
468.66274	0.04485
466.73408	0.04459
464.80543	0.04425
462.87678	0.04390
460.94812	0.04357
459.01947	0.04314
457.09082	0.04260
455.16216	0.04212
453.23351	0.04176
451.30486	0.04137
449.37620	0.04103
447.44755	0.04075
445.51890	0.04043
443.59024	0.04015
441.66159	0.03996
439.73294	0.03977
437.80428	0.03954
435.87563	0.03925
433.94698	0.03896
432.01833	0.03875
430.08967	0.03854
428.16102	0.03823
426.23237	0.03789
424.30371	0.03759
422.37506	0.03735
420.44641	0.03719
418.51775	0.03696
416.58910	0.03658
414.66045	0.03627
412.73179	0.03606
410.80314	0.03587
408.87449	0.03569
406.94583	0.03555
405.01718	0.03540
403.08853	0.03522
401.15987	0.03506
399.23122	0.03484
