3997.45528	0.05181
3996.16951	0.05083
3994.88374	0.04993
3993.59798	0.04935
3992.31221	0.04940
3991.02644	0.05009
3989.74067	0.05098
3988.45490	0.05154
3987.16913	0.05147
3985.88336	0.05095
3984.59759	0.05036
3983.31183	0.04999
3982.02606	0.04986
3980.74029	0.04986
3979.45452	0.04987
3978.16875	0.04987
3976.88298	0.04991
3975.59721	0.04998
3974.31144	0.04995
3973.02567	0.04971
3971.73991	0.04925
3970.45414	0.04868
3969.16837	0.04827
3967.88260	0.04827
3966.59683	0.04880
3965.31106	0.04961
3964.02529	0.05016
3962.73952	0.05009
3961.45376	0.04947
3960.16799	0.04876
3958.88222	0.04836
3957.59645	0.04841
3956.31068	0.04879
3955.02491	0.04924
3953.73914	0.04952
3952.45337	0.04956
3951.16760	0.04941
3949.88184	0.04911
3948.59607	0.04865
3947.31030	0.04807
3946.02453	0.04755
3944.73876	0.04711
3943.45299	0.04666
3942.16722	0.04613
3940.88145	0.04572
3939.59569	0.04579
3938.30992	0.04650
3937.02415	0.04753
3935.73838	0.04829
3934.45261	0.04834
3933.16684	0.04784
3931.88107	0.04734
3930.59530	0.04727
3929.30953	0.04756
3928.02377	0.04782
3926.73800	0.04786
3925.45223	0.04782
3924.16646	0.04795
3922.88069	0.04824
3921.59492	0.04850
3920.30915	0.04853
3919.02338	0.04818
3917.73762	0.04739
3916.45185	0.04641
3915.16608	0.04577
3913.88031	0.04581
3912.59454	0.04638
3911.30877	0.04698
3910.02300	0.04721
3908.73723	0.04699
3907.45146	0.04642
3906.16570	0.04571
3904.87993	0.04518
3903.59416	0.04515
3902.30839	0.04563
3901.02262	0.04634
3899.73685	0.04699
3898.45108	0.04734
3897.16531	0.04721
3895.87955	0.04668
3894.59378	0.04603
3893.30801	0.04547
3892.02224	0.04506
3890.73647	0.04489
3889.45070	0.04497
3888.16493	0.04517
3886.87916	0.04539
3885.59339	0.04579
3884.30763	0.04638
3883.02186	0.04693
3881.73609	0.04715
3880.45032	0.04702
3879.16455	0.04668
3877.87878	0.04628
3876.59301	0.04601
3875.30724	0.04600
3874.02148	0.04618
3872.73571	0.04628
3871.44994	0.04615
3870.16417	0.04606
3868.87840	0.04631
3867.59263	0.04667
3866.30686	0.04686
3865.02109	0.04703
3863.73532	0.04738
3862.44956	0.04778
3861.16379	0.04789
3859.87802	0.04755
3858.59225	0.04693
3857.30648	0.04637
3856.02071	0.04606
3854.73494	0.04602
3853.44917	0.04622
3852.16341	0.04644
3850.87764	0.04630
3849.59187	0.04569
3848.30610	0.04477
3847.02033	0.04381
3845.73456	0.04309
3844.44879	0.04281
3843.16302	0.04304
3841.87725	0.04360
3840.59149	0.04412
3839.30572	0.04438
3838.01995	0.04445
3836.73418	0.04445
3835.44841	0.04435
3834.16264	0.04410
3832.87687	0.04388
3831.59110	0.04384
3830.30534	0.04392
3829.01957	0.04382
3827.73380	0.04339
3826.44803	0.04292
3825.16226	0.04286
3823.87649	0.04334
3822.59072	0.04418
3821.30495	0.04517
3820.01918	0.04596
3818.73342	0.04605
3817.44765	0.04527
3816.16188	0.04424
3814.87611	0.04370
3813.59034	0.04375
3812.30457	0.04410
3811.01880	0.04450
3809.73303	0.04470
3808.44726	0.04448
3807.16150	0.04406
3805.87573	0.04385
3804.58996	0.04383
3803.30419	0.04364
3802.01842	0.04319
3800.73265	0.04272
3799.44688	0.04234
3798.16111	0.04198
3796.87535	0.04176
3795.58958	0.04182
3794.30381	0.04210
3793.01804	0.04245
3791.73227	0.04280
3790.44650	0.04306
3789.16073	0.04313
3787.87496	0.04303
3786.58919	0.04294
3785.30343	0.04298
3784.01766	0.04315
3782.73189	0.04325
3781.44612	0.04314
3780.16035	0.04285
3778.87458	0.04255
3777.58881	0.04229
3776.30304	0.04207
3775.01728	0.04194
3773.73151	0.04193
3772.44574	0.04197
3771.15997	0.04208
3769.87420	0.04235
3768.58843	0.04264
3767.30266	0.04264
3766.01689	0.04230
3764.73112	0.04193
3763.44536	0.04172
3762.15959	0.04152
3760.87382	0.04119
3759.58805	0.04081
3758.30228	0.04054
3757.01651	0.04046
3755.73074	0.04051
3754.44497	0.04057
3753.15921	0.04064
3751.87344	0.04086
3750.58767	0.04131
3749.30190	0.04203
3748.01613	0.04288
3746.73036	0.04338
3745.44459	0.04332
3744.15882	0.04321
3742.87305	0.04339
3741.58729	0.04354
3740.30152	0.04337
3739.01575	0.04285
3737.72998	0.04202
3736.44421	0.04115
3735.15844	0.04052
3733.87267	0.04018
3732.58690	0.04016
3731.30114	0.04063
3730.01537	0.04143
3728.72960	0.04205
3727.44383	0.04208
3726.15806	0.04160
3724.87229	0.04096
3723.58652	0.04047
3722.30075	0.04026
3721.01498	0.04029
3719.72922	0.04040
3718.44345	0.04041
3717.15768	0.04019
3715.87191	0.03957
3714.58614	0.03853
3713.30037	0.03735
3712.01460	0.03653
3710.72883	0.03630
3709.44307	0.03649
3708.15730	0.03684
3706.87153	0.03730
3705.58576	0.03799
3704.29999	0.03878
3703.01422	0.03945
3701.72845	0.03989
3700.44268	0.04013
3699.15691	0.04018
3697.87115	0.04029
3696.58538	0.04075
3695.29961	0.04135
3694.01384	0.04158
3692.72807	0.04118
3691.44230	0.04027
3690.15653	0.03919
3688.87076	0.03849
3687.58500	0.03851
3686.29923	0.03890
3685.01346	0.03931
3683.72769	0.03980
3682.44192	0.04042
3681.15615	0.04103
3679.87038	0.04132
3678.58461	0.04105
3677.29884	0.04021
3676.01308	0.03925
3674.72731	0.03875
3673.44154	0.03873
3672.15577	0.03879
3670.87000	0.03894
3669.58423	0.03947
3668.29846	0.04025
3667.01269	0.04079
3665.72693	0.04090
3664.44116	0.04078
3663.15539	0.04085
3661.86962	0.04129
3660.58385	0.04183
3659.29808	0.04195
3658.01231	0.04143
3656.72654	0.04074
3655.44077	0.04070
3654.15501	0.04151
3652.86924	0.04261
3651.58347	0.04334
3650.29770	0.04358
3649.01193	0.04364
3647.72616	0.04390
3646.44039	0.04446
3645.15462	0.04510
3643.86886	0.04558
3642.58309	0.04586
3641.29732	0.04606
3640.01155	0.04627
3638.72578	0.04654
3637.44001	0.04684
3636.15424	0.04704
3634.86847	0.04690
3633.58270	0.04638
3632.29694	0.04574
3631.01117	0.04538
3629.72540	0.04579
3628.43963	0.04710
3627.15386	0.04880
3625.86809	0.05008
3624.58232	0.05067
3623.29655	0.05084
3622.01079	0.05087
3620.72502	0.05080
3619.43925	0.05060
3618.15348	0.05036
3616.86771	0.05019
3615.58194	0.05020
3614.29617	0.05059
3613.01040	0.05147
3611.72463	0.05267
3610.43887	0.05385
3609.15310	0.05477
3607.86733	0.05552
3606.58156	0.05632
3605.29579	0.05733
3604.01002	0.05845
3602.72425	0.05943
3601.43848	0.06006
3600.15272	0.06031
3598.86695	0.06027
3597.58118	0.06028
3596.29541	0.06058
3595.00964	0.06106
3593.72387	0.06129
3592.43810	0.06126
3591.15233	0.06140
3589.86656	0.06190
3588.58080	0.06255
3587.29503	0.06299
3586.00926	0.06308
3584.72349	0.06298
3583.43772	0.06310
3582.15195	0.06375
3580.86618	0.06494
3579.58041	0.06649
3578.29464	0.06808
3577.00888	0.06937
3575.72311	0.07018
3574.43734	0.07056
3573.15157	0.07090
3571.86580	0.07146
3570.58003	0.07212
3569.29426	0.07256
3568.00849	0.07274
3566.72273	0.07300
3565.43696	0.07360
3564.15119	0.07434
3562.86542	0.07479
3561.57965	0.07478
3560.29388	0.07461
3559.00811	0.07479
3557.72234	0.07551
3556.43657	0.07649
3555.15081	0.07725
3553.86504	0.07753
3552.57927	0.07762
3551.29350	0.07796
3550.00773	0.07868
3548.72196	0.07949
3547.43619	0.08004
3546.15042	0.08037
3544.86466	0.08076
3543.57889	0.08142
3542.29312	0.08235
3541.00735	0.08340
3539.72158	0.08445
3538.43581	0.08542
3537.15004	0.08630
3535.86427	0.08712
3534.57850	0.08792
3533.29274	0.08867
3532.00697	0.08929
3530.72120	0.08980
3529.43543	0.09039
3528.14966	0.09118
3526.86389	0.09203
3525.57812	0.09263
3524.29235	0.09286
3523.00659	0.09297
3521.72082	0.09328
3520.43505	0.09392
3519.14928	0.09483
3517.86351	0.09592
3516.57774	0.09703
3515.29197	0.09794
3514.00620	0.09841
3512.72043	0.09846
3511.43467	0.09829
3510.14890	0.09818
3508.86313	0.09836
3507.57736	0.09894
3506.29159	0.09981
3505.00582	0.10081
3503.72005	0.10177
3502.43428	0.10257
3501.14852	0.10311
3499.86275	0.10337
3498.57698	0.10349
3497.29121	0.10371
3496.00544	0.10421
3494.71967	0.10501
3493.43390	0.10594
3492.14813	0.10679
3490.86236	0.10744
3489.57660	0.10786
3488.29083	0.10802
3487.00506	0.10795
3485.71929	0.10782
3484.43352	0.10793
3483.14775	0.10854
3481.86198	0.10951
3480.57621	0.11037
3479.29045	0.11071
3478.00468	0.11063
3476.71891	0.11058
3475.43314	0.11088
3474.14737	0.11143
3472.86160	0.11194
3471.57583	0.11230
3470.29006	0.11261
3469.00429	0.11300
3467.71853	0.11351
3466.43276	0.11407
3465.14699	0.11460
3463.86122	0.11499
3462.57545	0.11525
3461.28968	0.11552
3460.00391	0.11595
3458.71814	0.11659
3457.43238	0.11732
3456.14661	0.11793
3454.86084	0.11830
3453.57507	0.11840
3452.28930	0.11841
3451.00353	0.11855
3449.71776	0.11903
3448.43199	0.11984
3447.14622	0.12084
3445.86046	0.12178
3444.57469	0.12254
3443.28892	0.12314
3442.00315	0.12368
3440.71738	0.12413
3439.43161	0.12432
3438.14584	0.12423
3436.86007	0.12403
3435.57431	0.12395
3434.28854	0.12416
3433.00277	0.12467
3431.71700	0.12541
3430.43123	0.12614
3429.14546	0.12661
3427.85969	0.12677
3426.57392	0.12677
3425.28815	0.12685
3424.00239	0.12713
3422.71662	0.12764
3421.43085	0.12828
3420.14508	0.12883
3418.85931	0.12909
3417.57354	0.12908
3416.28777	0.12911
3415.00200	0.12949
3413.71624	0.13025
3412.43047	0.13112
3411.14470	0.13187
3409.85893	0.13251
3408.57316	0.13320
3407.28739	0.13396
3406.00162	0.13472
3404.71585	0.13548
3403.43008	0.13624
3402.14432	0.13684
3400.85855	0.13711
3399.57278	0.13705
3398.28701	0.13691
3397.00124	0.13690
3395.71547	0.13709
3394.42970	0.13742
3393.14393	0.13783
3391.85817	0.13830
3390.57240	0.13875
3389.28663	0.13914
3388.00086	0.13949
3386.71509	0.13987
3385.42932	0.14038
3384.14355	0.14109
3382.85778	0.14195
3381.57201	0.14285
3380.28625	0.14368
3379.00048	0.14433
3377.71471	0.14481
3376.42894	0.14520
3375.14317	0.14568
3373.85740	0.14637
3372.57163	0.14717
3371.28586	0.14786
3370.00010	0.14832
3368.71433	0.14868
3367.42856	0.14925
3366.14279	0.15018
3364.85702	0.15130
3363.57125	0.15224
3362.28548	0.15279
3360.99971	0.15311
3359.71394	0.15361
3358.42818	0.15454
3357.14241	0.15576
3355.85664	0.15691
3354.57087	0.15783
3353.28510	0.15861
3351.99933	0.15937
3350.71356	0.16012
3349.42779	0.16081
3348.14202	0.16149
3346.85626	0.16227
3345.57049	0.16316
3344.28472	0.16407
3342.99895	0.16490
3341.71318	0.16558
3340.42741	0.16616
3339.14164	0.16676
3337.85587	0.16745
3336.57011	0.16829
3335.28434	0.16919
3333.99857	0.17001
3332.71280	0.17055
3331.42703	0.17076
3330.14126	0.17082
3328.85549	0.17101
3327.56972	0.17146
3326.28395	0.17209
3324.99819	0.17277
3323.71242	0.17346
3322.42665	0.17418
3321.14088	0.17487
3319.85511	0.17534
3318.56934	0.17553
3317.28357	0.17562
3315.99780	0.17587
3314.71204	0.17642
3313.42627	0.17718
3312.14050	0.17796
3310.85473	0.17857
3309.56896	0.17895
3308.28319	0.17913
3306.99742	0.17918
3305.71165	0.17914
3304.42588	0.17910
3303.14012	0.17918
3301.85435	0.17947
3300.56858	0.17994
3299.28281	0.18046
3297.99704	0.18089
3296.71127	0.18116
3295.42550	0.18130
3294.13973	0.18143
3292.85397	0.18164
3291.56820	0.18192
3290.28243	0.18211
3288.99666	0.18210
3287.71089	0.18192
3286.42512	0.18168
3285.13935	0.18146
3283.85358	0.18120
3282.56781	0.18086
3281.28205	0.18042
3279.99628	0.17995
3278.71051	0.17952
3277.42474	0.17920
3276.13897	0.17901
3274.85320	0.17887
3273.56743	0.17861
3272.28166	0.17812
3270.99590	0.17747
3269.71013	0.17690
3268.42436	0.17657
3267.13859	0.17640
3265.85282	0.17612
3264.56705	0.17559
3263.28128	0.17493
3261.99551	0.17438
3260.70974	0.17390
3259.42398	0.17330
3258.13821	0.17251
3256.85244	0.17171
3255.56667	0.17116
3254.28090	0.17087
3252.99513	0.17067
3251.70936	0.17043
3250.42359	0.17017
3249.13783	0.16996
3247.85206	0.16978
3246.56629	0.16943
3245.28052	0.16875
3243.99475	0.16777
3242.70898	0.16674
3241.42321	0.16593
3240.13744	0.16545
3238.85167	0.16526
3237.56591	0.16518
3236.28014	0.16502
3234.99437	0.16463
3233.70860	0.16409
3232.42283	0.16351
3231.13706	0.16296
3229.85129	0.16237
3228.56552	0.16166
3227.27976	0.16083
3225.99399	0.15993
3224.70822	0.15914
3223.42245	0.15874
3222.13668	0.15889
3220.85091	0.15932
3219.56514	0.15954
3218.27937	0.15928
3216.99360	0.15870
3215.70784	0.15821
3214.42207	0.15803
3213.13630	0.15801
3211.85053	0.15779
3210.56476	0.15710
3209.27899	0.15610
3207.99322	0.15518
3206.70745	0.15464
3205.42169	0.15444
3204.13592	0.15437
3202.85015	0.15424
3201.56438	0.15387
3200.27861	0.15316
3198.99284	0.15223
3197.70707	0.15141
3196.42130	0.15101
3195.13553	0.15101
3193.84977	0.15113
3192.56400	0.15106
3191.27823	0.15060
3189.99246	0.14979
3188.70669	0.14881
3187.42092	0.14791
3186.13515	0.14722
3184.84938	0.14667
3183.56362	0.14605
3182.27785	0.14523
3180.99208	0.14433
3179.70631	0.14357
3178.42054	0.14299
3177.13477	0.14242
3175.84900	0.14163
3174.56323	0.14062
3173.27746	0.13968
3171.99170	0.13909
3170.70593	0.13881
3169.42016	0.13848
3168.13439	0.13781
3166.84862	0.13683
3165.56285	0.13592
3164.27708	0.13537
3162.99131	0.13519
3161.70555	0.13507
3160.41978	0.13475
3159.13401	0.13416
3157.84824	0.13345
3156.56247	0.13272
3155.27670	0.13194
3153.99093	0.13103
3152.70516	0.13006
3151.41939	0.12921
3150.13363	0.12861
3148.84786	0.12823
3147.56209	0.12789
3146.27632	0.12741
3144.99055	0.12671
3143.70478	0.12583
3142.41901	0.12485
3141.13324	0.12389
3139.84748	0.12306
3138.56171	0.12242
3137.27594	0.12198
3135.99017	0.12169
3134.70440	0.12147
3133.41863	0.12132
3132.13286	0.12120
3130.84709	0.12109
3129.56132	0.12096
3128.27556	0.12078
3126.98979	0.12048
3125.70402	0.11998
3124.41825	0.11936
3123.13248	0.11881
3121.84671	0.11849
3120.56094	0.11839
3119.27517	0.11835
3117.98940	0.11824
3116.70364	0.11811
3115.41787	0.11804
3114.13210	0.11803
3112.84633	0.11802
3111.56056	0.11797
3110.27479	0.11791
3108.98902	0.11787
3107.70325	0.11782
3106.41749	0.11777
3105.13172	0.11778
3103.84595	0.11788
3102.56018	0.11800
3101.27441	0.11811
3099.98864	0.11821
3098.70287	0.11836
3097.41710	0.11859
3096.13133	0.11893
3094.84557	0.11933
3093.55980	0.11970
3092.27403	0.11990
3090.98826	0.11981
3089.70249	0.11948
3088.41672	0.11909
3087.13095	0.11891
3085.84518	0.11909
3084.55942	0.11959
3083.27365	0.12019
3081.98788	0.12060
3080.70211	0.12067
3079.41634	0.12045
3078.13057	0.12009
3076.84480	0.11970
3075.55903	0.11938
3074.27326	0.11915
3072.98750	0.11899
3071.70173	0.11883
3070.41596	0.11867
3069.13019	0.11860
3067.84442	0.11872
3066.55865	0.11896
3065.27288	0.11906
3063.98711	0.11883
3062.70135	0.11829
3061.41558	0.11754
3060.12981	0.11667
3058.84404	0.11576
3057.55827	0.11496
3056.27250	0.11438
3054.98673	0.11406
3053.70096	0.11398
3052.41519	0.11399
3051.12943	0.11391
3049.84366	0.11356
3048.55789	0.11289
3047.27212	0.11207
3045.98635	0.11137
3044.70058	0.11093
3043.41481	0.11068
3042.12904	0.11041
3040.84328	0.10998
3039.55751	0.10936
3038.27174	0.10859
3036.98597	0.10772
3035.70020	0.10680
3034.41443	0.10593
3033.12866	0.10519
3031.84289	0.10464
3030.55712	0.10420
3029.27136	0.10380
3027.98559	0.10340
3026.69982	0.10305
3025.41405	0.10273
3024.12828	0.10237
3022.84251	0.10189
3021.55674	0.10130
3020.27097	0.10066
3018.98521	0.10001
3017.69944	0.09933
3016.41367	0.09866
3015.12790	0.09810
3013.84213	0.09774
3012.55636	0.09759
3011.27059	0.09757
3009.98482	0.09751
3008.69905	0.09736
3007.41329	0.09714
3006.12752	0.09697
3004.84175	0.09690
3003.55598	0.09690
3002.27021	0.09696
3000.98444	0.09705
2999.69867	0.09721
2998.41290	0.09742
2997.12714	0.09764
2995.84137	0.09778
2994.55560	0.09788
2993.26983	0.09799
2991.98406	0.09815
2990.69829	0.09837
2989.41252	0.09871
2988.12675	0.09918
2986.84098	0.09974
2985.55522	0.10026
2984.26945	0.10071
2982.98368	0.10112
2981.69791	0.10155
2980.41214	0.10198
2979.12637	0.10236
2977.84060	0.10274
2976.55483	0.10315
2975.26907	0.10358
2973.98330	0.10390
2972.69753	0.10405
2971.41176	0.10414
2970.12599	0.10439
2968.84022	0.10483
2967.55445	0.10535
2966.26868	0.10580
2964.98291	0.10615
2963.69715	0.10644
2962.41138	0.10666
2961.12561	0.10684
2959.83984	0.10704
2958.55407	0.10731
2957.26830	0.10762
2955.98253	0.10785
2954.69676	0.10789
2953.41100	0.10779
2952.12523	0.10766
2950.83946	0.10755
2949.55369	0.10750
2948.26792	0.10751
2946.98215	0.10760
2945.69638	0.10769
2944.41061	0.10773
2943.12484	0.10774
2941.83908	0.10777
2940.55331	0.10785
2939.26754	0.10791
2937.98177	0.10791
2936.69600	0.10784
2935.41023	0.10767
2934.12446	0.10745
2932.83869	0.10733
2931.55293	0.10743
2930.26716	0.10767
2928.98139	0.10779
2927.69562	0.10760
2926.40985	0.10717
2925.12408	0.10665
2923.83831	0.10611
2922.55254	0.10550
2921.26677	0.10483
2919.98101	0.10428
2918.69524	0.10400
2917.40947	0.10391
2916.12370	0.10379
2914.83793	0.10345
2913.55216	0.10288
2912.26639	0.10220
2910.98062	0.10148
2909.69486	0.10076
2908.40909	0.10003
2907.12332	0.09930
2905.83755	0.09854
2904.55178	0.09776
2903.26601	0.09707
2901.98024	0.09656
2900.69447	0.09623
2899.40870	0.09591
2898.12294	0.09555
2896.83717	0.09521
2895.55140	0.09498
2894.26563	0.09487
2892.97986	0.09481
2891.69409	0.09481
2890.40832	0.09487
2889.12255	0.09496
2887.83678	0.09500
2886.55102	0.09496
2885.26525	0.09486
2883.97948	0.09470
2882.69371	0.09447
2881.40794	0.09421
2880.12217	0.09399
2878.83640	0.09389
2877.55063	0.09395
2876.26487	0.09415
2874.97910	0.09434
2873.69333	0.09429
2872.40756	0.09388
2871.12179	0.09318
2869.83602	0.09238
2868.55025	0.09160
2867.26448	0.09082
2865.97871	0.09006
2864.69295	0.08937
2863.40718	0.08882
2862.12141	0.08836
2860.83564	0.08794
2859.54987	0.08750
2858.26410	0.08707
2856.97833	0.08664
2855.69256	0.08617
2854.40680	0.08565
2853.12103	0.08515
2851.83526	0.08476
2850.54949	0.08452
2849.26372	0.08434
2847.97795	0.08408
2846.69218	0.08362
2845.40641	0.08304
2844.12064	0.08255
2842.83488	0.08220
2841.54911	0.08189
2840.26334	0.08151
2838.97757	0.08108
2837.69180	0.08065
2836.40603	0.08020
2835.12026	0.07973
2833.83449	0.07928
2832.54873	0.07891
2831.26296	0.07863
2829.97719	0.07844
2828.69142	0.07835
2827.40565	0.07834
2826.11988	0.07833
2824.83411	0.07825
2823.54834	0.07801
2822.26257	0.07756
2820.97681	0.07694
2819.69104	0.07636
2818.40527	0.07602
2817.11950	0.07595
2815.83373	0.07593
2814.54796	0.07576
2813.26219	0.07544
2811.97642	0.07512
2810.69066	0.07491
2809.40489	0.07482
2808.11912	0.07479
2806.83335	0.07478
2805.54758	0.07477
2804.26181	0.07469
2802.97604	0.07449
2801.69027	0.07415
2800.40450	0.07377
2799.11874	0.07344
2797.83297	0.07316
2796.54720	0.07286
2795.26143	0.07255
2793.97566	0.07227
2792.68989	0.07207
2791.40412	0.07192
2790.11835	0.07172
2788.83259	0.07142
2787.54682	0.07104
2786.26105	0.07071
2784.97528	0.07054
2783.68951	0.07057
2782.40374	0.07070
2781.11797	0.07078
2779.83220	0.07070
2778.54643	0.07048
2777.26067	0.07025
2775.97490	0.07013
2774.68913	0.07010
2773.40336	0.07006
2772.11759	0.06990
2770.83182	0.06960
2769.54605	0.06924
2768.26028	0.06888
2766.97452	0.06853
2765.68875	0.06818
2764.40298	0.06787
2763.11721	0.06764
2761.83144	0.06756
2760.54567	0.06762
2759.25990	0.06775
2757.97413	0.06777
2756.68836	0.06758
2755.40260	0.06723
2754.11683	0.06692
2752.83106	0.06675
2751.54529	0.06667
2750.25952	0.06653
2748.97375	0.06627
2747.68798	0.06599
2746.40221	0.06576
2745.11645	0.06559
2743.83068	0.06547
2742.54491	0.06540
2741.25914	0.06534
2739.97337	0.06517
2738.68760	0.06482
2737.40183	0.06438
2736.11606	0.06402
2734.83029	0.06388
2733.54453	0.06394
2732.25876	0.06407
2730.97299	0.06413
2729.68722	0.06404
2728.40145	0.06381
2727.11568	0.06354
2725.82991	0.06327
2724.54414	0.06300
2723.25838	0.06271
2721.97261	0.06241
2720.68684	0.06215
2719.40107	0.06196
2718.11530	0.06183
2716.82953	0.06172
2715.54376	0.06158
2714.25799	0.06139
2712.97222	0.06118
2711.68646	0.06100
2710.40069	0.06084
2709.11492	0.06068
2707.82915	0.06051
2706.54338	0.06037
2705.25761	0.06030
2703.97184	0.06026
2702.68607	0.06021
2701.40031	0.06015
2700.11454	0.06012
2698.82877	0.06009
2697.54300	0.05998
2696.25723	0.05976
2694.97146	0.05954
2693.68569	0.05946
2692.39992	0.05954
2691.11415	0.05965
2689.82839	0.05961
2688.54262	0.05938
2687.25685	0.05905
2685.97108	0.05878
2684.68531	0.05864
2683.39954	0.05852
2682.11377	0.05834
2680.82800	0.05812
2679.54224	0.05800
2678.25647	0.05809
2676.97070	0.05833
2675.68493	0.05855
2674.39916	0.05863
2673.11339	0.05852
2671.82762	0.05829
2670.54185	0.05808
2669.25608	0.05800
2667.97032	0.05805
2666.68455	0.05810
2665.39878	0.05810
2664.11301	0.05805
2662.82724	0.05799
2661.54147	0.05794
2660.25570	0.05789
2658.96993	0.05782
2657.68417	0.05774
2656.39840	0.05767
2655.11263	0.05758
2653.82686	0.05741
2652.54109	0.05713
2651.25532	0.05675
2649.96955	0.05632
2648.68378	0.05584
2647.39801	0.05535
2646.11225	0.05498
2644.82648	0.05479
2643.54071	0.05471
2642.25494	0.05459
2640.96917	0.05438
2639.68340	0.05414
2638.39763	0.05391
2637.11186	0.05364
2635.82609	0.05334
2634.54033	0.05307
2633.25456	0.05294
2631.96879	0.05290
2630.68302	0.05286
2629.39725	0.05276
2628.11148	0.05265
2626.82571	0.05252
2625.53994	0.05234
2624.25418	0.05207
2622.96841	0.05171
2621.68264	0.05134
2620.39687	0.05105
2619.11110	0.05088
2617.82533	0.05080
2616.53956	0.05077
2615.25379	0.05073
2613.96802	0.05062
2612.68226	0.05042
2611.39649	0.05014
2610.11072	0.04987
2608.82495	0.04961
2607.53918	0.04935
2606.25341	0.04906
2604.96764	0.04879
2603.68187	0.04857
2602.39611	0.04842
2601.11034	0.04836
2599.82457	0.04839
2598.53880	0.04841
2597.25303	0.04833
2595.96726	0.04818
2594.68149	0.04801
2593.39572	0.04782
2592.10995	0.04765
2590.82419	0.04755
2589.53842	0.04758
2588.25265	0.04759
2586.96688	0.04743
2585.68111	0.04715
2584.39534	0.04696
2583.10957	0.04696
2581.82380	0.04701
2580.53804	0.04699
2579.25227	0.04689
2577.96650	0.04680
2576.68073	0.04675
2575.39496	0.04672
2574.10919	0.04657
2572.82342	0.04627
2571.53765	0.04595
2570.25188	0.04580
2568.96612	0.04580
2567.68035	0.04575
2566.39458	0.04552
2565.10881	0.04527
2563.82304	0.04528
2562.53727	0.04567
2561.25150	0.04614
2559.96573	0.04622
2558.67997	0.04565
2557.39420	0.04472
2556.10843	0.04397
2554.82266	0.04361
2553.53689	0.04345
2552.25112	0.04321
2550.96535	0.04289
2549.67958	0.04264
2548.39381	0.04257
2547.10805	0.04266
2545.82228	0.04289
2544.53651	0.04316
2543.25074	0.04329
2541.96497	0.04314
2540.67920	0.04276
2539.39343	0.04241
2538.10766	0.04225
2536.82190	0.04224
2535.53613	0.04223
2534.25036	0.04211
2532.96459	0.04193
2531.67882	0.04173
2530.39305	0.04160
2529.10728	0.04162
2527.82151	0.04177
2526.53574	0.04189
2525.24998	0.04180
2523.96421	0.04157
2522.67844	0.04135
2521.39267	0.04123
2520.10690	0.04113
2518.82113	0.04103
2517.53536	0.04101
2516.24959	0.04113
2514.96383	0.04134
2513.67806	0.04147
2512.39229	0.04139
2511.10652	0.04113
2509.82075	0.04080
2508.53498	0.04054
2507.24921	0.04038
2505.96344	0.04033
2504.67767	0.04041
2503.39191	0.04060
2502.10614	0.04075
2500.82037	0.04073
2499.53460	0.04054
2498.24883	0.04026
2496.96306	0.03994
2495.67729	0.03960
2494.39152	0.03934
2493.10576	0.03924
2491.81999	0.03926
2490.53422	0.03930
2489.24845	0.03931
2487.96268	0.03924
2486.67691	0.03904
2485.39114	0.03867
2484.10537	0.03825
2482.81960	0.03797
2481.53384	0.03797
2480.24807	0.03822
2478.96230	0.03865
2477.67653	0.03914
2476.39076	0.03951
2475.10499	0.03960
2473.81922	0.03947
2472.53345	0.03930
2471.24769	0.03919
2469.96192	0.03903
2468.67615	0.03873
2467.39038	0.03842
2466.10461	0.03832
2464.81884	0.03852
2463.53307	0.03881
2462.24730	0.03888
2460.96153	0.03858
2459.67577	0.03810
2458.39000	0.03783
2457.10423	0.03795
2455.81846	0.03827
2454.53269	0.03851
2453.24692	0.03863
2451.96115	0.03877
2450.67538	0.03893
2449.38962	0.03897
2448.10385	0.03882
2446.81808	0.03860
2445.53231	0.03843
2444.24654	0.03835
2442.96077	0.03838
2441.67500	0.03853
2440.38923	0.03873
2439.10346	0.03883
2437.81770	0.03875
2436.53193	0.03855
2435.24616	0.03838
2433.96039	0.03832
2432.67462	0.03831
2431.38885	0.03828
2430.10308	0.03816
2428.81731	0.03799
2427.53155	0.03777
2426.24578	0.03753
2424.96001	0.03733
2423.67424	0.03726
2422.38847	0.03737
2421.10270	0.03765
2419.81693	0.03800
2418.53116	0.03824
2417.24539	0.03823
2415.95963	0.03795
2414.67386	0.03754
2413.38809	0.03720
2412.10232	0.03703
2410.81655	0.03698
2409.53078	0.03689
2408.24501	0.03665
2406.95924	0.03633
2405.67347	0.03611
2404.38771	0.03613
2403.10194	0.03639
2401.81617	0.03675
2400.53040	0.03697
2399.24463	0.03687
2397.95886	0.03653
2396.67309	0.03612
2395.38732	0.03579
2394.10156	0.03564
2392.81579	0.03563
2391.53002	0.03571
2390.24425	0.03583
2388.95848	0.03598
2387.67271	0.03612
2386.38694	0.03620
2385.10117	0.03627
2383.81540	0.03642
2382.52964	0.03665
2381.24387	0.03687
2379.95810	0.03687
2378.67233	0.03685
2377.38656	0.03674
2376.10079	0.03640
2374.81502	0.03610
2373.52925	0.03677
2372.24349	0.03802
2370.95772	0.03889
2369.67195	0.03923
2368.38618	0.03929
2367.10041	0.03944
2365.81464	0.03963
2364.52887	0.03986
2363.24310	0.04008
2361.95733	0.04032
2360.67157	0.04073
2359.38580	0.04096
2358.10003	0.04082
2356.81426	0.04032
2355.52849	0.03943
2354.24272	0.03814
2352.95695	0.03699
2351.67118	0.03708
2350.38542	0.03769
2349.09965	0.03784
2347.81388	0.03798
2346.52811	0.03880
2345.24234	0.03937
2343.95657	0.03856
2342.67080	0.03663
2341.38503	0.03706
2340.09926	0.03911
2338.81350	0.03895
2337.52773	0.03697
2336.24196	0.03748
2334.95619	0.03907
2333.67042	0.03841
2332.38465	0.03640
2331.09888	0.03772
2329.81311	0.03832
2328.52735	0.03720
2327.24158	0.03801
2325.95581	0.03938
2324.67004	0.03928
2323.38427	0.03849
2322.09850	0.03857
2320.81273	0.03787
2319.52696	0.03734
2318.24119	0.03719
2316.95543	0.03688
2315.66966	0.03687
2314.38389	0.03670
2313.09812	0.03625
2311.81235	0.03607
2310.52658	0.03570
2309.24081	0.03527
2307.95504	0.03518
2306.66928	0.03512
2305.38351	0.03516
2304.09774	0.03512
2302.81197	0.03493
2301.52620	0.03469
2300.24043	0.03429
2298.95466	0.03383
2297.66889	0.03336
2296.38312	0.03294
2295.09736	0.03262
2293.81159	0.03245
2292.52582	0.03253
2291.24005	0.03275
2289.95428	0.03294
2288.66851	0.03300
2287.38274	0.03293
2286.09697	0.03277
2284.81121	0.03250
2283.52544	0.03213
2282.23967	0.03172
2280.95390	0.03136
2279.66813	0.03115
2278.38236	0.03116
2277.09659	0.03134
2275.81082	0.03146
2274.52505	0.03124
2273.23929	0.03061
2271.95352	0.02982
2270.66775	0.02920
2269.38198	0.02873
2268.09621	0.02820
2266.81044	0.02758
2265.52467	0.02709
2264.23890	0.02690
2262.95314	0.02703
2261.66737	0.02738
2260.38160	0.02781
2259.09583	0.02825
2257.81006	0.02868
2256.52429	0.02902
2255.23852	0.02910
2253.95275	0.02884
2252.66698	0.02833
2251.38122	0.02786
2250.09545	0.02786
2248.80968	0.02846
2247.52391	0.02925
2246.23814	0.02987
2244.95237	0.02994
2243.66660	0.02941
2242.38083	0.02852
2241.09507	0.02770
2239.80930	0.02733
2238.52353	0.02745
2237.23776	0.02769
2235.95199	0.02766
2234.66622	0.02724
2233.38045	0.02660
2232.09468	0.02599
2230.80891	0.02567
2229.52315	0.02584
2228.23738	0.02648
2226.95161	0.02719
2225.66584	0.02740
2224.38007	0.02685
2223.09430	0.02593
2221.80853	0.02527
2220.52276	0.02502
2219.23700	0.02478
2217.95123	0.02419
2216.66546	0.02332
2215.37969	0.02244
2214.09392	0.02175
2212.80815	0.02137
2211.52238	0.02139
2210.23661	0.02167
2208.95084	0.02194
2207.66508	0.02216
2206.37931	0.02259
2205.09354	0.02335
2203.80777	0.02415
2202.52200	0.02451
2201.23623	0.02416
2199.95046	0.02317
2198.66469	0.02201
2197.37893	0.02127
2196.09316	0.02125
2194.80739	0.02173
2193.52162	0.02223
2192.23585	0.02240
2190.95008	0.02220
2189.66431	0.02180
2188.37854	0.02139
2187.09277	0.02105
2185.80701	0.02075
2184.52124	0.02047
2183.23547	0.02032
2181.94970	0.02050
2180.66393	0.02102
2179.37816	0.02158
2178.09239	0.02177
2176.80662	0.02146
2175.52085	0.02082
2174.23509	0.01999
2172.94932	0.01895
2171.66355	0.01782
2170.37778	0.01697
2169.09201	0.01662
2167.80624	0.01651
2166.52047	0.01616
2165.23470	0.01546
2163.94894	0.01495
2162.66317	0.01528
2161.37740	0.01645
2160.09163	0.01765
2158.80586	0.01791
2157.52009	0.01717
2156.23432	0.01631
2154.94855	0.01631
2153.66278	0.01739
2152.37702	0.01898
2151.09125	0.02029
2149.80548	0.02101
2148.51971	0.02140
2147.23394	0.02171
2145.94817	0.02181
2144.66240	0.02151
2143.37663	0.02078
2142.09087	0.01974
2140.80510	0.01866
2139.51933	0.01793
2138.23356	0.01791
2136.94779	0.01854
2135.66202	0.01940
2134.37625	0.02009
2133.09048	0.02060
2131.80471	0.02106
2130.51895	0.02153
2129.23318	0.02187
2127.94741	0.02199
2126.66164	0.02200
2125.37587	0.02214
2124.09010	0.02244
2122.80433	0.02271
2121.51856	0.02291
2120.23280	0.02321
2118.94703	0.02373
2117.66126	0.02423
2116.37549	0.02443
2115.08972	0.02430
2113.80395	0.02406
2112.51818	0.02386
2111.23241	0.02377
2109.94664	0.02385
2108.66088	0.02411
2107.37511	0.02441
2106.08934	0.02457
2104.80357	0.02445
2103.51780	0.02417
2102.23203	0.02388
2100.94626	0.02361
2099.66049	0.02304
2098.37473	0.02248
2097.08896	0.02209
2095.80319	0.02191
2094.51742	0.02195
2093.23165	0.02220
2091.94588	0.02255
2090.66011	0.02285
2089.37434	0.02297
2088.08857	0.02300
2086.80281	0.02310
2085.51704	0.02313
2084.23127	0.02279
2082.94550	0.02200
2081.65973	0.02111
2080.37396	0.02050
2079.08819	0.02034
2077.80242	0.02048
2076.51666	0.02066
2075.23089	0.02063
2073.94512	0.02032
2072.65935	0.01985
2071.37358	0.01936
2070.08781	0.01892
2068.80204	0.01870
2067.51627	0.01897
2066.23050	0.01979
2064.94474	0.02072
2063.65897	0.02114
2062.37320	0.02081
2061.08743	0.01999
2059.80166	0.01915
2058.51589	0.01854
2057.23012	0.01813
2055.94435	0.01784
2054.65859	0.01762
2053.37282	0.01749
2052.08705	0.01742
2050.80128	0.01733
2049.51551	0.01701
2048.22974	0.01629
2046.94397	0.01526
2045.65820	0.01435
2044.37243	0.01406
2043.08667	0.01453
2041.80090	0.01541
2040.51513	0.01608
2039.22936	0.01621
2037.94359	0.01595
2036.65782	0.01568
2035.37205	0.01566
2034.08628	0.01577
2032.80052	0.01563
2031.51475	0.01491
2030.22898	0.01373
2028.94321	0.01272
2027.65744	0.01255
2026.37167	0.01336
2025.08590	0.01476
2023.80013	0.01611
2022.51436	0.01674
2021.22860	0.01626
2019.94283	0.01483
2018.65706	0.01326
2017.37129	0.01236
2016.08552	0.01243
2014.79975	0.01329
2013.51398	0.01453
2012.22821	0.01568
2010.94245	0.01633
2009.65668	0.01631
2008.37091	0.01581
2007.08514	0.01522
2005.79937	0.01486
2004.51360	0.01497
2003.22783	0.01554
2001.94206	0.01623
2000.65629	0.01663
1999.37053	0.01654
1998.08476	0.01612
1996.79899	0.01569
1995.51322	0.01556
1994.22745	0.01584
1992.94168	0.01640
1991.65591	0.01691
1990.37014	0.01706
1989.08438	0.01681
1987.79861	0.01630
1986.51284	0.01570
1985.22707	0.01518
1983.94130	0.01497
1982.65553	0.01524
1981.36976	0.01576
1980.08399	0.01602
1978.79822	0.01565
1977.51246	0.01483
1976.22669	0.01415
1974.94092	0.01414
1973.65515	0.01488
1972.36938	0.01597
1971.08361	0.01687
1969.79784	0.01716
1968.51207	0.01671
1967.22631	0.01571
1965.94054	0.01468
1964.65477	0.01418
1963.36900	0.01439
1962.08323	0.01501
1960.79746	0.01555
1959.51169	0.01574
1958.22592	0.01574
1956.94015	0.01591
1955.65439	0.01640
1954.36862	0.01703
1953.08285	0.01751
1951.79708	0.01775
1950.51131	0.01782
1949.22554	0.01768
1947.93977	0.01720
1946.65400	0.01644
1945.36823	0.01570
1944.08247	0.01532
1942.79670	0.01548
1941.51093	0.01611
1940.22516	0.01684
1938.93939	0.01729
1937.65362	0.01732
1936.36785	0.01716
1935.08208	0.01709
1933.79632	0.01723
1932.51055	0.01746
1931.22478	0.01768
1929.93901	0.01781
1928.65324	0.01787
1927.36747	0.01786
1926.08170	0.01782
1924.79593	0.01780
1923.51016	0.01784
1922.22440	0.01789
1920.93863	0.01789
1919.65286	0.01781
1918.36709	0.01781
1917.08132	0.01805
1915.79555	0.01854
1914.50978	0.01913
1913.22401	0.01964
1911.93825	0.01994
1910.65248	0.01999
1909.36671	0.01982
1908.08094	0.01957
1906.79517	0.01940
1905.50940	0.01942
1904.22363	0.01962
1902.93786	0.01982
1901.65209	0.01982
1900.36633	0.01960
1899.08056	0.01927
1897.79479	0.01901
1896.50902	0.01888
1895.22325	0.01886
1893.93748	0.01891
1892.65171	0.01897
1891.36594	0.01902
1890.08018	0.01909
1888.79441	0.01926
1887.50864	0.01950
1886.22287	0.01971
1884.93710	0.01976
1883.65133	0.01965
1882.36556	0.01945
1881.07979	0.01926
1879.79402	0.01914
1878.50826	0.01912
1877.22249	0.01916
1875.93672	0.01921
1874.65095	0.01928
1873.36518	0.01940
1872.07941	0.01954
1870.79364	0.01968
1869.50787	0.01978
1868.22211	0.01985
1866.93634	0.01987
1865.65057	0.01977
1864.36480	0.01947
1863.07903	0.01903
1861.79326	0.01865
1860.50749	0.01848
1859.22172	0.01852
1857.93595	0.01865
1856.65019	0.01878
1855.36442	0.01886
1854.07865	0.01885
1852.79288	0.01870
1851.50711	0.01845
1850.22134	0.01828
1848.93557	0.01833
1847.64980	0.01858
1846.36404	0.01885
1845.07827	0.01900
1843.79250	0.01907
1842.50673	0.01911
1841.22096	0.01911
1839.93519	0.01903
1838.64942	0.01892
1837.36365	0.01880
1836.07788	0.01872
1834.79212	0.01873
1833.50635	0.01886
1832.22058	0.01901
1830.93481	0.01906
1829.64904	0.01905
1828.36327	0.01902
1827.07750	0.01897
1825.79173	0.01889
1824.50597	0.01879
1823.22020	0.01866
1821.93443	0.01850
1820.64866	0.01834
1819.36289	0.01826
1818.07712	0.01829
1816.79135	0.01842
1815.50558	0.01860
1814.21981	0.01875
1812.93405	0.01879
1811.64828	0.01874
1810.36251	0.01867
1809.07674	0.01864
1807.79097	0.01865
1806.50520	0.01868
1805.21943	0.01870
1803.93366	0.01871
1802.64790	0.01874
1801.36213	0.01878
1800.07636	0.01881
1798.79059	0.01882
1797.50482	0.01880
1796.21905	0.01878
1794.93328	0.01876
1793.64751	0.01875
1792.36174	0.01878
1791.07598	0.01884
1789.79021	0.01887
1788.50444	0.01880
1787.21867	0.01865
1785.93290	0.01849
1784.64713	0.01842
1783.36136	0.01843
1782.07559	0.01844
1780.78983	0.01839
1779.50406	0.01828
1778.21829	0.01817
1776.93252	0.01816
1775.64675	0.01828
1774.36098	0.01843
1773.07521	0.01856
1771.78944	0.01868
1770.50367	0.01878
1769.21791	0.01881
1767.93214	0.01876
1766.64637	0.01868
1765.36060	0.01861
1764.07483	0.01854
1762.78906	0.01851
1761.50329	0.01853
1760.21752	0.01859
1758.93176	0.01867
1757.64599	0.01874
1756.36022	0.01888
1755.07445	0.01909
1753.78868	0.01933
1752.50291	0.01954
1751.21714	0.01976
1749.93137	0.01997
1748.64560	0.02014
1747.35984	0.02021
1746.07407	0.02026
1744.78830	0.02034
1743.50253	0.02046
1742.21676	0.02064
1740.93099	0.02090
1739.64522	0.02131
1738.35945	0.02189
1737.07369	0.02245
1735.78792	0.02275
1734.50215	0.02286
1733.21638	0.02299
1731.93061	0.02323
1730.64484	0.02349
1729.35907	0.02369
1728.07330	0.02387
1726.78753	0.02408
1725.50177	0.02440
1724.21600	0.02484
1722.93023	0.02536
1721.64446	0.02586
1720.35869	0.02628
1719.07292	0.02664
1717.78715	0.02706
1716.50138	0.02759
1715.21561	0.02821
1713.92985	0.02892
1712.64408	0.02982
1711.35831	0.03097
1710.07254	0.03232
1708.78677	0.03380
1707.50100	0.03536
1706.21523	0.03706
1704.92946	0.03899
1703.64370	0.04112
1702.35793	0.04327
1701.07216	0.04547
1699.78639	0.04785
1698.50062	0.05036
1697.21485	0.05281
1695.92908	0.05527
1694.64331	0.05790
1693.35754	0.06056
1692.07178	0.06306
1690.78601	0.06546
1689.50024	0.06799
1688.21447	0.07069
1686.92870	0.07344
1685.64293	0.07618
1684.35716	0.07901
1683.07139	0.08198
1681.78563	0.08497
1680.49986	0.08794
1679.21409	0.09102
1677.92832	0.09424
1676.64255	0.09753
1675.35678	0.10092
1674.07101	0.10447
1672.78524	0.10809
1671.49947	0.11172
1670.21371	0.11539
1668.92794	0.11914
1667.64217	0.12290
1666.35640	0.12655
1665.07063	0.13003
1663.78486	0.13340
1662.49909	0.13671
1661.21332	0.13992
1659.92756	0.14299
1658.64179	0.14594
1657.35602	0.14886
1656.07025	0.15170
1654.78448	0.15436
1653.49871	0.15689
1652.21294	0.15935
1650.92717	0.16159
1649.64140	0.16341
1648.35564	0.16488
1647.06987	0.16630
1645.78410	0.16783
1644.49833	0.16939
1643.21256	0.17090
1641.92679	0.17234
1640.64102	0.17378
1639.35525	0.17521
1638.06949	0.17651
1636.78372	0.17760
1635.49795	0.17855
1634.21218	0.17942
1632.92641	0.18010
1631.64064	0.18048
1630.35487	0.18051
1629.06910	0.18020
1627.78333	0.17954
1626.49757	0.17849
1625.21180	0.17708
1623.92603	0.17531
1622.64026	0.17323
1621.35449	0.17084
1620.06872	0.16810
1618.78295	0.16504
1617.49718	0.16180
1616.21142	0.15855
1614.92565	0.15529
1613.63988	0.15188
1612.35411	0.14831
1611.06834	0.14468
1609.78257	0.14107
1608.49680	0.13749
1607.21103	0.13395
1605.92526	0.13052
1604.63950	0.12725
1603.35373	0.12415
1602.06796	0.12122
1600.78219	0.11848
1599.49642	0.11594
1598.21065	0.11361
1596.92488	0.11146
1595.63911	0.10947
1594.35335	0.10762
1593.06758	0.10594
1591.78181	0.10447
1590.49604	0.10325
1589.21027	0.10225
1587.92450	0.10145
1586.63873	0.10083
1585.35296	0.10039
1584.06719	0.10014
1582.78143	0.10007
1581.49566	0.10022
1580.20989	0.10062
1578.92412	0.10127
1577.63835	0.10211
1576.35258	0.10317
1575.06681	0.10451
1573.78104	0.10599
1572.49528	0.10748
1571.20951	0.10898
1569.92374	0.11067
1568.63797	0.11261
1567.35220	0.11472
1566.06643	0.11690
1564.78066	0.11918
1563.49489	0.12156
1562.20912	0.12396
1560.92336	0.12628
1559.63759	0.12855
1558.35182	0.13084
1557.06605	0.13303
1555.78028	0.13496
1554.49451	0.13669
1553.20874	0.13836
1551.92297	0.13994
1550.63721	0.14135
1549.35144	0.14259
1548.06567	0.14369
1546.77990	0.14465
1545.49413	0.14554
1544.20836	0.14639
1542.92259	0.14720
1541.63682	0.14785
1540.35105	0.14832
1539.06529	0.14865
1537.77952	0.14882
1536.49375	0.14875
1535.20798	0.14848
1533.92221	0.14817
1532.63644	0.14795
1531.35067	0.14774
1530.06490	0.14742
1528.77914	0.14698
1527.49337	0.14647
1526.20760	0.14595
1524.92183	0.14544
1523.63606	0.14485
1522.35029	0.14414
1521.06452	0.14335
1519.77875	0.14250
1518.49298	0.14150
1517.20722	0.14034
1515.92145	0.13906
1514.63568	0.13762
1513.34991	0.13600
1512.06414	0.13423
1510.77837	0.13240
1509.49260	0.13046
1508.20683	0.12831
1506.92107	0.12599
1505.63530	0.12359
1504.34953	0.12112
1503.06376	0.11854
1501.77799	0.11593
1500.49222	0.11341
1499.20645	0.11097
1497.92068	0.10852
1496.63491	0.10600
1495.34915	0.10345
1494.06338	0.10091
1492.77761	0.09837
1491.49184	0.09588
1490.20607	0.09358
1488.92030	0.09153
1487.63453	0.08973
1486.34876	0.08818
1485.06299	0.08687
1483.77723	0.08580
1482.49146	0.08498
1481.20569	0.08445
1479.91992	0.08420
1478.63415	0.08421
1477.34838	0.08446
1476.06261	0.08495
1474.77684	0.08566
1473.49108	0.08655
1472.20531	0.08762
1470.91954	0.08879
1469.63377	0.08994
1468.34800	0.09104
1467.06223	0.09215
1465.77646	0.09338
1464.49069	0.09478
1463.20492	0.09636
1461.91916	0.09800
1460.63339	0.09964
1459.34762	0.10124
1458.06185	0.10280
1456.77608	0.10438
1455.49031	0.10594
1454.20454	0.10727
1452.91877	0.10822
1451.63301	0.10884
1450.34724	0.10922
1449.06147	0.10940
1447.77570	0.10939
1446.48993	0.10923
1445.20416	0.10892
1443.91839	0.10848
1442.63262	0.10794
1441.34685	0.10732
1440.06109	0.10656
1438.77532	0.10561
1437.48955	0.10447
1436.20378	0.10327
1434.91801	0.10207
1433.63224	0.10083
1432.34647	0.09956
1431.06070	0.09833
1429.77494	0.09720
1428.48917	0.09624
1427.20340	0.09544
1425.91763	0.09481
1424.63186	0.09435
1423.34609	0.09404
1422.06032	0.09380
1420.77455	0.09359
1419.48878	0.09342
1418.20302	0.09334
1416.91725	0.09328
1415.63148	0.09321
1414.34571	0.09321
1413.05994	0.09336
1411.77417	0.09366
1410.48840	0.09402
1409.20263	0.09439
1407.91687	0.09474
1406.63110	0.09508
1405.34533	0.09542
1404.05956	0.09573
1402.77379	0.09598
1401.48802	0.09614
1400.20225	0.09621
1398.91648	0.09620
1397.63071	0.09611
1396.34495	0.09592
1395.05918	0.09567
1393.77341	0.09542
1392.48764	0.09521
1391.20187	0.09499
1389.91610	0.09474
1388.63033	0.09441
1387.34456	0.09406
1386.05880	0.09371
1384.77303	0.09340
1383.48726	0.09309
1382.20149	0.09278
1380.91572	0.09244
1379.62995	0.09208
1378.34418	0.09169
1377.05841	0.09125
1375.77264	0.09070
1374.48688	0.09005
1373.20111	0.08931
1371.91534	0.08852
1370.62957	0.08765
1369.34380	0.08669
1368.05803	0.08566
1366.77226	0.08462
1365.48649	0.08362
1364.20073	0.08269
1362.91496	0.08188
1361.62919	0.08119
1360.34342	0.08062
1359.05765	0.08017
1357.77188	0.07985
1356.48611	0.07968
1355.20034	0.07966
1353.91457	0.07978
1352.62881	0.08003
1351.34304	0.08040
1350.05727	0.08088
1348.77150	0.08147
1347.48573	0.08216
1346.19996	0.08292
1344.91419	0.08373
1343.62842	0.08456
1342.34266	0.08539
1341.05689	0.08614
1339.77112	0.08676
1338.48535	0.08720
1337.19958	0.08744
1335.91381	0.08751
1334.62804	0.08742
1333.34227	0.08714
1332.05650	0.08669
1330.77074	0.08610
1329.48497	0.08543
1328.19920	0.08473
1326.91343	0.08407
1325.62766	0.08345
1324.34189	0.08290
1323.05612	0.08245
1321.77035	0.08210
1320.48459	0.08184
1319.19882	0.08163
1317.91305	0.08143
1316.62728	0.08121
1315.34151	0.08091
1314.05574	0.08055
1312.76997	0.08013
1311.48420	0.07968
1310.19843	0.07922
1308.91267	0.07874
1307.62690	0.07826
1306.34113	0.07777
1305.05536	0.07732
1303.76959	0.07691
1302.48382	0.07653
1301.19805	0.07619
1299.91228	0.07591
1298.62652	0.07569
1297.34075	0.07551
1296.05498	0.07535
1294.76921	0.07525
1293.48344	0.07528
1292.19767	0.07547
1290.91190	0.07581
1289.62613	0.07624
1288.34036	0.07670
1287.05460	0.07719
1285.76883	0.07772
1284.48306	0.07828
1283.19729	0.07882
1281.91152	0.07924
1280.62575	0.07951
1279.33998	0.07965
1278.05421	0.07974
1276.76845	0.07982
1275.48268	0.07990
1274.19691	0.07995
1272.91114	0.07999
1271.62537	0.08004
1270.33960	0.08014
1269.05383	0.08033
1267.76806	0.08063
1266.48229	0.08105
1265.19653	0.08156
1263.91076	0.08209
1262.62499	0.08261
1261.33922	0.08313
1260.05345	0.08363
1258.76768	0.08412
1257.48191	0.08460
1256.19614	0.08513
1254.91037	0.08574
1253.62461	0.08644
1252.33884	0.08718
1251.05307	0.08796
1249.76730	0.08876
1248.48153	0.08960
1247.19576	0.09050
1245.90999	0.09147
1244.62422	0.09250
1243.33846	0.09355
1242.05269	0.09455
1240.76692	0.09543
1239.48115	0.09614
1238.19538	0.09668
1236.90961	0.09705
1235.62384	0.09727
1234.33807	0.09734
1233.05230	0.09724
1231.76654	0.09697
1230.48077	0.09653
1229.19500	0.09595
1227.90923	0.09520
1226.62346	0.09425
1225.33769	0.09310
1224.05192	0.09180
1222.76615	0.09045
1221.48039	0.08913
1220.19462	0.08790
1218.90885	0.08677
1217.62308	0.08573
1216.33731	0.08480
1215.05154	0.08404
1213.76577	0.08352
1212.48000	0.08326
1211.19423	0.08319
1209.90847	0.08325
1208.62270	0.08338
1207.33693	0.08358
1206.05116	0.08380
1204.76539	0.08402
1203.47962	0.08415
1202.19385	0.08413
1200.90808	0.08393
1199.62232	0.08351
1198.33655	0.08284
1197.05078	0.08200
1195.76501	0.08106
1194.47924	0.08007
1193.19347	0.07904
1191.90770	0.07799
1190.62193	0.07696
1189.33616	0.07599
1188.05040	0.07509
1186.76463	0.07425
1185.47886	0.07346
1184.19309	0.07273
1182.90732	0.07211
1181.62155	0.07161
1180.33578	0.07123
1179.05001	0.07095
1177.76425	0.07072
1176.47848	0.07050
1175.19271	0.07027
1173.90694	0.07008
1172.62117	0.07000
1171.33540	0.07007
1170.04963	0.07022
1168.76386	0.07039
1167.47809	0.07051
1166.19233	0.07063
1164.90656	0.07076
1163.62079	0.07088
1162.33502	0.07098
1161.04925	0.07103
1159.76348	0.07100
1158.47771	0.07083
1157.19194	0.07043
1155.90618	0.06984
1154.62041	0.06914
1153.33464	0.06842
1152.04887	0.06770
1150.76310	0.06695
1149.47733	0.06615
1148.19156	0.06531
1146.90579	0.06449
1145.62002	0.06377
1144.33426	0.06318
1143.04849	0.06265
1141.76272	0.06212
1140.47695	0.06157
1139.19118	0.06099
1137.90541	0.06043
1136.61964	0.05995
1135.33387	0.05961
1134.04811	0.05942
1132.76234	0.05935
1131.47657	0.05933
1130.19080	0.05931
1128.90503	0.05926
1127.61926	0.05919
1126.33349	0.05911
1125.04772	0.05904
1123.76195	0.05898
1122.47619	0.05899
1121.19042	0.05910
1119.90465	0.05924
1118.61888	0.05937
1117.33311	0.05949
1116.04734	0.05968
1114.76157	0.05995
1113.47580	0.06023
1112.19004	0.06047
1110.90427	0.06064
1109.61850	0.06080
1108.33273	0.06102
1107.04696	0.06129
1105.76119	0.06158
1104.47542	0.06183
1103.18965	0.06208
1101.90388	0.06235
1100.61812	0.06265
1099.33235	0.06294
1098.04658	0.06321
1096.76081	0.06349
1095.47504	0.06382
1094.18927	0.06425
1092.90350	0.06480
1091.61773	0.06544
1090.33197	0.06614
1089.04620	0.06689
1087.76043	0.06770
1086.47466	0.06862
1085.18889	0.06958
1083.90312	0.07048
1082.61735	0.07119
1081.33158	0.07164
1080.04581	0.07183
1078.76005	0.07182
1077.47428	0.07169
1076.18851	0.07149
1074.90274	0.07125
1073.61697	0.07098
1072.33120	0.07070
1071.04543	0.07047
1069.75966	0.07032
1068.47390	0.07027
1067.18813	0.07029
1065.90236	0.07038
1064.61659	0.07050
1063.33082	0.07058
1062.04505	0.07060
1060.75928	0.07052
1059.47351	0.07041
1058.18774	0.07029
1056.90198	0.07016
1055.61621	0.06998
1054.33044	0.06974
1053.04467	0.06947
1051.75890	0.06916
1050.47313	0.06881
1049.18736	0.06842
1047.90159	0.06806
1046.61583	0.06778
1045.33006	0.06760
1044.04429	0.06750
1042.75852	0.06748
1041.47275	0.06753
1040.18698	0.06770
1038.90121	0.06800
1037.61544	0.06842
1036.32967	0.06890
1035.04391	0.06939
1033.75814	0.06985
1032.47237	0.07024
1031.18660	0.07050
1029.90083	0.07052
1028.61506	0.07025
1027.32929	0.06974
1026.04352	0.06910
1024.75775	0.06841
1023.47199	0.06769
1022.18622	0.06694
1020.90045	0.06619
1019.61468	0.06551
1018.32891	0.06497
1017.04314	0.06456
1015.75737	0.06423
1014.47160	0.06389
1013.18584	0.06349
1011.90007	0.06301
1010.61430	0.06245
1009.32853	0.06183
1008.04276	0.06118
1006.75699	0.06057
1005.47122	0.06001
1004.18545	0.05947
1002.89968	0.05893
1001.61392	0.05838
1000.32815	0.05784
999.04238	0.05729
997.75661	0.05674
996.47084	0.05623
995.18507	0.05580
993.89930	0.05542
992.61353	0.05502
991.32777	0.05453
990.04200	0.05396
988.75623	0.05339
987.47046	0.05295
986.18469	0.05271
984.89892	0.05258
983.61315	0.05241
982.32738	0.05217
981.04161	0.05191
979.75585	0.05175
978.47008	0.05171
977.18431	0.05175
975.89854	0.05178
974.61277	0.05173
973.32700	0.05153
972.04123	0.05120
970.75546	0.05076
969.46970	0.05028
968.18393	0.04981
966.89816	0.04938
965.61239	0.04900
964.32662	0.04865
963.04085	0.04833
961.75508	0.04803
960.46931	0.04773
959.18354	0.04746
957.89778	0.04721
956.61201	0.04695
955.32624	0.04664
954.04047	0.04629
952.75470	0.04591
951.46893	0.04558
950.18316	0.04536
948.89739	0.04526
947.61163	0.04524
946.32586	0.04520
945.04009	0.04515
943.75432	0.04512
942.46855	0.04514
941.18278	0.04516
939.89701	0.04512
938.61124	0.04505
937.32547	0.04496
936.03971	0.04486
934.75394	0.04472
933.46817	0.04453
932.18240	0.04432
930.89663	0.04411
929.61086	0.04393
928.32509	0.04379
927.03932	0.04371
925.75356	0.04369
924.46779	0.04368
923.18202	0.04364
921.89625	0.04352
920.61048	0.04333
919.32471	0.04312
918.03894	0.04292
916.75317	0.04272
915.46740	0.04250
914.18164	0.04226
912.89587	0.04204
911.61010	0.04188
910.32433	0.04179
909.03856	0.04176
907.75279	0.04176
906.46702	0.04175
905.18125	0.04173
903.89549	0.04167
902.60972	0.04155
901.32395	0.04135
900.03818	0.04106
898.75241	0.04076
897.46664	0.04054
896.18087	0.04038
894.89510	0.04023
893.60933	0.04008
892.32357	0.03993
891.03780	0.03984
889.75203	0.03986
888.46626	0.03995
887.18049	0.04002
885.89472	0.04001
884.60895	0.03994
883.32318	0.03987
882.03742	0.03979
880.75165	0.03969
879.46588	0.03958
878.18011	0.03958
876.89434	0.03972
875.60857	0.03994
874.32280	0.04007
873.03703	0.04006
871.75126	0.03994
870.46550	0.03981
869.17973	0.03971
867.89396	0.03958
866.60819	0.03940
865.32242	0.03923
864.03665	0.03917
862.75088	0.03919
861.46511	0.03921
860.17935	0.03916
858.89358	0.03903
857.60781	0.03892
856.32204	0.03887
855.03627	0.03890
853.75050	0.03897
852.46473	0.03903
851.17896	0.03906
849.89319	0.03906
848.60743	0.03904
847.32166	0.03901
846.03589	0.03895
844.75012	0.03886
843.46435	0.03878
842.17858	0.03870
840.89281	0.03860
839.60704	0.03847
838.32128	0.03836
837.03551	0.03833
835.74974	0.03837
834.46397	0.03844
833.17820	0.03850
831.89243	0.03856
830.60666	0.03866
829.32089	0.03884
828.03512	0.03907
826.74936	0.03928
825.46359	0.03940
824.17782	0.03946
822.89205	0.03951
821.60628	0.03963
820.32051	0.03983
819.03474	0.04009
817.74897	0.04038
816.46321	0.04061
815.17744	0.04076
813.89167	0.04088
812.60590	0.04105
811.32013	0.04130
810.03436	0.04159
808.74859	0.04182
807.46282	0.04195
806.17705	0.04204
804.89129	0.04215
803.60552	0.04229
802.31975	0.04241
801.03398	0.04249
799.74821	0.04252
798.46244	0.04257
797.17667	0.04270
795.89090	0.04291
794.60513	0.04312
793.31937	0.04328
792.03360	0.04343
790.74783	0.04361
789.46206	0.04380
788.17629	0.04396
786.89052	0.04407
785.60475	0.04414
784.31898	0.04417
783.03322	0.04418
781.74745	0.04422
780.46168	0.04431
779.17591	0.04443
777.89014	0.04457
776.60437	0.04471
775.31860	0.04488
774.03283	0.04510
772.74706	0.04534
771.46130	0.04559
770.17553	0.04581
768.88976	0.04597
767.60399	0.04610
766.31822	0.04624
765.03245	0.04643
763.74668	0.04665
762.46091	0.04685
761.17515	0.04700
759.88938	0.04711
758.60361	0.04722
757.31784	0.04739
756.03207	0.04759
754.74630	0.04775
753.46053	0.04784
752.17476	0.04788
750.88899	0.04797
749.60323	0.04819
748.31746	0.04856
747.03169	0.04899
745.74592	0.04938
744.46015	0.04968
743.17438	0.04990
741.88861	0.05006
740.60284	0.05017
739.31708	0.05026
738.03131	0.05042
736.74554	0.05071
735.45977	0.05107
734.17400	0.05140
732.88823	0.05157
731.60246	0.05160
730.31669	0.05165
729.03092	0.05183
727.74516	0.05214
726.45939	0.05248
725.17362	0.05274
723.88785	0.05294
722.60208	0.05327
721.31631	0.05370
720.03054	0.05412
718.74477	0.05449
717.45901	0.05476
716.17324	0.05493
714.88747	0.05502
713.60170	0.05508
712.31593	0.05518
711.03016	0.05535
709.74439	0.05559
708.45862	0.05589
707.17285	0.05624
705.88709	0.05664
704.60132	0.05703
703.31555	0.05733
702.02978	0.05755
700.74401	0.05769
699.45824	0.05783
698.17247	0.05798
696.88670	0.05814
695.60094	0.05833
694.31517	0.05849
693.02940	0.05858
691.74363	0.05860
690.45786	0.05859
689.17209	0.05864
687.88632	0.05873
686.60055	0.05879
685.31478	0.05882
684.02902	0.05887
682.74325	0.05905
681.45748	0.05932
680.17171	0.05962
678.88594	0.05987
677.60017	0.06008
676.31440	0.06032
675.02863	0.06054
673.74287	0.06072
672.45710	0.06087
671.17133	0.06102
669.88556	0.06125
668.59979	0.06150
667.31402	0.06162
666.02825	0.06181
664.74248	0.06194
663.45671	0.06202
662.17095	0.06206
660.88518	0.06205
659.59941	0.06203
658.31364	0.06207
657.02787	0.06217
655.74210	0.06230
654.45633	0.06244
653.17056	0.06260
651.88480	0.06275
650.59903	0.06290
649.31326	0.06302
648.02749	0.06305
646.74172	0.06304
645.45595	0.06303
644.17018	0.06307
642.88441	0.06315
641.59864	0.06324
640.31288	0.06329
639.02711	0.06332
637.74134	0.06336
636.45557	0.06344
635.16980	0.06353
633.88403	0.06361
632.59826	0.06364
631.31249	0.06357
630.02673	0.06327
628.74096	0.06286
627.45519	0.06284
626.16942	0.06242
624.88365	0.06167
623.59788	0.06083
622.31211	0.06015
621.02634	0.05999
619.74057	0.06076
618.45481	0.06254
617.16904	0.06461
615.88327	0.06567
614.59750	0.06488
613.31173	0.06270
612.02596	0.06059
610.74019	0.05993
609.45442	0.06102
608.16866	0.06302
606.88289	0.06462
605.59712	0.06503
604.31135	0.06452
603.02558	0.06394
601.73981	0.06384
600.45404	0.06408
599.16827	0.06432
597.88250	0.06447
596.59674	0.06466
595.31097	0.06495
594.02520	0.06523
592.73943	0.06536
591.45366	0.06528
590.16789	0.06507
588.88212	0.06485
587.59635	0.06476
586.31059	0.06479
585.02482	0.06490
583.73905	0.06499
582.45328	0.06500
581.16751	0.06498
579.88174	0.06496
578.59597	0.06495
577.31020	0.06496
576.02443	0.06504
574.73867	0.06521
573.45290	0.06541
572.16713	0.06555
570.88136	0.06560
569.59559	0.06563
568.30982	0.06569
567.02405	0.06572
565.73828	0.06563
564.45251	0.06547
563.16675	0.06540
561.88098	0.06553
560.59521	0.06579
559.30944	0.06600
558.02367	0.06610
556.73790	0.06616
555.45213	0.06626
554.16636	0.06637
552.88060	0.06643
551.59483	0.06640
550.30906	0.06634
549.02329	0.06629
547.73752	0.06626
546.45175	0.06624
545.16598	0.06621
543.88021	0.06614
542.59444	0.06604
541.30868	0.06592
540.02291	0.06578
538.73714	0.06566
537.45137	0.06562
536.16560	0.06566
534.87983	0.06577
533.59406	0.06589
532.30829	0.06596
531.02253	0.06594
529.73676	0.06584
528.45099	0.06573
527.16522	0.06570
525.87945	0.06573
524.59368	0.06573
523.30791	0.06562
522.02214	0.06546
520.73637	0.06533
519.45061	0.06521
518.16484	0.06503
516.87907	0.06480
515.59330	0.06461
514.30753	0.06450
513.02176	0.06440
511.73599	0.06421
510.45022	0.06396
509.16446	0.06371
507.87869	0.06356
506.59292	0.06351
505.30715	0.06350
504.02138	0.06339
502.73561	0.06308
501.44984	0.06261
500.16407	0.06214
498.87830	0.06182
497.59254	0.06165
496.30677	0.06151
495.02100	0.06131
493.73523	0.06103
492.44946	0.06075
491.16369	0.06055
489.87792	0.06042
488.59215	0.06032
487.30639	0.06020
486.02062	0.06006
484.73485	0.05995
483.44908	0.05988
482.16331	0.05978
480.87754	0.05960
479.59177	0.05937
478.30600	0.05917
477.02023	0.05906
475.73447	0.05898
474.44870	0.05887
473.16293	0.05868
471.87716	0.05840
470.59139	0.05804
469.30562	0.05764
468.01985	0.05733
466.73408	0.05721
465.44832	0.05719
464.16255	0.05709
462.87678	0.05678
461.59101	0.05637
460.30524	0.05602
459.01947	0.05578
457.73370	0.05561
456.44793	0.05544
455.16216	0.05526
453.87640	0.05511
452.59063	0.05495
451.30486	0.05476
450.01909	0.05448
448.73332	0.05414
447.44755	0.05376
446.16178	0.05339
444.87601	0.05310
443.59025	0.05290
442.30448	0.05275
441.01871	0.05261
439.73294	0.05243
438.44717	0.05218
437.16140	0.05188
435.87563	0.05157
434.58986	0.05131
433.30409	0.05115
432.01833	0.05109
430.73256	0.05107
429.44679	0.05102
428.16102	0.05088
426.87525	0.05066
425.58948	0.05041
424.30371	0.05017
423.01794	0.04991
421.73218	0.04960
420.44641	0.04929
419.16064	0.04907
417.87487	0.04897
416.58910	0.04889
415.30333	0.04870
414.01756	0.04841
412.73179	0.04810
411.44602	0.04784
410.16026	0.04763
408.87449	0.04744
407.58872	0.04727
406.30295	0.04714
405.01718	0.04703
403.73141	0.04690
402.44564	0.04674
401.15987	0.04656
399.87411	0.04636
