3996.16951	0.04517
3994.24086	0.04497
3992.31220	0.04467
3990.38355	0.04455
3988.45490	0.04477
3986.52624	0.04488
3984.59759	0.04452
3982.66894	0.04409
3980.74028	0.04407
3978.81163	0.04449
3976.88298	0.04486
3974.95432	0.04476
3973.02567	0.04428
3971.09702	0.04367
3969.16836	0.04331
3967.23971	0.04358
3965.31106	0.04399
3963.38240	0.04390
3961.45375	0.04375
3959.52510	0.04404
3957.59645	0.04441
3955.66779	0.04439
3953.73914	0.04392
3951.81049	0.04332
3949.88183	0.04311
3947.95318	0.04316
3946.02453	0.04308
3944.09587	0.04304
3942.16722	0.04318
3940.23857	0.04324
3938.30991	0.04309
3936.38126	0.04286
3934.45261	0.04274
3932.52395	0.04272
3930.59530	0.04266
3928.66665	0.04262
3926.73799	0.04265
3924.80934	0.04263
3922.88069	0.04239
3920.95203	0.04218
3919.02338	0.04236
3917.09473	0.04272
3915.16607	0.04285
3913.23742	0.04283
3911.30877	0.04277
3909.38011	0.04260
3907.45146	0.04229
3905.52281	0.04197
3903.59415	0.04179
3901.66550	0.04204
3899.73685	0.04243
3897.80819	0.04221
3895.87954	0.04165
3893.95089	0.04153
3892.02224	0.04195
3890.09358	0.04206
3888.16493	0.04177
3886.23628	0.04167
3884.30762	0.04134
3882.37897	0.04081
3880.45032	0.04050
3878.52166	0.04072
3876.59301	0.04165
3874.66436	0.04224
3872.73570	0.04191
3870.80705	0.04176
3868.87840	0.04184
3866.94974	0.04184
3865.02109	0.04174
3863.09244	0.04147
3861.16378	0.04139
3859.23513	0.04116
3857.30648	0.04084
3855.37782	0.04109
3853.44917	0.04126
3851.52052	0.04075
3849.59186	0.04037
3847.66321	0.04021
3845.73456	0.03990
3843.80590	0.03935
3841.87725	0.03883
3839.94860	0.03885
3838.01994	0.03922
3836.09129	0.03919
3834.16264	0.03899
3832.23398	0.03884
3830.30533	0.03895
3828.37668	0.03953
3826.44803	0.03971
3824.51937	0.03892
3822.59072	0.03856
3820.66207	0.03910
3818.73341	0.03965
3816.80476	0.03985
3814.87611	0.03945
3812.94745	0.03923
3811.01880	0.03933
3809.09015	0.03937
3807.16149	0.03957
3805.23284	0.03923
3803.30419	0.03865
3801.37553	0.03856
3799.44688	0.03870
3797.51823	0.03882
3795.58957	0.03818
3793.66092	0.03747
3791.73227	0.03794
3789.80361	0.03891
3787.87496	0.03930
3785.94631	0.03900
3784.01765	0.03818
3782.08900	0.03755
3780.16035	0.03766
3778.23169	0.03790
3776.30304	0.03799
3774.37439	0.03837
3772.44573	0.03888
3770.51708	0.03888
3768.58843	0.03850
3766.65977	0.03856
3764.73112	0.03853
3762.80247	0.03776
3760.87381	0.03720
3758.94516	0.03746
3757.01651	0.03806
3755.08786	0.03837
3753.15920	0.03865
3751.23055	0.03871
3749.30190	0.03791
3747.37324	0.03683
3745.44459	0.03696
3743.51594	0.03716
3741.58728	0.03687
3739.65863	0.03691
3737.72998	0.03711
3735.80132	0.03727
3733.87267	0.03714
3731.94402	0.03669
3730.01536	0.03606
3728.08671	0.03625
3726.15806	0.03716
3724.22940	0.03756
3722.30075	0.03688
3720.37210	0.03586
3718.44344	0.03556
3716.51479	0.03579
3714.58614	0.03577
3712.65748	0.03556
3710.72883	0.03564
3708.80018	0.03619
3706.87152	0.03655
3704.94287	0.03629
3703.01422	0.03568
3701.08556	0.03508
3699.15691	0.03491
3697.22826	0.03514
3695.29960	0.03529
3693.37095	0.03546
3691.44230	0.03559
3689.51365	0.03528
3687.58499	0.03459
3685.65634	0.03449
3683.72769	0.03517
3681.79903	0.03531
3679.87038	0.03486
3677.94173	0.03502
3676.01307	0.03573
3674.08442	0.03542
3672.15577	0.03496
3670.22711	0.03541
3668.29846	0.03606
3666.36981	0.03633
3664.44115	0.03596
3662.51250	0.03572
3660.58385	0.03614
3658.65519	0.03673
3656.72654	0.03685
3654.79789	0.03626
3652.86923	0.03601
3650.94058	0.03680
3649.01193	0.03776
3647.08327	0.03819
3645.15462	0.03842
3643.22597	0.03872
3641.29731	0.03897
3639.36866	0.03933
3637.44001	0.03983
3635.51135	0.04009
3633.58270	0.03966
3631.65405	0.03899
3629.72539	0.03914
3627.79674	0.03960
3625.86809	0.03991
3623.93943	0.04043
3622.01078	0.04114
3620.08213	0.04191
3618.15348	0.04273
3616.22482	0.04369
3614.29617	0.04431
3612.36752	0.04425
3610.43886	0.04401
3608.51021	0.04396
3606.58156	0.04409
3604.65290	0.04432
3602.72425	0.04454
3600.79560	0.04513
3598.86694	0.04612
3596.93829	0.04699
3595.00964	0.04755
3593.08098	0.04809
3591.15233	0.04862
3589.22368	0.04855
3587.29502	0.04765
3585.36637	0.04720
3583.43772	0.04824
3581.50906	0.04969
3579.58041	0.05054
3577.65176	0.05124
3575.72310	0.05190
3573.79445	0.05211
3571.86580	0.05224
3569.93714	0.05274
3568.00849	0.05333
3566.07984	0.05381
3564.15118	0.05444
3562.22253	0.05520
3560.29388	0.05589
3558.36522	0.05672
3556.43657	0.05758
3554.50792	0.05796
3552.57927	0.05779
3550.65061	0.05761
3548.72196	0.05817
3546.79331	0.05930
3544.86465	0.06028
3542.93600	0.06108
3541.00735	0.06174
3539.07869	0.06209
3537.15004	0.06247
3535.22139	0.06285
3533.29273	0.06300
3531.36408	0.06333
3529.43543	0.06399
3527.50677	0.06473
3525.57812	0.06558
3523.64947	0.06621
3521.72081	0.06633
3519.79216	0.06649
3517.86351	0.06731
3515.93485	0.06843
3514.00620	0.06907
3512.07755	0.06938
3510.14889	0.06984
3508.22024	0.07037
3506.29159	0.07089
3504.36293	0.07141
3502.43428	0.07162
3500.50563	0.07172
3498.57697	0.07213
3496.64832	0.07277
3494.71967	0.07346
3492.79101	0.07412
3490.86236	0.07452
3488.93371	0.07463
3487.00506	0.07468
3485.07640	0.07479
3483.14775	0.07510
3481.21910	0.07557
3479.29044	0.07616
3477.36179	0.07685
3475.43314	0.07737
3473.50448	0.07747
3471.57583	0.07722
3469.64718	0.07721
3467.71852	0.07784
3465.78987	0.07877
3463.86122	0.07953
3461.93256	0.08010
3460.00391	0.08061
3458.07526	0.08103
3456.14660	0.08126
3454.21795	0.08134
3452.28930	0.08150
3450.36064	0.08200
3448.43199	0.08278
3446.50334	0.08328
3444.57468	0.08325
3442.64603	0.08321
3440.71738	0.08349
3438.78872	0.08394
3436.86007	0.08453
3434.93142	0.08533
3433.00276	0.08629
3431.07411	0.08709
3429.14546	0.08722
3427.21680	0.08672
3425.28815	0.08643
3423.35950	0.08691
3421.43084	0.08783
3419.50219	0.08853
3417.57354	0.08888
3415.64489	0.08926
3413.71623	0.08982
3411.78758	0.09038
3409.85893	0.09088
3407.93027	0.09119
3406.00162	0.09124
3404.07297	0.09135
3402.14431	0.09172
3400.21566	0.09212
3398.28701	0.09239
3396.35835	0.09291
3394.42970	0.09376
3392.50105	0.09440
3390.57239	0.09459
3388.64374	0.09486
3386.71509	0.09534
3384.78643	0.09552
3382.85778	0.09544
3380.92913	0.09555
3379.00047	0.09597
3377.07182	0.09648
3375.14317	0.09689
3373.21451	0.09737
3371.28586	0.09815
3369.35721	0.09900
3367.42855	0.09968
3365.49990	0.10032
3363.57125	0.10103
3361.64259	0.10185
3359.71394	0.10272
3357.78529	0.10347
3355.85663	0.10417
3353.92798	0.10509
3351.99933	0.10623
3350.07068	0.10728
3348.14202	0.10800
3346.21337	0.10851
3344.28472	0.10900
3342.35606	0.10966
3340.42741	0.11059
3338.49876	0.11163
3336.57010	0.11265
3334.64145	0.11355
3332.71280	0.11427
3330.78414	0.11494
3328.85549	0.11580
3326.92684	0.11678
3324.99818	0.11741
3323.06953	0.11767
3321.14088	0.11810
3319.21222	0.11865
3317.28357	0.11882
3315.35492	0.11880
3313.42626	0.11914
3311.49761	0.11974
3309.56896	0.12022
3307.64030	0.12060
3305.71165	0.12095
3303.78300	0.12115
3301.85434	0.12125
3299.92569	0.12152
3297.99704	0.12183
3296.06838	0.12180
3294.13973	0.12154
3292.21108	0.12143
3290.28242	0.12156
3288.35377	0.12174
3286.42512	0.12182
3284.49646	0.12170
3282.56781	0.12164
3280.63916	0.12171
3278.71051	0.12143
3276.78185	0.12076
3274.85320	0.12037
3272.92455	0.12028
3270.99589	0.12008
3269.06724	0.11976
3267.13859	0.11941
3265.20993	0.11907
3263.28128	0.11877
3261.35263	0.11852
3259.42397	0.11833
3257.49532	0.11792
3255.56667	0.11711
3253.63801	0.11643
3251.70936	0.11628
3249.78071	0.11613
3247.85205	0.11546
3245.92340	0.11464
3243.99475	0.11415
3242.06609	0.11393
3240.13744	0.11376
3238.20879	0.11364
3236.28013	0.11355
3234.35148	0.11314
3232.42283	0.11233
3230.49417	0.11161
3228.56552	0.11145
3226.63687	0.11158
3224.70821	0.11129
3222.77956	0.11059
3220.85091	0.11011
3218.92225	0.11001
3216.99360	0.10986
3215.06495	0.10953
3213.13630	0.10918
3211.20764	0.10879
3209.27899	0.10841
3207.35034	0.10825
3205.42168	0.10822
3203.49303	0.10815
3201.56438	0.10804
3199.63572	0.10776
3197.70707	0.10716
3195.77842	0.10622
3193.84976	0.10523
3191.92111	0.10470
3189.99246	0.10470
3188.06380	0.10478
3186.13515	0.10445
3184.20650	0.10368
3182.27784	0.10304
3180.34919	0.10272
3178.42054	0.10227
3176.49188	0.10145
3174.56323	0.10059
3172.63458	0.09994
3170.70592	0.09917
3168.77727	0.09821
3166.84862	0.09744
3164.91996	0.09695
3162.99131	0.09657
3161.06266	0.09626
3159.13400	0.09585
3157.20535	0.09505
3155.27670	0.09402
3153.34804	0.09324
3151.41939	0.09266
3149.49074	0.09199
3147.56209	0.09133
3145.63343	0.09088
3143.70478	0.09051
3141.77613	0.09003
3139.84747	0.08962
3137.91882	0.08933
3135.99017	0.08880
3134.06151	0.08801
3132.13286	0.08741
3130.20421	0.08712
3128.27555	0.08687
3126.34690	0.08653
3124.41825	0.08613
3122.48959	0.08559
3120.56094	0.08522
3118.63229	0.08552
3116.70363	0.08603
3114.77498	0.08584
3112.84633	0.08529
3110.91767	0.08531
3108.98902	0.08574
3107.06037	0.08593
3105.13171	0.08590
3103.20306	0.08580
3101.27441	0.08570
3099.34575	0.08575
3097.41710	0.08585
3095.48845	0.08586
3093.55979	0.08594
3091.63114	0.08619
3089.70249	0.08646
3087.77383	0.08671
3085.84518	0.08702
3083.91653	0.08739
3081.98787	0.08779
3080.05922	0.08812
3078.13057	0.08818
3076.20192	0.08794
3074.27326	0.08753
3072.34461	0.08716
3070.41596	0.08709
3068.48730	0.08727
3066.55865	0.08737
3064.63000	0.08725
3062.70134	0.08694
3060.77269	0.08645
3058.84404	0.08601
3056.91538	0.08572
3054.98673	0.08524
3053.05808	0.08454
3051.12942	0.08397
3049.20077	0.08359
3047.27212	0.08327
3045.34346	0.08289
3043.41481	0.08245
3041.48616	0.08199
3039.55750	0.08140
3037.62885	0.08064
3035.70020	0.08001
3033.77154	0.07969
3031.84289	0.07941
3029.91424	0.07879
3027.98558	0.07803
3026.05693	0.07751
3024.12828	0.07718
3022.19962	0.07668
3020.27097	0.07601
3018.34232	0.07551
3016.41366	0.07515
3014.48501	0.07478
3012.55636	0.07450
3010.62771	0.07443
3008.69905	0.07440
3006.77040	0.07425
3004.84175	0.07404
3002.91309	0.07388
3000.98444	0.07383
2999.05579	0.07391
2997.12713	0.07410
2995.19848	0.07430
2993.26983	0.07438
2991.34117	0.07438
2989.41252	0.07454
2987.48387	0.07498
2985.55521	0.07560
2983.62656	0.07636
2981.69791	0.07711
2979.76925	0.07753
2977.84060	0.07758
2975.91195	0.07746
2973.98329	0.07750
2972.05464	0.07786
2970.12599	0.07831
2968.19733	0.07858
2966.26868	0.07884
2964.34003	0.07928
2962.41137	0.07965
2960.48272	0.07975
2958.55407	0.07982
2956.62541	0.08003
2954.69676	0.08021
2952.76811	0.08025
2950.83945	0.08014
2948.91080	0.08001
2946.98215	0.08012
2945.05349	0.08038
2943.12484	0.08060
2941.19619	0.08095
2939.26754	0.08143
2937.33888	0.08166
2935.41023	0.08149
2933.48158	0.08113
2931.55292	0.08075
2929.62427	0.08047
2927.69562	0.08035
2925.76696	0.08015
2923.83831	0.07984
2921.90966	0.07949
2919.98100	0.07893
2918.05235	0.07830
2916.12370	0.07763
2914.19504	0.07682
2912.26639	0.07613
2910.33774	0.07568
2908.40908	0.07518
2906.48043	0.07459
2904.55178	0.07398
2902.62312	0.07328
2900.69447	0.07266
2898.76582	0.07227
2896.83716	0.07202
2894.90851	0.07186
2892.97986	0.07165
2891.05120	0.07137
2889.12255	0.07136
2887.19390	0.07168
2885.26524	0.07195
2883.33659	0.07191
2881.40794	0.07161
2879.47928	0.07134
2877.55063	0.07125
2875.62198	0.07118
2873.69333	0.07106
2871.76467	0.07090
2869.83602	0.07059
2867.90737	0.07000
2865.97871	0.06925
2864.05006	0.06855
2862.12141	0.06795
2860.19275	0.06748
2858.26410	0.06719
2856.33545	0.06688
2854.40679	0.06647
2852.47814	0.06609
2850.54949	0.06574
2848.62083	0.06538
2846.69218	0.06505
2844.76353	0.06471
2842.83487	0.06425
2840.90622	0.06363
2838.97757	0.06311
2837.04891	0.06290
2835.12026	0.06275
2833.19161	0.06252
2831.26295	0.06227
2829.33430	0.06193
2827.40565	0.06154
2825.47699	0.06119
2823.54834	0.06082
2821.61969	0.06050
2819.69103	0.06044
2817.76238	0.06051
2815.83373	0.06042
2813.90507	0.06016
2811.97642	0.05994
2810.04777	0.05973
2808.11912	0.05948
2806.19046	0.05922
2804.26181	0.05890
2802.33316	0.05860
2800.40450	0.05852
2798.47585	0.05855
2796.54720	0.05835
2794.61854	0.05795
2792.68989	0.05771
2790.76124	0.05765
2788.83258	0.05756
2786.90393	0.05742
2784.97528	0.05719
2783.04662	0.05692
2781.11797	0.05660
2779.18932	0.05628
2777.26066	0.05623
2775.33201	0.05646
2773.40336	0.05666
2771.47470	0.05652
2769.54605	0.05609
2767.61740	0.05558
2765.68874	0.05516
2763.76009	0.05487
2761.83144	0.05473
2759.90278	0.05474
2757.97413	0.05461
2756.04548	0.05424
2754.11682	0.05390
2752.18817	0.05389
2750.25952	0.05398
2748.33086	0.05374
2746.40221	0.05334
2744.47356	0.05316
2742.54490	0.05323
2740.61625	0.05329
2738.68760	0.05316
2736.75895	0.05297
2734.83029	0.05281
2732.90164	0.05259
2730.97299	0.05235
2729.04433	0.05215
2727.11568	0.05196
2725.18703	0.05183
2723.25837	0.05175
2721.32972	0.05174
2719.40107	0.05175
2717.47241	0.05154
2715.54376	0.05109
2713.61511	0.05069
2711.68645	0.05058
2709.75780	0.05067
2707.82915	0.05070
2705.90049	0.05059
2703.97184	0.05033
2702.04319	0.04995
2700.11453	0.04965
2698.18588	0.04953
2696.25723	0.04943
2694.32857	0.04919
2692.39992	0.04895
2690.47127	0.04889
2688.54261	0.04885
2686.61396	0.04878
2684.68531	0.04874
2682.75665	0.04862
2680.82800	0.04846
2678.89935	0.04832
2676.97069	0.04816
2675.04204	0.04803
2673.11339	0.04803
2671.18474	0.04807
2669.25608	0.04801
2667.32743	0.04785
2665.39878	0.04785
2663.47012	0.04812
2661.54147	0.04825
2659.61282	0.04802
2657.68416	0.04769
2655.75551	0.04743
2653.82686	0.04721
2651.89820	0.04700
2649.96955	0.04680
2648.04090	0.04669
2646.11224	0.04657
2644.18359	0.04616
2642.25494	0.04565
2640.32628	0.04543
2638.39763	0.04536
2636.46898	0.04508
2634.54032	0.04473
2632.61167	0.04453
2630.68302	0.04444
2628.75436	0.04426
2626.82571	0.04401
2624.89706	0.04390
2622.96840	0.04378
2621.03975	0.04341
2619.11110	0.04308
2617.18244	0.04298
2615.25379	0.04291
2613.32514	0.04288
2611.39648	0.04287
2609.46783	0.04251
2607.53918	0.04186
2605.61052	0.04135
2603.68187	0.04124
2601.75322	0.04152
2599.82457	0.04180
2597.89591	0.04165
2595.96726	0.04134
2594.03861	0.04128
2592.10995	0.04129
2590.18130	0.04107
2588.25265	0.04062
2586.32399	0.04003
2584.39534	0.03967
2582.46669	0.03980
2580.53803	0.04008
2578.60938	0.04003
2576.68073	0.03966
2574.75207	0.03917
2572.82342	0.03888
2570.89477	0.03900
2568.96611	0.03912
2567.03746	0.03876
2565.10881	0.03834
2563.18015	0.03822
2561.25150	0.03797
2559.32285	0.03764
2557.39419	0.03776
2555.46554	0.03830
2553.53689	0.03868
2551.60823	0.03853
2549.67958	0.03821
2547.75093	0.03798
2545.82227	0.03776
2543.89362	0.03775
2541.96497	0.03794
2540.03631	0.03798
2538.10766	0.03773
2536.17901	0.03726
2534.25036	0.03673
2532.32170	0.03643
2530.39305	0.03641
2528.46440	0.03636
2526.53574	0.03628
2524.60709	0.03628
2522.67844	0.03623
2520.74978	0.03612
2518.82113	0.03610
2516.89248	0.03613
2514.96382	0.03599
2513.03517	0.03579
2511.10652	0.03572
2509.17786	0.03567
2507.24921	0.03559
2505.32056	0.03539
2503.39190	0.03517
2501.46325	0.03518
2499.53460	0.03507
2497.60594	0.03466
2495.67729	0.03463
2493.74864	0.03518
2491.81998	0.03552
2489.89133	0.03525
2487.96268	0.03489
2486.03402	0.03484
2484.10537	0.03498
2482.17672	0.03518
2480.24806	0.03515
2478.31941	0.03473
2476.39076	0.03441
2474.46210	0.03437
2472.53345	0.03422
2470.60480	0.03409
2468.67615	0.03413
2466.74749	0.03413
2464.81884	0.03423
2462.89019	0.03467
2460.96153	0.03498
2459.03288	0.03464
2457.10423	0.03392
2455.17557	0.03337
2453.24692	0.03305
2451.31827	0.03291
2449.38961	0.03305
2447.46096	0.03314
2445.53231	0.03298
2443.60365	0.03269
2441.67500	0.03236
2439.74635	0.03227
2437.81769	0.03253
2435.88904	0.03282
2433.96039	0.03302
2432.03173	0.03320
2430.10308	0.03327
2428.17443	0.03304
2426.24577	0.03259
2424.31712	0.03238
2422.38847	0.03262
2420.45981	0.03278
2418.53116	0.03263
2416.60251	0.03256
2414.67385	0.03270
2412.74520	0.03282
2410.81655	0.03284
2408.88789	0.03272
2406.95924	0.03244
2405.03059	0.03213
2403.10193	0.03201
2401.17328	0.03217
2399.24463	0.03229
2397.31598	0.03212
2395.38732	0.03202
2393.45867	0.03230
2391.53002	0.03262
2389.60136	0.03270
2387.67271	0.03270
2385.74406	0.03269
2383.81540	0.03261
2381.88675	0.03256
2379.95810	0.03265
2378.02944	0.03281
2376.10079	0.03286
2374.17214	0.03276
2372.24348	0.03252
2370.31483	0.03233
2368.38618	0.03239
2366.45752	0.03269
2364.52887	0.03297
2362.60022	0.03302
2360.67156	0.03298
2358.74291	0.03314
2356.81426	0.03339
2354.88560	0.03341
2352.95695	0.03321
2351.02830	0.03300
2349.09964	0.03298
2347.17099	0.03317
2345.24234	0.03338
2343.31368	0.03342
2341.38503	0.03338
2339.45638	0.03336
2337.52772	0.03329
2335.59907	0.03309
2333.67042	0.03290
2331.74177	0.03281
2329.81311	0.03282
2327.88446	0.03303
2325.95581	0.03340
2324.02715	0.03361
2322.09850	0.03361
2320.16985	0.03349
2318.24119	0.03305
2316.31254	0.03233
2314.38389	0.03175
2312.45523	0.03156
2310.52658	0.03158
2308.59793	0.03151
2306.66927	0.03132
2304.74062	0.03111
2302.81197	0.03087
2300.88331	0.03054
2298.95466	0.03025
2297.02601	0.03007
2295.09735	0.02989
2293.16870	0.02966
2291.24005	0.02954
2289.31139	0.02952
2287.38274	0.02927
2285.45409	0.02871
2283.52543	0.02831
2281.59678	0.02835
2279.66813	0.02841
2277.73947	0.02815
2275.81082	0.02783
2273.88217	0.02762
2271.95351	0.02737
2270.02486	0.02698
2268.09621	0.02636
2266.16755	0.02573
2264.23890	0.02581
2262.31025	0.02673
2260.38160	0.02754
2258.45294	0.02738
2256.52429	0.02636
2254.59564	0.02538
2252.66698	0.02486
2250.73833	0.02446
2248.80968	0.02421
2246.88102	0.02425
2244.95237	0.02443
2243.02372	0.02454
2241.09506	0.02433
2239.16641	0.02346
2237.23776	0.02240
2235.30910	0.02235
2233.38045	0.02356
2231.45180	0.02499
2229.52314	0.02556
2227.59449	0.02504
2225.66584	0.02429
2223.73718	0.02409
2221.80853	0.02404
2219.87988	0.02348
2217.95122	0.02255
2216.02257	0.02177
2214.09392	0.02138
2212.16526	0.02108
2210.23661	0.02048
2208.30796	0.02004
2206.37930	0.02010
2204.45065	0.01992
2202.52200	0.01981
2200.59334	0.02035
2198.66469	0.02065
2196.73604	0.02070
2194.80739	0.02088
2192.87873	0.02054
2190.95008	0.01980
2189.02143	0.01912
2187.09277	0.01859
2185.16412	0.01843
2183.23547	0.01830
2181.30681	0.01788
2179.37816	0.01786
2177.44951	0.01864
2175.52085	0.01922
2173.59220	0.01886
2171.66355	0.01800
2169.73489	0.01732
2167.80624	0.01711
2165.87759	0.01642
2163.94893	0.01474
2162.02028	0.01322
2160.09163	0.01235
2158.16297	0.01204
2156.23432	0.01314
2154.30567	0.01506
2152.37701	0.01640
2150.44836	0.01733
2148.51971	0.01780
2146.59105	0.01754
2144.66240	0.01757
2142.73375	0.01843
2140.80509	0.01944
2138.87644	0.02009
2136.94779	0.02018
2135.01913	0.01961
2133.09048	0.01893
2131.16183	0.01903
2129.23318	0.01965
2127.30452	0.02012
2125.37587	0.02082
2123.44722	0.02176
2121.51856	0.02208
2119.58991	0.02179
2117.66126	0.02154
2115.73260	0.02149
2113.80395	0.02171
2111.87530	0.02207
2109.94664	0.02197
2108.01799	0.02143
2106.08934	0.02123
2104.16068	0.02144
2102.23203	0.02138
2100.30338	0.02087
2098.37472	0.02036
2096.44607	0.02039
2094.51742	0.02073
2092.58876	0.02077
2090.66011	0.02054
2088.73146	0.02046
2086.80280	0.02039
2084.87415	0.02030
2082.94550	0.02024
2081.01684	0.01982
2079.08819	0.01889
2077.15954	0.01824
2075.23088	0.01848
2073.30223	0.01902
2071.37358	0.01907
2069.44492	0.01851
2067.51627	0.01774
2065.58762	0.01728
2063.65896	0.01722
2061.73031	0.01735
2059.80166	0.01778
2057.87301	0.01843
2055.94435	0.01878
2054.01570	0.01858
2052.08705	0.01782
2050.15839	0.01640
2048.22974	0.01507
2046.30109	0.01501
2044.37243	0.01563
2042.44378	0.01574
2040.51513	0.01508
2038.58647	0.01381
2036.65782	0.01273
2034.72917	0.01264
2032.80051	0.01320
2030.87186	0.01350
2028.94321	0.01289
2027.01455	0.01185
2025.08590	0.01128
2023.15725	0.01106
2021.22859	0.01116
2019.29994	0.01191
2017.37129	0.01261
2015.44263	0.01285
2013.51398	0.01330
2011.58533	0.01408
2009.65667	0.01405
2007.72802	0.01282
2005.79937	0.01196
2003.87071	0.01255
2001.94206	0.01362
2000.01341	0.01439
1998.08475	0.01530
1996.15610	0.01622
1994.22745	0.01652
1992.29880	0.01635
1990.37014	0.01602
1988.44149	0.01574
1986.51284	0.01574
1984.58418	0.01578
1982.65553	0.01527
1980.72688	0.01431
1978.79822	0.01368
1976.86957	0.01338
1974.94092	0.01264
1973.01226	0.01171
1971.08361	0.01178
1969.15496	0.01293
1967.22630	0.01408
1965.29765	0.01472
1963.36900	0.01485
1961.44034	0.01470
1959.51169	0.01482
1957.58304	0.01516
1955.65438	0.01517
1953.72573	0.01511
1951.79708	0.01555
1949.86842	0.01613
1947.93977	0.01613
1946.01112	0.01588
1944.08246	0.01601
1942.15381	0.01640
1940.22516	0.01685
1938.29650	0.01724
1936.36785	0.01723
1934.43920	0.01697
1932.51054	0.01677
1930.58189	0.01646
1928.65324	0.01619
1926.72458	0.01628
1924.79593	0.01655
1922.86728	0.01695
1920.93863	0.01736
1919.00997	0.01751
1917.08132	0.01754
1915.15267	0.01771
1913.22401	0.01791
1911.29536	0.01798
1909.36671	0.01776
1907.43805	0.01731
1905.50940	0.01690
1903.58075	0.01673
1901.65209	0.01684
1899.72344	0.01704
1897.79479	0.01706
1895.86613	0.01693
1893.93748	0.01679
1892.00883	0.01692
1890.08017	0.01741
1888.15152	0.01775
1886.22287	0.01760
1884.29421	0.01730
1882.36556	0.01708
1880.43691	0.01699
1878.50825	0.01704
1876.57960	0.01706
1874.65095	0.01704
1872.72229	0.01714
1870.79364	0.01720
1868.86499	0.01714
1866.93633	0.01711
1865.00768	0.01718
1863.07903	0.01721
1861.15037	0.01713
1859.22172	0.01705
1857.29307	0.01719
1855.36442	0.01745
1853.43576	0.01743
1851.50711	0.01701
1849.57846	0.01662
1847.64980	0.01648
1845.72115	0.01647
1843.79250	0.01650
1841.86384	0.01656
1839.93519	0.01656
1838.00654	0.01641
1836.07788	0.01632
1834.14923	0.01640
1832.22058	0.01648
1830.29192	0.01651
1828.36327	0.01641
1826.43462	0.01632
1824.50596	0.01630
1822.57731	0.01625
1820.64866	0.01611
1818.72000	0.01598
1816.79135	0.01607
1814.86270	0.01627
1812.93404	0.01628
1811.00539	0.01608
1809.07674	0.01589
1807.14808	0.01585
1805.21943	0.01593
1803.29078	0.01606
1801.36212	0.01611
1799.43347	0.01602
1797.50482	0.01583
1795.57616	0.01572
1793.64751	0.01576
1791.71886	0.01580
1789.79021	0.01576
1787.86155	0.01567
1785.93290	0.01556
1784.00425	0.01551
1782.07559	0.01557
1780.14694	0.01563
1778.21829	0.01549
1776.28963	0.01518
1774.36098	0.01497
1772.43233	0.01499
1770.50367	0.01507
1768.57502	0.01515
1766.64637	0.01511
1764.71771	0.01508
1762.78906	0.01515
1760.86041	0.01510
1758.93175	0.01504
1757.00310	0.01512
1755.07445	0.01511
1753.14579	0.01508
1751.21714	0.01511
1749.28849	0.01517
1747.35983	0.01536
1745.43118	0.01563
1743.50253	0.01590
1741.57387	0.01614
1739.64522	0.01623
1737.71657	0.01615
1735.78791	0.01637
1733.85926	0.01682
1731.93061	0.01700
1730.00195	0.01715
1728.07330	0.01744
1726.14465	0.01784
1724.21599	0.01826
1722.28734	0.01852
1720.35869	0.01874
1718.43004	0.01923
1716.50138	0.01986
1714.57273	0.02058
1712.64408	0.02153
1710.71542	0.02269
1708.78677	0.02411
1706.85812	0.02585
1704.92946	0.02774
1703.00081	0.02982
1701.07216	0.03238
1699.14350	0.03505
1697.21485	0.03799
1695.28620	0.04117
1693.35754	0.04406
1691.42889	0.04700
1689.50024	0.04992
1687.57158	0.05278
1685.64293	0.05598
1683.71428	0.05936
1681.78562	0.06283
1679.85697	0.06666
1677.92832	0.07066
1675.99966	0.07488
1674.07101	0.07924
1672.14236	0.08377
1670.21370	0.08853
1668.28505	0.09320
1666.35640	0.09769
1664.42774	0.10217
1662.49909	0.10655
1660.57044	0.11066
1658.64178	0.11439
1656.71313	0.11754
1654.78448	0.12052
1652.85583	0.12330
1650.92717	0.12540
1648.99852	0.12736
1647.06987	0.12939
1645.14121	0.13116
1643.21256	0.13280
1641.28391	0.13441
1639.35525	0.13580
1637.42660	0.13710
1635.49795	0.13839
1633.56929	0.13926
1631.64064	0.13973
1629.71199	0.13976
1627.78333	0.13906
1625.85468	0.13746
1623.92603	0.13506
1621.99737	0.13186
1620.06872	0.12806
1618.14007	0.12411
1616.21141	0.11996
1614.28276	0.11561
1612.35411	0.11136
1610.42545	0.10720
1608.49680	0.10318
1606.56815	0.09931
1604.63949	0.09559
1602.71084	0.09219
1600.78219	0.08917
1598.85353	0.08642
1596.92488	0.08389
1594.99623	0.08163
1593.06757	0.07978
1591.13892	0.07838
1589.21027	0.07736
1587.28161	0.07661
1585.35296	0.07616
1583.42431	0.07607
1581.49566	0.07634
1579.56700	0.07689
1577.63835	0.07789
1575.70970	0.07927
1573.78104	0.08077
1571.85239	0.08277
1569.92374	0.08521
1567.99508	0.08776
1566.06643	0.09046
1564.13778	0.09323
1562.20912	0.09601
1560.28047	0.09904
1558.35182	0.10192
1556.42316	0.10449
1554.49451	0.10698
1552.56586	0.10908
1550.63720	0.11079
1548.70855	0.11223
1546.77990	0.11344
1544.85124	0.11437
1542.92259	0.11495
1540.99394	0.11541
1539.06528	0.11569
1537.13663	0.11561
1535.20798	0.11540
1533.27932	0.11504
1531.35067	0.11448
1529.42202	0.11391
1527.49336	0.11321
1525.56471	0.11214
1523.63606	0.11091
1521.70740	0.10981
1519.77875	0.10862
1517.85010	0.10739
1515.92145	0.10599
1513.99279	0.10422
1512.06414	0.10212
1510.13549	0.09974
1508.20683	0.09730
1506.27818	0.09468
1504.34953	0.09178
1502.42087	0.08895
1500.49222	0.08615
1498.56357	0.08328
1496.63491	0.08043
1494.70626	0.07752
1492.77761	0.07474
1490.84895	0.07231
1488.92030	0.07007
1486.99165	0.06810
1485.06299	0.06656
1483.13434	0.06551
1481.20569	0.06486
1479.27703	0.06456
1477.34838	0.06464
1475.41973	0.06513
1473.49107	0.06610
1471.56242	0.06730
1469.63377	0.06861
1467.70511	0.07012
1465.77646	0.07176
1463.84781	0.07334
1461.91915	0.07489
1459.99050	0.07655
1458.06185	0.07839
1456.13319	0.08006
1454.20454	0.08141
1452.27589	0.08257
1450.34724	0.08322
1448.41858	0.08329
1446.48993	0.08298
1444.56128	0.08246
1442.63262	0.08176
1440.70397	0.08081
1438.77532	0.07972
1436.84666	0.07850
1434.91801	0.07693
1432.98936	0.07527
1431.06070	0.07384
1429.13205	0.07278
1427.20340	0.07210
1425.27474	0.07169
1423.34609	0.07136
1421.41744	0.07113
1419.48878	0.07102
1417.56013	0.07087
1415.63148	0.07089
1413.70282	0.07118
1411.77417	0.07160
1409.84552	0.07210
1407.91686	0.07270
1405.98821	0.07338
1404.05956	0.07391
1402.13090	0.07416
1400.20225	0.07419
1398.27360	0.07405
1396.34494	0.07375
1394.41629	0.07339
1392.48764	0.07305
1390.55898	0.07277
1388.63033	0.07246
1386.70168	0.07207
1384.77302	0.07164
1382.84437	0.07118
1380.91572	0.07061
1378.98707	0.06997
1377.05841	0.06928
1375.12976	0.06850
1373.20111	0.06756
1371.27245	0.06651
1369.34380	0.06540
1367.41515	0.06422
1365.48649	0.06298
1363.55784	0.06181
1361.62919	0.06083
1359.70053	0.06008
1357.77188	0.05958
1355.84323	0.05939
1353.91457	0.05950
1351.98592	0.05984
1350.05727	0.06038
1348.12861	0.06117
1346.19996	0.06213
1344.27131	0.06307
1342.34265	0.06392
1340.41400	0.06466
1338.48535	0.06523
1336.55669	0.06557
1334.62804	0.06557
1332.69939	0.06515
1330.77073	0.06440
1328.84208	0.06351
1326.91343	0.06261
1324.98477	0.06184
1323.05612	0.06128
1321.12747	0.06092
1319.19881	0.06069
1317.27016	0.06048
1315.34151	0.06020
1313.41286	0.05980
1311.48420	0.05932
1309.55555	0.05878
1307.62690	0.05822
1305.69824	0.05774
1303.76959	0.05739
1301.84094	0.05704
1299.91228	0.05664
1297.98363	0.05629
1296.05498	0.05609
1294.12632	0.05615
1292.19767	0.05653
1290.26902	0.05713
1288.34036	0.05785
1286.41171	0.05860
1284.48306	0.05927
1282.55440	0.05977
1280.62575	0.06009
1278.69710	0.06025
1276.76844	0.06028
1274.83979	0.06024
1272.91114	0.06021
1270.98248	0.06025
1269.05383	0.06043
1267.12518	0.06072
1265.19652	0.06108
1263.26787	0.06150
1261.33922	0.06196
1259.41056	0.06247
1257.48191	0.06316
1255.55326	0.06408
1253.62460	0.06517
1251.69595	0.06628
1249.76730	0.06738
1247.83864	0.06856
1245.90999	0.06978
1243.98134	0.07096
1242.05269	0.07209
1240.12403	0.07310
1238.19538	0.07383
1236.26673	0.07427
1234.33807	0.07446
1232.40942	0.07428
1230.48077	0.07368
1228.55211	0.07275
1226.62346	0.07154
1224.69481	0.07003
1222.76615	0.06833
1220.83750	0.06669
1218.90885	0.06523
1216.98019	0.06402
1215.05154	0.06316
1213.12289	0.06270
1211.19423	0.06255
1209.26558	0.06269
1207.33693	0.06305
1205.40827	0.06339
1203.47962	0.06348
1201.55097	0.06329
1199.62231	0.06284
1197.69366	0.06201
1195.76501	0.06094
1193.83635	0.05982
1191.90770	0.05869
1189.97905	0.05747
1188.05039	0.05625
1186.12174	0.05525
1184.19309	0.05447
1182.26443	0.05385
1180.33578	0.05343
1178.40713	0.05314
1176.47848	0.05288
1174.54982	0.05262
1172.62117	0.05240
1170.69252	0.05227
1168.76386	0.05219
1166.83521	0.05219
1164.90656	0.05232
1162.97790	0.05246
1161.04925	0.05240
1159.12060	0.05205
1157.19194	0.05154
1155.26329	0.05100
1153.33464	0.05034
1151.40598	0.04952
1149.47733	0.04866
1147.54868	0.04784
1145.62002	0.04712
1143.69137	0.04653
1141.76272	0.04604
1139.83406	0.04561
1137.90541	0.04524
1135.97676	0.04490
1134.04810	0.04465
1132.11945	0.04457
1130.19080	0.04461
1128.26214	0.04469
1126.33349	0.04475
1124.40484	0.04475
1122.47618	0.04468
1120.54753	0.04469
1118.61888	0.04484
1116.69022	0.04507
1114.76157	0.04520
1112.83292	0.04522
1110.90427	0.04547
1108.97561	0.04603
1107.04696	0.04652
1105.11831	0.04684
1103.18965	0.04725
1101.26100	0.04785
1099.33235	0.04851
1097.40369	0.04912
1095.47504	0.04969
1093.54639	0.05031
1091.61773	0.05114
1089.68908	0.05220
1087.76043	0.05333
1085.83177	0.05442
1083.90312	0.05546
1081.97447	0.05630
1080.04581	0.05685
1078.11716	0.05711
1076.18851	0.05698
1074.25985	0.05660
1072.33120	0.05630
1070.40255	0.05624
1068.47389	0.05633
1066.54524	0.05641
1064.61659	0.05646
1062.68793	0.05651
1060.75928	0.05658
1058.83063	0.05661
1056.90197	0.05650
1054.97332	0.05625
1053.04467	0.05599
1051.11601	0.05586
1049.18736	0.05576
1047.25871	0.05565
1045.33005	0.05560
1043.40140	0.05566
1041.47275	0.05581
1039.54410	0.05611
1037.61544	0.05662
1035.68679	0.05733
1033.75814	0.05807
1031.82948	0.05859
1029.90083	0.05873
1027.97218	0.05847
1026.04352	0.05793
1024.11487	0.05732
1022.18622	0.05675
1020.25756	0.05617
1018.32891	0.05565
1016.40026	0.05528
1014.47160	0.05499
1012.54295	0.05463
1010.61430	0.05414
1008.68564	0.05354
1006.75699	0.05286
1004.82834	0.05219
1002.89968	0.05160
1000.97103	0.05100
999.04238	0.05037
997.11372	0.04979
995.18507	0.04928
993.25642	0.04878
991.32776	0.04826
989.39911	0.04774
987.47046	0.04719
985.54180	0.04665
983.61315	0.04623
981.68450	0.04593
979.75584	0.04572
977.82719	0.04554
975.89854	0.04539
973.96989	0.04519
972.04123	0.04485
970.11258	0.04439
968.18393	0.04397
966.25527	0.04357
964.32662	0.04311
962.39797	0.04271
960.46931	0.04246
958.54066	0.04229
956.61201	0.04206
954.68335	0.04170
952.75470	0.04132
950.82605	0.04100
948.89739	0.04080
946.96874	0.04068
945.04009	0.04055
943.11143	0.04046
941.18278	0.04046
939.25413	0.04034
937.32547	0.04003
935.39682	0.03975
933.46817	0.03957
931.53951	0.03937
929.61086	0.03914
927.68221	0.03885
925.75355	0.03860
923.82490	0.03848
921.89625	0.03840
919.96759	0.03826
918.03894	0.03808
916.11029	0.03786
914.18163	0.03754
912.25298	0.03716
910.32433	0.03679
908.39567	0.03643
906.46702	0.03607
904.53837	0.03582
902.60972	0.03575
900.68106	0.03568
898.75241	0.03562
896.82376	0.03561
894.89510	0.03543
892.96645	0.03509
891.03780	0.03483
889.10914	0.03473
887.18049	0.03469
885.25184	0.03465
883.32318	0.03472
881.39453	0.03500
879.46588	0.03537
877.53722	0.03564
875.60857	0.03576
873.67992	0.03577
871.75126	0.03558
869.82261	0.03525
867.89396	0.03504
865.96530	0.03498
864.03665	0.03489
862.10800	0.03470
860.17934	0.03445
858.25069	0.03430
856.32204	0.03435
854.39338	0.03447
852.46473	0.03455
850.53608	0.03458
848.60742	0.03454
846.67877	0.03444
844.75012	0.03427
842.82146	0.03405
840.89281	0.03382
838.96416	0.03360
837.03551	0.03347
835.10685	0.03340
833.17820	0.03328
831.24955	0.03321
829.32089	0.03331
827.39224	0.03351
825.46359	0.03361
823.53493	0.03372
821.60628	0.03398
819.67763	0.03423
817.74897	0.03433
815.82032	0.03447
813.89167	0.03472
811.96301	0.03496
810.03436	0.03510
808.10571	0.03516
806.17705	0.03522
804.24840	0.03526
802.31975	0.03532
800.39109	0.03542
798.46244	0.03555
796.53379	0.03576
794.60513	0.03604
792.67648	0.03628
790.74783	0.03650
788.81917	0.03665
786.89052	0.03670
784.96187	0.03680
783.03321	0.03699
781.10456	0.03716
779.17591	0.03731
777.24725	0.03749
775.31860	0.03766
773.38995	0.03784
771.46130	0.03818
769.53264	0.03857
767.60399	0.03885
765.67534	0.03899
763.74668	0.03914
761.81803	0.03928
759.88938	0.03940
757.96072	0.03959
756.03207	0.03997
754.10342	0.04043
752.17476	0.04071
750.24611	0.04086
748.31746	0.04110
746.38880	0.04153
744.46015	0.04207
742.53150	0.04247
740.60284	0.04256
738.67419	0.04258
736.74554	0.04276
734.81688	0.04304
732.88823	0.04329
730.95958	0.04355
729.03092	0.04389
727.10227	0.04421
725.17362	0.04436
723.24496	0.04457
721.31631	0.04499
719.38766	0.04544
717.45900	0.04586
715.53035	0.04622
713.60170	0.04646
711.67304	0.04666
709.74439	0.04689
707.81574	0.04713
705.88708	0.04744
703.95843	0.04786
702.02978	0.04820
700.10113	0.04837
698.17247	0.04854
696.24382	0.04876
694.31517	0.04891
692.38651	0.04896
690.45786	0.04901
688.52921	0.04912
686.60055	0.04932
684.67190	0.04958
682.74325	0.04988
680.81459	0.05021
678.88594	0.05046
676.95729	0.05057
675.02863	0.05067
673.09998	0.05090
671.17133	0.05120
669.24267	0.05145
667.31402	0.05168
665.38537	0.05192
663.45671	0.05214
661.52806	0.05230
659.59941	0.05241
657.67075	0.05252
655.74210	0.05265
653.81345	0.05277
651.88479	0.05289
649.95614	0.05303
648.02749	0.05317
646.09883	0.05330
644.17018	0.05340
642.24153	0.05340
640.31287	0.05330
638.38422	0.05328
636.45557	0.05336
634.52692	0.05350
632.59826	0.05366
630.66961	0.05397
628.74096	0.05467
626.81230	0.05364
624.88365	0.05215
622.95500	0.05215
621.02634	0.05361
619.09769	0.05395
617.16904	0.05421
615.24038	0.05638
613.31173	0.05886
611.38308	0.05934
609.45442	0.05790
607.52577	0.05678
605.59712	0.05735
603.66846	0.05901
601.73981	0.05989
599.81116	0.05934
597.88250	0.05851
595.95385	0.05796
594.02520	0.05749
592.09654	0.05733
590.16789	0.05763
588.23924	0.05797
586.31058	0.05798
584.38193	0.05777
582.45328	0.05773
580.52462	0.05808
578.59597	0.05858
576.66732	0.05888
574.73866	0.05915
572.81001	0.05958
570.88136	0.06002
568.95270	0.06050
567.02405	0.06103
565.09540	0.06153
563.16675	0.06218
561.23809	0.06298
559.30944	0.06353
557.38079	0.06382
555.45213	0.06394
553.52348	0.06378
551.59483	0.06332
549.66617	0.06272
547.73752	0.06223
545.80887	0.06196
543.88021	0.06185
541.95156	0.06177
540.02291	0.06176
538.09425	0.06187
536.16560	0.06199
534.23695	0.06201
532.30829	0.06201
530.37964	0.06192
528.45099	0.06168
526.52233	0.06142
524.59368	0.06113
522.66503	0.06058
520.73637	0.05988
518.80772	0.05945
516.87907	0.05930
514.95041	0.05915
513.02176	0.05887
511.09311	0.05850
509.16445	0.05812
507.23580	0.05781
505.30715	0.05757
503.37849	0.05722
501.44984	0.05682
499.52119	0.05662
497.59254	0.05652
495.66388	0.05624
493.73523	0.05582
491.80658	0.05546
489.87792	0.05509
487.94927	0.05457
486.02062	0.05409
484.09196	0.05376
482.16331	0.05350
480.23466	0.05323
478.30600	0.05304
476.37735	0.05298
474.44870	0.05279
472.52004	0.05235
470.59139	0.05181
468.66274	0.05138
466.73408	0.05109
464.80543	0.05081
462.87678	0.05052
460.94812	0.05022
459.01947	0.04980
457.09082	0.04927
455.16216	0.04882
453.23351	0.04846
451.30486	0.04804
449.37620	0.04757
447.44755	0.04707
445.51890	0.04661
443.59024	0.04637
441.66159	0.04621
439.73294	0.04594
437.80428	0.04570
435.87563	0.04557
433.94698	0.04536
432.01833	0.04507
430.08967	0.04470
428.16102	0.04419
426.23237	0.04362
424.30371	0.04312
422.37506	0.04278
420.44641	0.04258
418.51775	0.04233
416.58910	0.04196
414.66045	0.04160
412.73179	0.04136
410.80314	0.04121
408.87449	0.04108
406.94583	0.04092
405.01718	0.04070
403.08853	0.04043
401.15987	0.04014
399.23122	0.03981
