3997.45528	0.05907
3996.16951	0.05880
3994.88374	0.05887
3993.59798	0.05940
3992.31221	0.06011
3991.02644	0.06052
3989.74067	0.06036
3988.45490	0.05987
3987.16913	0.05942
3985.88336	0.05918
3984.59759	0.05904
3983.31183	0.05897
3982.02606	0.05898
3980.74029	0.05902
3979.45452	0.05896
3978.16875	0.05884
3976.88298	0.05881
3975.59721	0.05894
3974.31144	0.05919
3973.02567	0.05950
3971.73991	0.05987
3970.45414	0.06024
3969.16837	0.06054
3967.88260	0.06078
3966.59683	0.06101
3965.31106	0.06117
3964.02529	0.06113
3962.73952	0.06086
3961.45376	0.06054
3960.16799	0.06032
3958.88222	0.06022
3957.59645	0.06014
3956.31068	0.05999
3955.02491	0.05975
3953.73914	0.05941
3952.45337	0.05902
3951.16760	0.05862
3949.88184	0.05823
3948.59607	0.05786
3947.31030	0.05752
3946.02453	0.05725
3944.73876	0.05710
3943.45299	0.05709
3942.16722	0.05718
3940.88145	0.05736
3939.59569	0.05765
3938.30992	0.05795
3937.02415	0.05804
3935.73838	0.05777
3934.45261	0.05726
3933.16684	0.05686
3931.88107	0.05681
3930.59530	0.05695
3929.30953	0.05694
3928.02377	0.05663
3926.73800	0.05623
3925.45223	0.05605
3924.16646	0.05623
3922.88069	0.05666
3921.59492	0.05719
3920.30915	0.05765
3919.02338	0.05773
3917.73762	0.05717
3916.45185	0.05620
3915.16608	0.05542
3913.88031	0.05522
3912.59454	0.05547
3911.30877	0.05572
3910.02300	0.05568
3908.73723	0.05542
3907.45146	0.05516
3906.16570	0.05505
3904.87993	0.05518
3903.59416	0.05556
3902.30839	0.05610
3901.02262	0.05668
3899.73685	0.05716
3898.45108	0.05734
3897.16531	0.05699
3895.87955	0.05618
3894.59378	0.05529
3893.30801	0.05467
3892.02224	0.05450
3890.73647	0.05478
3889.45070	0.05525
3888.16493	0.05548
3886.87916	0.05537
3885.59339	0.05532
3884.30763	0.05565
3883.02186	0.05618
3881.73609	0.05651
3880.45032	0.05653
3879.16455	0.05640
3877.87878	0.05622
3876.59301	0.05607
3875.30724	0.05603
3874.02148	0.05606
3872.73571	0.05593
3871.44994	0.05558
3870.16417	0.05547
3868.87840	0.05588
3867.59263	0.05630
3866.30686	0.05602
3865.02109	0.05519
3863.73532	0.05464
3862.44956	0.05492
3861.16379	0.05586
3859.87802	0.05684
3858.59225	0.05735
3857.30648	0.05723
3856.02071	0.05658
3854.73494	0.05582
3853.44917	0.05543
3852.16341	0.05549
3850.87764	0.05562
3849.59187	0.05558
3848.30610	0.05546
3847.02033	0.05535
3845.73456	0.05514
3844.44879	0.05472
3843.16302	0.05414
3841.87725	0.05363
3840.59149	0.05341
3839.30572	0.05358
3838.01995	0.05402
3836.73418	0.05445
3835.44841	0.05456
3834.16264	0.05440
3832.87687	0.05422
3831.59110	0.05405
3830.30534	0.05357
3829.01957	0.05264
3827.73380	0.05161
3826.44803	0.05115
3825.16226	0.05161
3823.87649	0.05275
3822.59072	0.05404
3821.30495	0.05509
3820.01918	0.05560
3818.73342	0.05533
3817.44765	0.05448
3816.16188	0.05367
3814.87611	0.05325
3813.59034	0.05291
3812.30457	0.05238
3811.01880	0.05187
3809.73303	0.05167
3808.44726	0.05175
3807.16150	0.05205
3805.87573	0.05249
3804.58996	0.05283
3803.30419	0.05291
3802.01842	0.05293
3800.73265	0.05312
3799.44688	0.05318
3798.16111	0.05263
3796.87535	0.05163
3795.58958	0.05084
3794.30381	0.05074
3793.01804	0.05131
3791.73227	0.05216
3790.44650	0.05271
3789.16073	0.05260
3787.87496	0.05200
3786.58919	0.05141
3785.30343	0.05118
3784.01766	0.05132
3782.73189	0.05163
3781.44612	0.05187
3780.16035	0.05193
3778.87458	0.05174
3777.58881	0.05128
3776.30304	0.05069
3775.01728	0.05032
3773.73151	0.05041
3772.44574	0.05086
3771.15997	0.05134
3769.87420	0.05157
3768.58843	0.05143
3767.30266	0.05094
3766.01689	0.05035
3764.73112	0.04997
3763.44536	0.04985
3762.15959	0.04969
3760.87382	0.04933
3759.58805	0.04891
3758.30228	0.04868
3757.01651	0.04875
3755.73074	0.04906
3754.44497	0.04941
3753.15921	0.04965
3751.87344	0.04979
3750.58767	0.04998
3749.30190	0.05045
3748.01613	0.05114
3746.73036	0.05152
3745.44459	0.05132
3744.15882	0.05098
3742.87305	0.05092
3741.58729	0.05095
3740.30152	0.05084
3739.01575	0.05059
3737.72998	0.05021
3736.44421	0.04967
3735.15844	0.04901
3733.87267	0.04826
3732.58690	0.04766
3731.30114	0.04761
3730.01537	0.04813
3728.72960	0.04877
3727.44383	0.04908
3726.15806	0.04896
3724.87229	0.04856
3723.58652	0.04807
3722.30075	0.04758
3721.01498	0.04713
3719.72922	0.04675
3718.44345	0.04648
3717.15768	0.04628
3715.87191	0.04602
3714.58614	0.04565
3713.30037	0.04536
3712.01460	0.04538
3710.72883	0.04575
3709.44307	0.04622
3708.15730	0.04663
3706.87153	0.04698
3705.58576	0.04728
3704.29999	0.04747
3703.01422	0.04745
3701.72845	0.04729
3700.44268	0.04709
3699.15691	0.04695
3697.87115	0.04699
3696.58538	0.04736
3695.29961	0.04797
3694.01384	0.04841
3692.72807	0.04835
3691.44230	0.04779
3690.15653	0.04705
3688.87076	0.04666
3687.58500	0.04675
3686.29923	0.04690
3685.01346	0.04673
3683.72769	0.04642
3682.44192	0.04636
3681.15615	0.04662
3679.87038	0.04698
3678.58461	0.04713
3677.29884	0.04704
3676.01308	0.04704
3674.72731	0.04748
3673.44154	0.04813
3672.15577	0.04854
3670.87000	0.04879
3669.58423	0.04932
3668.29846	0.05007
3667.01269	0.05051
3665.72693	0.05040
3664.44116	0.04993
3663.15539	0.04951
3661.86962	0.04943
3660.58385	0.04974
3659.29808	0.05023
3658.01231	0.05044
3656.72654	0.05012
3655.44077	0.04955
3654.15501	0.04926
3652.86924	0.04956
3651.58347	0.05033
3650.29770	0.05117
3649.01193	0.05175
3647.72616	0.05211
3646.44039	0.05244
3645.15462	0.05277
3643.86886	0.05291
3642.58309	0.05283
3641.29732	0.05275
3640.01155	0.05294
3638.72578	0.05349
3637.44001	0.05429
3636.15424	0.05514
3634.86847	0.05579
3633.58270	0.05603
3632.29694	0.05575
3631.01117	0.05508
3629.72540	0.05459
3628.43963	0.05490
3627.15386	0.05597
3625.86809	0.05719
3624.58232	0.05808
3623.29655	0.05863
3622.01079	0.05899
3620.72502	0.05920
3619.43925	0.05926
3618.15348	0.05919
3616.86771	0.05907
3615.58194	0.05907
3614.29617	0.05935
3613.01040	0.05995
3611.72463	0.06079
3610.43887	0.06179
3609.15310	0.06292
3607.86733	0.06413
3606.58156	0.06523
3605.29579	0.06599
3604.01002	0.06634
3602.72425	0.06635
3601.43848	0.06623
3600.15272	0.06619
3598.86695	0.06641
3597.58118	0.06693
3596.29541	0.06763
3595.00964	0.06826
3593.72387	0.06867
3592.43810	0.06900
3591.15233	0.06949
3589.86656	0.07017
3588.58080	0.07087
3587.29503	0.07143
3586.00926	0.07183
3584.72349	0.07219
3583.43772	0.07257
3582.15195	0.07297
3580.86618	0.07335
3579.58041	0.07377
3578.29464	0.07437
3577.00888	0.07521
3575.72311	0.07622
3574.43734	0.07721
3573.15157	0.07800
3571.86580	0.07862
3570.58003	0.07919
3569.29426	0.07974
3568.00849	0.08027
3566.72273	0.08079
3565.43696	0.08138
3564.15119	0.08193
3562.86542	0.08221
3561.57965	0.08212
3560.29388	0.08197
3559.00811	0.08220
3557.72234	0.08304
3556.43657	0.08426
3555.15081	0.08538
3553.86504	0.08612
3552.57927	0.08660
3551.29350	0.08718
3550.00773	0.08805
3548.72196	0.08907
3547.43619	0.08993
3546.15042	0.09047
3544.86466	0.09078
3543.57889	0.09107
3542.29312	0.09152
3541.00735	0.09212
3539.72158	0.09276
3538.43581	0.09333
3537.15004	0.09380
3535.86427	0.09424
3534.57850	0.09477
3533.29274	0.09551
3532.00697	0.09645
3530.72120	0.09741
3529.43543	0.09821
3528.14966	0.09880
3526.86389	0.09933
3525.57812	0.09988
3524.29235	0.10045
3523.00659	0.10106
3521.72082	0.10178
3520.43505	0.10259
3519.14928	0.10338
3517.86351	0.10410
3516.57774	0.10476
3515.29197	0.10531
3514.00620	0.10557
3512.72043	0.10542
3511.43467	0.10506
3510.14890	0.10485
3508.86313	0.10502
3507.57736	0.10559
3506.29159	0.10640
3505.00582	0.10733
3503.72005	0.10834
3502.43428	0.10938
3501.14852	0.11033
3499.86275	0.11107
3498.57698	0.11160
3497.29121	0.11204
3496.00544	0.11255
3494.71967	0.11323
3493.43390	0.11404
3492.14813	0.11481
3490.86236	0.11540
3489.57660	0.11574
3488.29083	0.11588
3487.00506	0.11590
3485.71929	0.11593
3484.43352	0.11617
3483.14775	0.11680
3481.86198	0.11773
3480.57621	0.11864
3479.29045	0.11916
3478.00468	0.11921
3476.71891	0.11912
3475.43314	0.11927
3474.14737	0.11980
3472.86160	0.12046
3471.57583	0.12096
3470.29006	0.12126
3469.00429	0.12146
3467.71853	0.12175
3466.43276	0.12214
3465.14699	0.12254
3463.86122	0.12285
3462.57545	0.12313
3461.28968	0.12349
3460.00391	0.12403
3458.71814	0.12466
3457.43238	0.12524
3456.14661	0.12563
3454.86084	0.12584
3453.57507	0.12602
3452.28930	0.12635
3451.00353	0.12693
3449.71776	0.12765
3448.43199	0.12831
3447.14622	0.12876
3445.86046	0.12900
3444.57469	0.12916
3443.28892	0.12943
3442.00315	0.12993
3440.71738	0.13059
3439.43161	0.13127
3438.14584	0.13186
3436.86007	0.13239
3435.57431	0.13296
3434.28854	0.13355
3433.00277	0.13401
3431.71700	0.13426
3430.43123	0.13433
3429.14546	0.13439
3427.85969	0.13462
3426.57392	0.13513
3425.28815	0.13583
3424.00239	0.13650
3422.71662	0.13699
3421.43085	0.13734
3420.14508	0.13771
3418.85931	0.13815
3417.57354	0.13859
3416.28777	0.13901
3415.00200	0.13948
3413.71624	0.14007
3412.43047	0.14085
3411.14470	0.14177
3409.85893	0.14271
3408.57316	0.14350
3407.28739	0.14407
3406.00162	0.14451
3404.71585	0.14500
3403.43008	0.14557
3402.14432	0.14603
3400.85855	0.14618
3399.57278	0.14599
3398.28701	0.14559
3397.00124	0.14533
3395.71547	0.14545
3394.42970	0.14595
3393.14393	0.14663
3391.85817	0.14730
3390.57240	0.14783
3389.28663	0.14818
3388.00086	0.14837
3386.71509	0.14855
3385.42932	0.14892
3384.14355	0.14964
3382.85778	0.15068
3381.57201	0.15182
3380.28625	0.15285
3379.00048	0.15364
3377.71471	0.15412
3376.42894	0.15437
3375.14317	0.15460
3373.85740	0.15502
3372.57163	0.15572
3371.28586	0.15660
3370.00010	0.15746
3368.71433	0.15828
3367.42856	0.15921
3366.14279	0.16039
3364.85702	0.16164
3363.57125	0.16265
3362.28548	0.16325
3360.99971	0.16365
3359.71394	0.16425
3358.42818	0.16527
3357.14241	0.16656
3355.85664	0.16777
3354.57087	0.16871
3353.28510	0.16943
3351.99933	0.17007
3350.71356	0.17074
3349.42779	0.17148
3348.14202	0.17229
3346.85626	0.17315
3345.57049	0.17404
3344.28472	0.17495
3342.99895	0.17594
3341.71318	0.17710
3340.42741	0.17845
3339.14164	0.17985
3337.85587	0.18104
3336.57011	0.18186
3335.28434	0.18243
3333.99857	0.18298
3332.71280	0.18360
3331.42703	0.18413
3330.14126	0.18446
3328.85549	0.18466
3327.56972	0.18498
3326.28395	0.18553
3324.99819	0.18628
3323.71242	0.18707
3322.42665	0.18776
3321.14088	0.18824
3319.85511	0.18857
3318.56934	0.18891
3317.28357	0.18943
3315.99780	0.19010
3314.71204	0.19080
3313.42627	0.19152
3312.14050	0.19236
3310.85473	0.19337
3309.56896	0.19435
3308.28319	0.19510
3306.99742	0.19553
3305.71165	0.19574
3304.42588	0.19580
3303.14012	0.19568
3301.85435	0.19540
3300.56858	0.19510
3299.28281	0.19500
3297.99704	0.19518
3296.71127	0.19555
3295.42550	0.19597
3294.13973	0.19635
3292.85397	0.19674
3291.56820	0.19705
3290.28243	0.19710
3288.99666	0.19675
3287.71089	0.19618
3286.42512	0.19575
3285.13935	0.19568
3283.85358	0.19584
3282.56781	0.19594
3281.28205	0.19580
3279.99628	0.19545
3278.71051	0.19510
3277.42474	0.19498
3276.13897	0.19516
3274.85320	0.19535
3273.56743	0.19513
3272.28166	0.19438
3270.99590	0.19338
3269.71013	0.19257
3268.42436	0.19210
3267.13859	0.19184
3265.85282	0.19156
3264.56705	0.19108
3263.28128	0.19043
3261.99551	0.18971
3260.70974	0.18898
3259.42398	0.18822
3258.13821	0.18741
3256.85244	0.18664
3255.56667	0.18605
3254.28090	0.18564
3252.99513	0.18524
3251.70936	0.18475
3250.42359	0.18426
3249.13783	0.18398
3247.85206	0.18395
3246.56629	0.18392
3245.28052	0.18361
3243.99475	0.18287
3242.70898	0.18186
3241.42321	0.18091
3240.13744	0.18030
3238.85167	0.18009
3237.56591	0.18013
3236.28014	0.18010
3234.99437	0.17980
3233.70860	0.17921
3232.42283	0.17849
3231.13706	0.17780
3229.85129	0.17727
3228.56552	0.17687
3227.27976	0.17640
3225.99399	0.17567
3224.70822	0.17472
3223.42245	0.17390
3222.13668	0.17349
3220.85091	0.17342
3219.56514	0.17341
3218.27937	0.17332
3216.99360	0.17320
3215.70784	0.17308
3214.42207	0.17293
3213.13630	0.17271
3211.85053	0.17234
3210.56476	0.17174
3209.27899	0.17098
3207.99322	0.17034
3206.70745	0.17010
3205.42169	0.17026
3204.13592	0.17056
3202.85015	0.17068
3201.56438	0.17043
3200.27861	0.16979
3198.99284	0.16882
3197.70707	0.16765
3196.42130	0.16653
3195.13553	0.16567
3193.84977	0.16513
3192.56400	0.16478
3191.27823	0.16440
3189.99246	0.16384
3188.70669	0.16315
3187.42092	0.16245
3186.13515	0.16178
3184.84938	0.16109
3183.56362	0.16031
3182.27785	0.15950
3180.99208	0.15881
3179.70631	0.15829
3178.42054	0.15776
3177.13477	0.15697
3175.84900	0.15588
3174.56323	0.15471
3173.27746	0.15377
3171.99170	0.15327
3170.70593	0.15317
3169.42016	0.15318
3168.13439	0.15295
3166.84862	0.15229
3165.56285	0.15133
3164.27708	0.15040
3162.99131	0.14976
3161.70555	0.14938
3160.41978	0.14900
3159.13401	0.14839
3157.84824	0.14757
3156.56247	0.14675
3155.27670	0.14609
3153.99093	0.14552
3152.70516	0.14485
3151.41939	0.14401
3150.13363	0.14310
3148.84786	0.14223
3147.56209	0.14138
3146.27632	0.14050
3144.99055	0.13961
3143.70478	0.13879
3142.41901	0.13803
3141.13324	0.13732
3139.84748	0.13673
3138.56171	0.13643
3137.27594	0.13637
3135.99017	0.13628
3134.70440	0.13599
3133.41863	0.13553
3132.13286	0.13507
3130.84709	0.13462
3129.56132	0.13412
3128.27556	0.13352
3126.98979	0.13287
3125.70402	0.13229
3124.41825	0.13190
3123.13248	0.13178
3121.84671	0.13179
3120.56094	0.13166
3119.27517	0.13130
3117.98940	0.13086
3116.70364	0.13054
3115.41787	0.13045
3114.13210	0.13051
3112.84633	0.13066
3111.56056	0.13084
3110.27479	0.13096
3108.98902	0.13094
3107.70325	0.13075
3106.41749	0.13048
3105.13172	0.13036
3103.84595	0.13054
3102.56018	0.13094
3101.27441	0.13132
3099.98864	0.13155
3098.70287	0.13169
3097.41710	0.13191
3096.13133	0.13225
3094.84557	0.13261
3093.55980	0.13286
3092.27403	0.13296
3090.98826	0.13293
3089.70249	0.13290
3088.41672	0.13298
3087.13095	0.13318
3085.84518	0.13345
3084.55942	0.13370
3083.27365	0.13392
3081.98788	0.13415
3080.70211	0.13441
3079.41634	0.13461
3078.13057	0.13467
3076.84480	0.13461
3075.55903	0.13457
3074.27326	0.13466
3072.98750	0.13477
3071.70173	0.13468
3070.41596	0.13435
3069.13019	0.13398
3067.84442	0.13381
3066.55865	0.13383
3065.27288	0.13385
3063.98711	0.13363
3062.70135	0.13309
3061.41558	0.13228
3060.12981	0.13134
3058.84404	0.13041
3057.55827	0.12960
3056.27250	0.12901
3054.98673	0.12872
3053.70096	0.12872
3052.41519	0.12893
3051.12943	0.12909
3049.84366	0.12893
3048.55789	0.12827
3047.27212	0.12721
3045.98635	0.12609
3044.70058	0.12524
3043.41481	0.12471
3042.12904	0.12438
3040.84328	0.12409
3039.55751	0.12370
3038.27174	0.12314
3036.98597	0.12239
3035.70020	0.12150
3034.41443	0.12058
3033.12866	0.11972
3031.84289	0.11897
3030.55712	0.11840
3029.27136	0.11802
3027.98559	0.11779
3026.69982	0.11762
3025.41405	0.11741
3024.12828	0.11710
3022.84251	0.11665
3021.55674	0.11604
3020.27097	0.11531
3018.98521	0.11450
3017.69944	0.11368
3016.41367	0.11295
3015.12790	0.11241
3013.84213	0.11205
3012.55636	0.11176
3011.27059	0.11145
3009.98482	0.11113
3008.69905	0.11089
3007.41329	0.11077
3006.12752	0.11064
3004.84175	0.11037
3003.55598	0.11001
3002.27021	0.10982
3000.98444	0.11001
2999.69867	0.11053
2998.41290	0.11107
2997.12714	0.11139
2995.84137	0.11150
2994.55560	0.11160
2993.26983	0.11188
2991.98406	0.11230
2990.69829	0.11263
2989.41252	0.11273
2988.12675	0.11276
2986.84098	0.11301
2985.55522	0.11358
2984.26945	0.11435
2982.98368	0.11510
2981.69791	0.11574
2980.41214	0.11624
2979.12637	0.11664
2977.84060	0.11700
2976.55483	0.11742
2975.26907	0.11790
2973.98330	0.11839
2972.69753	0.11880
2971.41176	0.11910
2970.12599	0.11939
2968.84022	0.11974
2967.55445	0.12020
2966.26868	0.12075
2964.98291	0.12136
2963.69715	0.12191
2962.41138	0.12230
2961.12561	0.12256
2959.83984	0.12282
2958.55407	0.12315
2957.26830	0.12344
2955.98253	0.12357
2954.69676	0.12357
2953.41100	0.12356
2952.12523	0.12361
2950.83946	0.12367
2949.55369	0.12377
2948.26792	0.12397
2946.98215	0.12424
2945.69638	0.12445
2944.41061	0.12449
2943.12484	0.12441
2941.83908	0.12425
2940.55331	0.12405
2939.26754	0.12395
2937.98177	0.12406
2936.69600	0.12432
2935.41023	0.12453
2934.12446	0.12457
2932.83869	0.12449
2931.55293	0.12441
2930.26716	0.12438
2928.98139	0.12436
2927.69562	0.12433
2926.40985	0.12427
2925.12408	0.12415
2923.83831	0.12389
2922.55254	0.12340
2921.26677	0.12267
2919.98101	0.12183
2918.69524	0.12103
2917.40947	0.12033
2916.12370	0.11971
2914.83793	0.11909
2913.55216	0.11840
2912.26639	0.11763
2910.98062	0.11690
2909.69486	0.11629
2908.40909	0.11574
2907.12332	0.11515
2905.83755	0.11444
2904.55178	0.11365
2903.26601	0.11286
2901.98024	0.11214
2900.69447	0.11154
2899.40870	0.11102
2898.12294	0.11055
2896.83717	0.11017
2895.55140	0.10993
2894.26563	0.10976
2892.97986	0.10956
2891.69409	0.10931
2890.40832	0.10904
2889.12255	0.10875
2887.83678	0.10847
2886.55102	0.10829
2885.26525	0.10833
2883.97948	0.10855
2882.69371	0.10875
2881.40794	0.10881
2880.12217	0.10879
2878.83640	0.10886
2877.55063	0.10906
2876.26487	0.10927
2874.97910	0.10926
2873.69333	0.10893
2872.40756	0.10840
2871.12179	0.10776
2869.83602	0.10708
2868.55025	0.10636
2867.26448	0.10563
2865.97871	0.10497
2864.69295	0.10438
2863.40718	0.10382
2862.12141	0.10329
2860.83564	0.10278
2859.54987	0.10230
2858.26410	0.10183
2856.97833	0.10138
2855.69256	0.10097
2854.40680	0.10058
2853.12103	0.10014
2851.83526	0.09963
2850.54949	0.09910
2849.26372	0.09860
2847.97795	0.09811
2846.69218	0.09758
2845.40641	0.09704
2844.12064	0.09655
2842.83488	0.09612
2841.54911	0.09568
2840.26334	0.09522
2838.97757	0.09476
2837.69180	0.09431
2836.40603	0.09384
2835.12026	0.09331
2833.83449	0.09273
2832.54873	0.09219
2831.26296	0.09180
2829.97719	0.09166
2828.69142	0.09178
2827.40565	0.09198
2826.11988	0.09201
2824.83411	0.09173
2823.54834	0.09124
2822.26257	0.09069
2820.97681	0.09018
2819.69104	0.08974
2818.40527	0.08942
2817.11950	0.08919
2815.83373	0.08899
2814.54796	0.08875
2813.26219	0.08852
2811.97642	0.08835
2810.69066	0.08816
2809.40489	0.08787
2808.11912	0.08751
2806.83335	0.08721
2805.54758	0.08710
2804.26181	0.08713
2802.97604	0.08713
2801.69027	0.08698
2800.40450	0.08669
2799.11874	0.08633
2797.83297	0.08594
2796.54720	0.08554
2795.26143	0.08513
2793.97566	0.08476
2792.68989	0.08444
2791.40412	0.08419
2790.11835	0.08397
2788.83259	0.08374
2787.54682	0.08348
2786.26105	0.08326
2784.97528	0.08316
2783.68951	0.08319
2782.40374	0.08323
2781.11797	0.08317
2779.83220	0.08295
2778.54643	0.08261
2777.26067	0.08230
2775.97490	0.08213
2774.68913	0.08209
2773.40336	0.08208
2772.11759	0.08198
2770.83182	0.08178
2769.54605	0.08149
2768.26028	0.08120
2766.97452	0.08092
2765.68875	0.08064
2764.40298	0.08029
2763.11721	0.07994
2761.83144	0.07972
2760.54567	0.07974
2759.25990	0.07993
2757.97413	0.08010
2756.68836	0.08015
2755.40260	0.08007
2754.11683	0.07988
2752.83106	0.07958
2751.54529	0.07920
2750.25952	0.07880
2748.97375	0.07847
2747.68798	0.07821
2746.40221	0.07798
2745.11645	0.07775
2743.83068	0.07760
2742.54491	0.07756
2741.25914	0.07755
2739.97337	0.07739
2738.68760	0.07704
2737.40183	0.07660
2736.11606	0.07621
2734.83029	0.07594
2733.54453	0.07578
2732.25876	0.07569
2730.97299	0.07565
2729.68722	0.07561
2728.40145	0.07554
2727.11568	0.07545
2725.82991	0.07530
2724.54414	0.07508
2723.25838	0.07477
2721.97261	0.07444
2720.68684	0.07414
2719.40107	0.07390
2718.11530	0.07371
2716.82953	0.07357
2715.54376	0.07351
2714.25799	0.07351
2712.97222	0.07351
2711.68646	0.07346
2710.40069	0.07334
2709.11492	0.07319
2707.82915	0.07298
2706.54338	0.07271
2705.25761	0.07242
2703.97184	0.07216
2702.68607	0.07198
2701.40031	0.07185
2700.11454	0.07177
2698.82877	0.07168
2697.54300	0.07149
2696.25723	0.07114
2694.97146	0.07073
2693.68569	0.07047
2692.39992	0.07046
2691.11415	0.07061
2689.82839	0.07075
2688.54262	0.07079
2687.25685	0.07075
2685.97108	0.07067
2684.68531	0.07055
2683.39954	0.07036
2682.11377	0.07018
2680.82800	0.07009
2679.54224	0.07013
2678.25647	0.07021
2676.97070	0.07025
2675.68493	0.07023
2674.39916	0.07016
2673.11339	0.07008
2671.82762	0.06994
2670.54185	0.06972
2669.25608	0.06948
2667.97032	0.06927
2666.68455	0.06916
2665.39878	0.06916
2664.11301	0.06927
2662.82724	0.06945
2661.54147	0.06959
2660.25570	0.06957
2658.96993	0.06931
2657.68417	0.06893
2656.39840	0.06856
2655.11263	0.06826
2653.82686	0.06800
2652.54109	0.06775
2651.25532	0.06755
2649.96955	0.06741
2648.68378	0.06721
2647.39801	0.06687
2646.11225	0.06644
2644.82648	0.06605
2643.54071	0.06573
2642.25494	0.06540
2640.96917	0.06498
2639.68340	0.06449
2638.39763	0.06401
2637.11186	0.06363
2635.82609	0.06340
2634.54033	0.06332
2633.25456	0.06336
2631.96879	0.06343
2630.68302	0.06345
2629.39725	0.06339
2628.11148	0.06327
2626.82571	0.06311
2625.53994	0.06294
2624.25418	0.06276
2622.96841	0.06253
2621.68264	0.06222
2620.39687	0.06185
2619.11110	0.06151
2617.82533	0.06125
2616.53956	0.06102
2615.25379	0.06074
2613.96802	0.06041
2612.68226	0.06015
2611.39649	0.06006
2610.11072	0.06006
2608.82495	0.05998
2607.53918	0.05976
2606.25341	0.05952
2604.96764	0.05935
2603.68187	0.05921
2602.39611	0.05900
2601.11034	0.05875
2599.82457	0.05855
2598.53880	0.05843
2597.25303	0.05837
2595.96726	0.05837
2594.68149	0.05839
2593.39572	0.05836
2592.10995	0.05825
2590.82419	0.05812
2589.53842	0.05803
2588.25265	0.05790
2586.96688	0.05762
2585.68111	0.05718
2584.39534	0.05675
2583.10957	0.05647
2581.82380	0.05638
2580.53804	0.05639
2579.25227	0.05641
2577.96650	0.05643
2576.68073	0.05646
2575.39496	0.05639
2574.10919	0.05609
2572.82342	0.05558
2571.53765	0.05509
2570.25188	0.05482
2568.96612	0.05477
2567.68035	0.05479
2566.39458	0.05474
2565.10881	0.05458
2563.82304	0.05432
2562.53727	0.05405
2561.25150	0.05388
2559.96573	0.05378
2558.67997	0.05357
2557.39420	0.05316
2556.10843	0.05267
2554.82266	0.05230
2553.53689	0.05215
2552.25112	0.05218
2550.96535	0.05229
2549.67958	0.05238
2548.39381	0.05240
2547.10805	0.05236
2545.82228	0.05231
2544.53651	0.05226
2543.25074	0.05217
2541.96497	0.05195
2540.67920	0.05158
2539.39343	0.05117
2538.10766	0.05087
2536.82190	0.05078
2535.53613	0.05084
2534.25036	0.05093
2532.96459	0.05095
2531.67882	0.05088
2530.39305	0.05079
2529.10728	0.05073
2527.82151	0.05071
2526.53574	0.05078
2525.24998	0.05099
2523.96421	0.05121
2522.67844	0.05123
2521.39267	0.05097
2520.10690	0.05063
2518.82113	0.05046
2517.53536	0.05042
2516.24959	0.05044
2514.96383	0.05054
2513.67806	0.05075
2512.39229	0.05087
2511.10652	0.05067
2509.82075	0.05013
2508.53498	0.04952
2507.24921	0.04913
2505.96344	0.04909
2504.67767	0.04927
2503.39191	0.04948
2502.10614	0.04959
2500.82037	0.04960
2499.53460	0.04954
2498.24883	0.04938
2496.96306	0.04907
2495.67729	0.04867
2494.39152	0.04834
2493.10576	0.04820
2491.81999	0.04825
2490.53422	0.04842
2489.24845	0.04857
2487.96268	0.04855
2486.67691	0.04829
2485.39114	0.04788
2484.10537	0.04753
2482.81960	0.04740
2481.53384	0.04742
2480.24807	0.04744
2478.96230	0.04737
2477.67653	0.04726
2476.39076	0.04722
2475.10499	0.04727
2473.81922	0.04736
2472.53345	0.04752
2471.24769	0.04778
2469.96192	0.04801
2468.67615	0.04801
2467.39038	0.04777
2466.10461	0.04748
2464.81884	0.04743
2463.53307	0.04767
2462.24730	0.04803
2460.96153	0.04824
2459.67577	0.04814
2458.39000	0.04780
2457.10423	0.04743
2455.81846	0.04727
2454.53269	0.04739
2453.24692	0.04769
2451.96115	0.04796
2450.67538	0.04805
2449.38962	0.04797
2448.10385	0.04779
2446.81808	0.04752
2445.53231	0.04711
2444.24654	0.04660
2442.96077	0.04615
2441.67500	0.04590
2440.38923	0.04590
2439.10346	0.04606
2437.81770	0.04621
2436.53193	0.04622
2435.24616	0.04614
2433.96039	0.04606
2432.67462	0.04597
2431.38885	0.04582
2430.10308	0.04565
2428.81731	0.04560
2427.53155	0.04571
2426.24578	0.04582
2424.96001	0.04577
2423.67424	0.04563
2422.38847	0.04560
2421.10270	0.04571
2419.81693	0.04579
2418.53116	0.04569
2417.24539	0.04546
2415.95963	0.04525
2414.67386	0.04517
2413.38809	0.04518
2412.10232	0.04520
2410.81655	0.04517
2409.53078	0.04504
2408.24501	0.04480
2406.95924	0.04451
2405.67347	0.04429
2404.38771	0.04426
2403.10194	0.04442
2401.81617	0.04473
2400.53040	0.04507
2399.24463	0.04522
2397.95886	0.04524
2396.67309	0.04513
2395.38732	0.04498
2394.10156	0.04489
2392.81579	0.04489
2391.53002	0.04496
2390.24425	0.04508
2388.95848	0.04522
2387.67271	0.04528
2386.38694	0.04524
2385.10117	0.04518
2383.81540	0.04520
2382.52964	0.04529
2381.24387	0.04529
2379.95810	0.04514
2378.67233	0.04491
2377.38656	0.04479
2376.10079	0.04488
2374.81502	0.04509
2373.52925	0.04533
2372.24349	0.04554
2370.95772	0.04574
2369.67195	0.04588
2368.38618	0.04597
2367.10041	0.04602
2365.81464	0.04610
2364.52887	0.04613
2363.24310	0.04613
2361.95733	0.04620
2360.67157	0.04644
2359.38580	0.04663
2358.10003	0.04663
2356.81426	0.04645
2355.52849	0.04620
2354.24272	0.04598
2352.95695	0.04583
2351.67118	0.04578
2350.38542	0.04581
2349.09965	0.04585
2347.81388	0.04593
2346.52811	0.04621
2345.24234	0.04641
2343.95657	0.04611
2342.67080	0.04553
2341.38503	0.04541
2340.09926	0.04581
2338.81350	0.04584
2337.52773	0.04538
2336.24196	0.04545
2334.95619	0.04595
2333.67042	0.04581
2332.38465	0.04523
2331.09888	0.04535
2329.81311	0.04559
2328.52735	0.04534
2327.24158	0.04583
2325.95581	0.04670
2324.67004	0.04683
2323.38427	0.04686
2322.09850	0.04699
2320.81273	0.04650
2319.52696	0.04609
2318.24119	0.04580
2316.95543	0.04523
2315.66966	0.04492
2314.38389	0.04473
2313.09812	0.04424
2311.81235	0.04369
2310.52658	0.04305
2309.24081	0.04256
2307.95504	0.04240
2306.66928	0.04232
2305.38351	0.04235
2304.09774	0.04245
2302.81197	0.04258
2301.52620	0.04267
2300.24043	0.04251
2298.95466	0.04214
2297.66889	0.04172
2296.38312	0.04143
2295.09736	0.04128
2293.81159	0.04113
2292.52582	0.04087
2291.24005	0.04050
2289.95428	0.04016
2288.66851	0.03993
2287.38274	0.03982
2286.09697	0.03972
2284.81121	0.03951
2283.52544	0.03914
2282.23967	0.03868
2280.95390	0.03832
2279.66813	0.03818
2278.38236	0.03823
2277.09659	0.03832
2275.81082	0.03824
2274.52505	0.03779
2273.23929	0.03700
2271.95352	0.03609
2270.66775	0.03536
2269.38198	0.03489
2268.09621	0.03453
2266.81044	0.03415
2265.52467	0.03384
2264.23890	0.03373
2262.95314	0.03391
2261.66737	0.03426
2260.38160	0.03455
2259.09583	0.03465
2257.81006	0.03462
2256.52429	0.03459
2255.23852	0.03459
2253.95275	0.03452
2252.66698	0.03426
2251.38122	0.03376
2250.09545	0.03316
2248.80968	0.03276
2247.52391	0.03260
2246.23814	0.03301
2244.95237	0.03367
2243.66660	0.03407
2242.38083	0.03404
2241.09507	0.03393
2239.80930	0.03418
2238.52353	0.03477
2237.23776	0.03514
2235.95199	0.03490
2234.66622	0.03424
2233.38045	0.03369
2232.09468	0.03348
2230.80891	0.03341
2229.52315	0.03315
2228.23738	0.03261
2226.95161	0.03189
2225.66584	0.03116
2224.38007	0.03052
2223.09430	0.03004
2221.80853	0.02977
2220.52276	0.02974
2219.23700	0.02988
2217.95123	0.03000
2216.66546	0.02997
2215.37969	0.02980
2214.09392	0.02966
2212.80815	0.02972
2211.52238	0.02996
2210.23661	0.03012
2208.95084	0.02988
2207.66508	0.02922
2206.37931	0.02852
2205.09354	0.02826
2203.80777	0.02847
2202.52200	0.02874
2201.23623	0.02857
2199.95046	0.02788
2198.66469	0.02705
2197.37893	0.02649
2196.09316	0.02629
2194.80739	0.02634
2193.52162	0.02656
2192.23585	0.02687
2190.95008	0.02692
2189.66431	0.02626
2188.37854	0.02508
2187.09277	0.02415
2185.80701	0.02410
2184.52124	0.02468
2183.23547	0.02513
2181.94970	0.02504
2180.66393	0.02462
2179.37816	0.02419
2178.09239	0.02373
2176.80662	0.02308
2175.52085	0.02228
2174.23509	0.02165
2172.94932	0.02145
2171.66355	0.02155
2170.37778	0.02149
2169.09201	0.02086
2167.80624	0.01969
2166.52047	0.01833
2165.23470	0.01715
2163.94894	0.01642
2162.66317	0.01627
2161.37740	0.01657
2160.09163	0.01700
2158.80586	0.01730
2157.52009	0.01747
2156.23432	0.01770
2154.94855	0.01832
2153.66278	0.01956
2152.37702	0.02115
2151.09125	0.02246
2149.80548	0.02323
2148.51971	0.02391
2147.23394	0.02484
2145.94817	0.02560
2144.66240	0.02561
2143.37663	0.02489
2142.09087	0.02391
2140.80510	0.02311
2139.51933	0.02272
2138.23356	0.02280
2136.94779	0.02331
2135.66202	0.02411
2134.37625	0.02507
2133.09048	0.02616
2131.80471	0.02731
2130.51895	0.02831
2129.23318	0.02878
2127.94741	0.02849
2126.66164	0.02771
2125.37587	0.02711
2124.09010	0.02715
2122.80433	0.02776
2121.51856	0.02859
2120.23280	0.02945
2118.94703	0.03029
2117.66126	0.03098
2116.37549	0.03136
2115.08972	0.03135
2113.80395	0.03098
2112.51818	0.03035
2111.23241	0.02959
2109.94664	0.02893
2108.66088	0.02866
2107.37511	0.02888
2106.08934	0.02940
2104.80357	0.02975
2103.51780	0.02962
2102.23203	0.02918
2100.94626	0.02875
2099.66049	0.02794
2098.37473	0.02746
2097.08896	0.02730
2095.80319	0.02735
2094.51742	0.02770
2093.23165	0.02828
2091.94588	0.02885
2090.66011	0.02907
2089.37434	0.02885
2088.08857	0.02838
2086.80281	0.02797
2085.51704	0.02773
2084.23127	0.02754
2082.94550	0.02730
2081.65973	0.02709
2080.37396	0.02701
2079.08819	0.02697
2077.80242	0.02673
2076.51666	0.02619
2075.23089	0.02556
2073.94512	0.02512
2072.65935	0.02491
2071.37358	0.02469
2070.08781	0.02426
2068.80204	0.02373
2067.51627	0.02347
2066.23050	0.02376
2064.94474	0.02445
2063.65897	0.02510
2062.37320	0.02526
2061.08743	0.02483
2059.80166	0.02407
2058.51589	0.02342
2057.23012	0.02313
2055.94435	0.02307
2054.65859	0.02291
2053.37282	0.02247
2052.08705	0.02182
2050.80128	0.02110
2049.51551	0.02026
2048.22974	0.01924
2046.94397	0.01824
2045.65820	0.01762
2044.37243	0.01759
2043.08667	0.01799
2041.80090	0.01840
2040.51513	0.01826
2039.22936	0.01724
2037.94359	0.01555
2036.65782	0.01396
2035.37205	0.01332
2034.08628	0.01389
2032.80052	0.01512
2031.51475	0.01616
2030.22898	0.01652
2028.94321	0.01641
2027.65744	0.01636
2026.37167	0.01674
2025.08590	0.01758
2023.80013	0.01856
2022.51436	0.01913
2021.22860	0.01894
2019.94283	0.01822
2018.65706	0.01761
2017.37129	0.01740
2016.08552	0.01731
2014.79975	0.01705
2013.51398	0.01690
2012.22821	0.01737
2010.94245	0.01830
2009.65668	0.01894
2008.37091	0.01870
2007.08514	0.01791
2005.79937	0.01743
2004.51360	0.01772
2003.22783	0.01849
2001.94206	0.01919
2000.65629	0.01956
1999.37053	0.01976
1998.08476	0.02003
1996.79899	0.02031
1995.51322	0.02034
1994.22745	0.01996
1992.94168	0.01924
1991.65591	0.01840
1990.37014	0.01776
1989.08438	0.01771
1987.79861	0.01840
1986.51284	0.01958
1985.22707	0.02062
1983.94130	0.02103
1982.65553	0.02069
1981.36976	0.01979
1980.08399	0.01865
1978.79822	0.01756
1977.51246	0.01670
1976.22669	0.01611
1974.94092	0.01590
1973.65515	0.01619
1972.36938	0.01692
1971.08361	0.01764
1969.79784	0.01782
1968.51207	0.01733
1967.22631	0.01664
1965.94054	0.01642
1964.65477	0.01691
1963.36900	0.01779
1962.08323	0.01851
1960.79746	0.01877
1959.51169	0.01864
1958.22592	0.01839
1956.94015	0.01831
1955.65439	0.01851
1954.36862	0.01896
1953.08285	0.01949
1951.79708	0.01994
1950.51131	0.02024
1949.22554	0.02044
1947.93977	0.02062
1946.65400	0.02082
1945.36823	0.02103
1944.08247	0.02121
1942.79670	0.02135
1941.51093	0.02137
1940.22516	0.02123
1938.93939	0.02105
1937.65362	0.02104
1936.36785	0.02129
1935.08208	0.02161
1933.79632	0.02172
1932.51055	0.02152
1931.22478	0.02113
1929.93901	0.02082
1928.65324	0.02084
1927.36747	0.02127
1926.08170	0.02192
1924.79593	0.02248
1923.51016	0.02272
1922.22440	0.02267
1920.93863	0.02257
1919.65286	0.02257
1918.36709	0.02266
1917.08132	0.02277
1915.79555	0.02289
1914.50978	0.02303
1913.22401	0.02316
1911.93825	0.02321
1910.65248	0.02315
1909.36671	0.02301
1908.08094	0.02285
1906.79517	0.02281
1905.50940	0.02299
1904.22363	0.02340
1902.93786	0.02383
1901.65209	0.02406
1900.36633	0.02403
1899.08056	0.02390
1897.79479	0.02385
1896.50902	0.02392
1895.22325	0.02400
1893.93748	0.02397
1892.65171	0.02380
1891.36594	0.02360
1890.08018	0.02353
1888.79441	0.02368
1887.50864	0.02398
1886.22287	0.02427
1884.93710	0.02441
1883.65133	0.02437
1882.36556	0.02416
1881.07979	0.02385
1879.79402	0.02357
1878.50826	0.02340
1877.22249	0.02337
1875.93672	0.02346
1874.65095	0.02365
1873.36518	0.02388
1872.07941	0.02403
1870.79364	0.02401
1869.50787	0.02390
1868.22211	0.02385
1866.93634	0.02389
1865.65057	0.02388
1864.36480	0.02367
1863.07903	0.02331
1861.79326	0.02297
1860.50749	0.02278
1859.22172	0.02272
1857.93595	0.02270
1856.65019	0.02273
1855.36442	0.02288
1854.07865	0.02313
1852.79288	0.02330
1851.50711	0.02330
1850.22134	0.02318
1848.93557	0.02316
1847.64980	0.02329
1846.36404	0.02344
1845.07827	0.02347
1843.79250	0.02342
1842.50673	0.02333
1841.22096	0.02321
1839.93519	0.02304
1838.64942	0.02289
1837.36365	0.02284
1836.07788	0.02289
1834.79212	0.02298
1833.50635	0.02306
1832.22058	0.02308
1830.93481	0.02305
1829.64904	0.02304
1828.36327	0.02306
1827.07750	0.02306
1825.79173	0.02298
1824.50597	0.02282
1823.22020	0.02259
1821.93443	0.02232
1820.64866	0.02205
1819.36289	0.02192
1818.07712	0.02199
1816.79135	0.02227
1815.50558	0.02266
1814.21981	0.02298
1812.93405	0.02311
1811.64828	0.02306
1810.36251	0.02293
1809.07674	0.02282
1807.79097	0.02275
1806.50520	0.02268
1805.21943	0.02261
1803.93366	0.02255
1802.64790	0.02254
1801.36213	0.02259
1800.07636	0.02263
1798.79059	0.02261
1797.50482	0.02252
1796.21905	0.02244
1794.93328	0.02239
1793.64751	0.02240
1792.36174	0.02247
1791.07598	0.02253
1789.79021	0.02246
1788.50444	0.02221
1787.21867	0.02191
1785.93290	0.02169
1784.64713	0.02165
1783.36136	0.02172
1782.07559	0.02180
1780.78983	0.02184
1779.50406	0.02186
1778.21829	0.02190
1776.93252	0.02199
1775.64675	0.02209
1774.36098	0.02215
1773.07521	0.02218
1771.78944	0.02224
1770.50367	0.02230
1769.21791	0.02230
1767.93214	0.02225
1766.64637	0.02225
1765.36060	0.02227
1764.07483	0.02223
1762.78906	0.02215
1761.50329	0.02211
1760.21752	0.02216
1758.93176	0.02225
1757.64599	0.02237
1756.36022	0.02255
1755.07445	0.02278
1753.78868	0.02301
1752.50291	0.02322
1751.21714	0.02347
1749.93137	0.02379
1748.64560	0.02412
1747.35984	0.02440
1746.07407	0.02462
1744.78830	0.02483
1743.50253	0.02508
1742.21676	0.02537
1740.93099	0.02569
1739.64522	0.02611
1738.35945	0.02664
1737.07369	0.02719
1735.78792	0.02765
1734.50215	0.02807
1733.21638	0.02860
1731.93061	0.02915
1730.64484	0.02955
1729.35907	0.02977
1728.07330	0.02998
1726.78753	0.03028
1725.50177	0.03070
1724.21600	0.03119
1722.93023	0.03171
1721.64446	0.03223
1720.35869	0.03272
1719.07292	0.03320
1717.78715	0.03375
1716.50138	0.03440
1715.21561	0.03511
1713.92985	0.03587
1712.64408	0.03677
1711.35831	0.03792
1710.07254	0.03934
1708.78677	0.04100
1707.50100	0.04283
1706.21523	0.04481
1704.92946	0.04702
1703.64370	0.04943
1702.35793	0.05193
1701.07216	0.05453
1699.78639	0.05736
1698.50062	0.06035
1697.21485	0.06331
1695.92908	0.06629
1694.64331	0.06942
1693.35754	0.07259
1692.07178	0.07563
1690.78601	0.07862
1689.50024	0.08175
1688.21447	0.08505
1686.92870	0.08842
1685.64293	0.09185
1684.35716	0.09542
1683.07139	0.09912
1681.78563	0.10279
1680.49986	0.10643
1679.21409	0.11023
1677.92832	0.11429
1676.64255	0.11856
1675.35678	0.12299
1674.07101	0.12754
1672.78524	0.13213
1671.49947	0.13673
1670.21371	0.14142
1668.92794	0.14620
1667.64217	0.15093
1666.35640	0.15548
1665.07063	0.15983
1663.78486	0.16411
1662.49909	0.16840
1661.21332	0.17266
1659.92756	0.17676
1658.64179	0.18059
1657.35602	0.18415
1656.07025	0.18747
1654.78448	0.19057
1653.49871	0.19366
1652.21294	0.19681
1650.92717	0.19977
1649.64140	0.20223
1648.35564	0.20426
1647.06987	0.20621
1645.78410	0.20829
1644.49833	0.21042
1643.21256	0.21242
1641.92679	0.21426
1640.64102	0.21600
1639.35525	0.21771
1638.06949	0.21934
1636.78372	0.22085
1635.49795	0.22227
1634.21218	0.22357
1632.92641	0.22461
1631.64064	0.22524
1630.35487	0.22539
1629.06910	0.22504
1627.78333	0.22418
1626.49757	0.22281
1625.21180	0.22095
1623.92603	0.21865
1622.64026	0.21597
1621.35449	0.21290
1620.06872	0.20936
1618.78295	0.20538
1617.49718	0.20112
1616.21142	0.19682
1614.92565	0.19254
1613.63988	0.18816
1612.35411	0.18360
1611.06834	0.17895
1609.78257	0.17431
1608.49680	0.16973
1607.21103	0.16523
1605.92526	0.16084
1604.63950	0.15656
1603.35373	0.15245
1602.06796	0.14857
1600.78219	0.14491
1599.49642	0.14146
1598.21065	0.13823
1596.92488	0.13525
1595.63911	0.13252
1594.35335	0.13004
1593.06758	0.12779
1591.78181	0.12581
1590.49604	0.12412
1589.21027	0.12271
1587.92450	0.12157
1586.63873	0.12067
1585.35296	0.12001
1584.06719	0.11960
1582.78143	0.11942
1581.49566	0.11947
1580.20989	0.11974
1578.92412	0.12021
1577.63835	0.12089
1576.35258	0.12191
1575.06681	0.12337
1573.78104	0.12514
1572.49528	0.12701
1571.20951	0.12896
1569.92374	0.13114
1568.63797	0.13361
1567.35220	0.13632
1566.06643	0.13913
1564.78066	0.14201
1563.49489	0.14494
1562.20912	0.14785
1560.92336	0.15071
1559.63759	0.15362
1558.35182	0.15665
1557.06605	0.15963
1555.78028	0.16230
1554.49451	0.16465
1553.20874	0.16683
1551.92297	0.16888
1550.63721	0.17080
1549.35144	0.17261
1548.06567	0.17433
1546.77990	0.17592
1545.49413	0.17734
1544.20836	0.17862
1542.92259	0.17973
1541.63682	0.18062
1540.35105	0.18132
1539.06529	0.18191
1537.77952	0.18237
1536.49375	0.18260
1535.20798	0.18260
1533.92221	0.18254
1532.63644	0.18250
1531.35067	0.18242
1530.06490	0.18218
1528.77914	0.18180
1527.49337	0.18130
1526.20760	0.18073
1524.92183	0.18008
1523.63606	0.17931
1522.35029	0.17843
1521.06452	0.17754
1519.77875	0.17663
1518.49298	0.17558
1517.20722	0.17431
1515.92145	0.17282
1514.63568	0.17108
1513.34991	0.16909
1512.06414	0.16691
1510.77837	0.16460
1509.49260	0.16209
1508.20683	0.15929
1506.92107	0.15629
1505.63530	0.15321
1504.34953	0.15009
1503.06376	0.14686
1501.77799	0.14353
1500.49222	0.14023
1499.20645	0.13697
1497.92068	0.13366
1496.63491	0.13026
1495.34915	0.12686
1494.06338	0.12353
1492.77761	0.12029
1491.49184	0.11720
1490.20607	0.11432
1488.92030	0.11171
1487.63453	0.10938
1486.34876	0.10731
1485.06299	0.10551
1483.77723	0.10399
1482.49146	0.10276
1481.20569	0.10188
1479.91992	0.10139
1478.63415	0.10125
1477.34838	0.10143
1476.06261	0.10191
1474.77684	0.10268
1473.49108	0.10372
1472.20531	0.10501
1470.91954	0.10647
1469.63377	0.10797
1468.34800	0.10943
1467.06223	0.11088
1465.77646	0.11242
1464.49069	0.11413
1463.20492	0.11601
1461.91916	0.11802
1460.63339	0.12007
1459.34762	0.12209
1458.06185	0.12408
1456.77608	0.12606
1455.49031	0.12795
1454.20454	0.12955
1452.91877	0.13074
1451.63301	0.13156
1450.34724	0.13211
1449.06147	0.13240
1447.77570	0.13245
1446.48993	0.13228
1445.20416	0.13188
1443.91839	0.13125
1442.63262	0.13044
1441.34685	0.12952
1440.06109	0.12852
1438.77532	0.12738
1437.48955	0.12610
1436.20378	0.12469
1434.91801	0.12317
1433.63224	0.12150
1432.34647	0.11973
1431.06070	0.11802
1429.77494	0.11650
1428.48917	0.11525
1427.20340	0.11423
1425.91763	0.11342
1424.63186	0.11280
1423.34609	0.11235
1422.06032	0.11202
1420.77455	0.11176
1419.48878	0.11162
1418.20302	0.11160
1416.91725	0.11164
1415.63148	0.11168
1414.34571	0.11176
1413.05994	0.11195
1411.77417	0.11224
1410.48840	0.11259
1409.20263	0.11295
1407.91687	0.11331
1406.63110	0.11369
1405.34533	0.11408
1404.05956	0.11447
1402.77379	0.11480
1401.48802	0.11496
1400.20225	0.11490
1398.91648	0.11466
1397.63071	0.11432
1396.34495	0.11396
1395.05918	0.11363
1393.77341	0.11336
1392.48764	0.11315
1391.20187	0.11293
1389.91610	0.11264
1388.63033	0.11228
1387.34456	0.11188
1386.05880	0.11147
1384.77303	0.11102
1383.48726	0.11056
1382.20149	0.11010
1380.91572	0.10967
1379.62995	0.10925
1378.34418	0.10879
1377.05841	0.10826
1375.77264	0.10762
1374.48688	0.10688
1373.20111	0.10603
1371.91534	0.10506
1370.62957	0.10397
1369.34380	0.10282
1368.05803	0.10164
1366.77226	0.10045
1365.48649	0.09926
1364.20073	0.09811
1362.91496	0.09706
1361.62919	0.09616
1360.34342	0.09541
1359.05765	0.09482
1357.77188	0.09440
1356.48611	0.09418
1355.20034	0.09418
1353.91457	0.09438
1352.62881	0.09479
1351.34304	0.09536
1350.05727	0.09606
1348.77150	0.09686
1347.48573	0.09772
1346.19996	0.09864
1344.91419	0.09960
1343.62842	0.10061
1342.34266	0.10162
1341.05689	0.10257
1339.77112	0.10337
1338.48535	0.10397
1337.19958	0.10431
1335.91381	0.10436
1334.62804	0.10416
1333.34227	0.10376
1332.05650	0.10321
1330.77074	0.10258
1329.48497	0.10187
1328.19920	0.10110
1326.91343	0.10027
1325.62766	0.09944
1324.34189	0.09867
1323.05612	0.09801
1321.77035	0.09747
1320.48459	0.09703
1319.19882	0.09667
1317.91305	0.09635
1316.62728	0.09603
1315.34151	0.09566
1314.05574	0.09524
1312.76997	0.09478
1311.48420	0.09433
1310.19843	0.09390
1308.91267	0.09347
1307.62690	0.09303
1306.34113	0.09258
1305.05536	0.09219
1303.76959	0.09188
1302.48382	0.09160
1301.19805	0.09130
1299.91228	0.09097
1298.62652	0.09063
1297.34075	0.09036
1296.05498	0.09020
1294.76921	0.09018
1293.48344	0.09031
1292.19767	0.09061
1290.91190	0.09105
1289.62613	0.09158
1288.34036	0.09218
1287.05460	0.09283
1285.76883	0.09352
1284.48306	0.09422
1283.19729	0.09487
1281.91152	0.09542
1280.62575	0.09585
1279.33998	0.09620
1278.05421	0.09646
1276.76845	0.09663
1275.48268	0.09671
1274.19691	0.09675
1272.91114	0.09681
1271.62537	0.09694
1270.33960	0.09718
1269.05383	0.09753
1267.76806	0.09796
1266.48229	0.09847
1265.19653	0.09902
1263.91076	0.09958
1262.62499	0.10015
1261.33922	0.10076
1260.05345	0.10141
1258.76768	0.10212
1257.48191	0.10286
1256.19614	0.10364
1254.91037	0.10448
1253.62461	0.10538
1252.33884	0.10633
1251.05307	0.10733
1249.76730	0.10841
1248.48153	0.10958
1247.19576	0.11086
1245.90999	0.11218
1244.62422	0.11349
1243.33846	0.11475
1242.05269	0.11596
1240.76692	0.11707
1239.48115	0.11802
1238.19538	0.11875
1236.90961	0.11927
1235.62384	0.11961
1234.33807	0.11982
1233.05230	0.11985
1231.76654	0.11966
1230.48077	0.11924
1229.19500	0.11860
1227.90923	0.11776
1226.62346	0.11672
1225.33769	0.11549
1224.05192	0.11409
1222.76615	0.11259
1221.48039	0.11106
1220.19462	0.10955
1218.90885	0.10810
1217.62308	0.10676
1216.33731	0.10558
1215.05154	0.10465
1213.76577	0.10401
1212.48000	0.10362
1211.19423	0.10342
1209.90847	0.10334
1208.62270	0.10337
1207.33693	0.10352
1206.05116	0.10377
1204.76539	0.10405
1203.47962	0.10425
1202.19385	0.10424
1200.90808	0.10396
1199.62232	0.10340
1198.33655	0.10248
1197.05078	0.10139
1195.76501	0.10023
1194.47924	0.09903
1193.19347	0.09783
1191.90770	0.09663
1190.62193	0.09546
1189.33616	0.09431
1188.05040	0.09320
1186.76463	0.09215
1185.47886	0.09120
1184.19309	0.09035
1182.90732	0.08958
1181.62155	0.08889
1180.33578	0.08831
1179.05001	0.08783
1177.76425	0.08739
1176.47848	0.08698
1175.19271	0.08662
1173.90694	0.08637
1172.62117	0.08623
1171.33540	0.08613
1170.04963	0.08604
1168.76386	0.08594
1167.47809	0.08587
1166.19233	0.08581
1164.90656	0.08576
1163.62079	0.08572
1162.33502	0.08569
1161.04925	0.08564
1159.76348	0.08549
1158.47771	0.08515
1157.19194	0.08458
1155.90618	0.08380
1154.62041	0.08291
1153.33464	0.08200
1152.04887	0.08112
1150.76310	0.08024
1149.47733	0.07930
1148.19156	0.07832
1146.90579	0.07735
1145.62002	0.07647
1144.33426	0.07572
1143.04849	0.07502
1141.76272	0.07432
1140.47695	0.07362
1139.19118	0.07296
1137.90541	0.07236
1136.61964	0.07188
1135.33387	0.07152
1134.04811	0.07128
1132.76234	0.07106
1131.47657	0.07082
1130.19080	0.07054
1128.90503	0.07024
1127.61926	0.07000
1126.33349	0.06985
1125.04772	0.06974
1123.76195	0.06960
1122.47619	0.06940
1121.19042	0.06916
1119.90465	0.06894
1118.61888	0.06876
1117.33311	0.06867
1116.04734	0.06870
1114.76157	0.06884
1113.47580	0.06903
1112.19004	0.06923
1110.90427	0.06945
1109.61850	0.06971
1108.33273	0.07002
1107.04696	0.07032
1105.76119	0.07060
1104.47542	0.07087
1103.18965	0.07118
1101.90388	0.07155
1100.61812	0.07198
1099.33235	0.07241
1098.04658	0.07285
1096.76081	0.07330
1095.47504	0.07383
1094.18927	0.07447
1092.90350	0.07520
1091.61773	0.07599
1090.33197	0.07687
1089.04620	0.07793
1087.76043	0.07922
1086.47466	0.08065
1085.18889	0.08201
1083.90312	0.08311
1082.61735	0.08386
1081.33158	0.08431
1080.04581	0.08455
1078.76005	0.08460
1077.47428	0.08446
1076.18851	0.08413
1074.90274	0.08369
1073.61697	0.08324
1072.33120	0.08287
1071.04543	0.08259
1069.75966	0.08242
1068.47390	0.08232
1067.18813	0.08228
1065.90236	0.08225
1064.61659	0.08220
1063.33082	0.08208
1062.04505	0.08184
1060.75928	0.08150
1059.47351	0.08113
1058.18774	0.08079
1056.90198	0.08045
1055.61621	0.08010
1054.33044	0.07972
1053.04467	0.07936
1051.75890	0.07901
1050.47313	0.07859
1049.18736	0.07812
1047.90159	0.07768
1046.61583	0.07735
1045.33006	0.07715
1044.04429	0.07701
1042.75852	0.07692
1041.47275	0.07690
1040.18698	0.07701
1038.90121	0.07726
1037.61544	0.07763
1036.32967	0.07807
1035.04391	0.07851
1033.75814	0.07892
1032.47237	0.07927
1031.18660	0.07947
1029.90083	0.07941
1028.61506	0.07908
1027.32929	0.07848
1026.04352	0.07770
1024.75775	0.07680
1023.47199	0.07585
1022.18622	0.07494
1020.90045	0.07407
1019.61468	0.07328
1018.32891	0.07258
1017.04314	0.07195
1015.75737	0.07140
1014.47160	0.07088
1013.18584	0.07035
1011.90007	0.06977
1010.61430	0.06914
1009.32853	0.06849
1008.04276	0.06783
1006.75699	0.06713
1005.47122	0.06638
1004.18545	0.06557
1002.89968	0.06476
1001.61392	0.06401
1000.32815	0.06332
999.04238	0.06268
997.75661	0.06209
996.47084	0.06160
995.18507	0.06119
993.89930	0.06077
992.61353	0.06028
991.32777	0.05970
990.04200	0.05908
988.75623	0.05848
987.47046	0.05798
986.18469	0.05762
984.89892	0.05742
983.61315	0.05730
982.32738	0.05720
981.04161	0.05715
979.75585	0.05719
978.47008	0.05735
977.18431	0.05760
975.89854	0.05784
974.61277	0.05795
973.32700	0.05786
972.04123	0.05755
970.75546	0.05710
969.46970	0.05661
968.18393	0.05615
966.89816	0.05575
965.61239	0.05538
964.32662	0.05501
963.04085	0.05468
961.75508	0.05438
960.46931	0.05412
959.18354	0.05387
957.89778	0.05363
956.61201	0.05339
955.32624	0.05318
954.04047	0.05296
952.75470	0.05271
951.46893	0.05243
950.18316	0.05218
948.89739	0.05204
947.61163	0.05203
946.32586	0.05206
945.04009	0.05205
943.75432	0.05200
942.46855	0.05198
941.18278	0.05201
939.89701	0.05206
938.61124	0.05208
937.32547	0.05204
936.03971	0.05194
934.75394	0.05182
933.46817	0.05169
932.18240	0.05156
930.89663	0.05143
929.61086	0.05130
928.32509	0.05118
927.03932	0.05109
925.75356	0.05105
924.46779	0.05104
923.18202	0.05104
921.89625	0.05097
920.61048	0.05079
919.32471	0.05055
918.03894	0.05029
916.75317	0.05006
915.46740	0.04984
914.18164	0.04958
912.89587	0.04930
911.61010	0.04902
910.32433	0.04879
909.03856	0.04866
907.75279	0.04862
906.46702	0.04863
905.18125	0.04863
903.89549	0.04859
902.60972	0.04847
901.32395	0.04825
900.03818	0.04795
898.75241	0.04760
897.46664	0.04728
896.18087	0.04704
894.89510	0.04687
893.60933	0.04675
892.32357	0.04664
891.03780	0.04655
889.75203	0.04651
888.46626	0.04653
887.18049	0.04659
885.89472	0.04669
884.60895	0.04682
883.32318	0.04692
882.03742	0.04695
880.75165	0.04691
879.46588	0.04686
878.18011	0.04687
876.89434	0.04698
875.60857	0.04711
874.32280	0.04715
873.03703	0.04703
871.75126	0.04685
870.46550	0.04674
869.17973	0.04673
867.89396	0.04674
866.60819	0.04667
865.32242	0.04649
864.03665	0.04630
862.75088	0.04615
861.46511	0.04610
860.17935	0.04612
858.89358	0.04619
857.60781	0.04625
856.32204	0.04627
855.03627	0.04623
853.75050	0.04617
852.46473	0.04612
851.17896	0.04612
849.89319	0.04616
848.60743	0.04619
847.32166	0.04618
846.03589	0.04610
844.75012	0.04593
843.46435	0.04573
842.17858	0.04559
840.89281	0.04553
839.60704	0.04550
838.32128	0.04543
837.03551	0.04530
835.74974	0.04514
834.46397	0.04502
833.17820	0.04497
831.89243	0.04502
830.60666	0.04516
829.32089	0.04536
828.03512	0.04559
826.74936	0.04581
825.46359	0.04603
824.17782	0.04626
822.89205	0.04647
821.60628	0.04666
820.32051	0.04683
819.03474	0.04700
817.74897	0.04723
816.46321	0.04745
815.17744	0.04762
813.89167	0.04773
812.60590	0.04788
811.32013	0.04813
810.03436	0.04843
808.74859	0.04867
807.46282	0.04884
806.17705	0.04898
804.89129	0.04913
803.60552	0.04932
802.31975	0.04951
801.03398	0.04966
799.74821	0.04973
798.46244	0.04975
797.17667	0.04977
795.89090	0.04985
794.60513	0.04999
793.31937	0.05019
792.03360	0.05045
790.74783	0.05075
789.46206	0.05105
788.17629	0.05131
786.89052	0.05153
785.60475	0.05172
784.31898	0.05188
783.03322	0.05201
781.74745	0.05212
780.46168	0.05224
779.17591	0.05240
777.89014	0.05258
776.60437	0.05274
775.31860	0.05290
774.03283	0.05313
772.74706	0.05345
771.46130	0.05378
770.17553	0.05402
768.88976	0.05415
767.60399	0.05426
766.31822	0.05443
765.03245	0.05466
763.74668	0.05491
762.46091	0.05513
761.17515	0.05532
759.88938	0.05547
758.60361	0.05557
757.31784	0.05566
756.03207	0.05583
754.74630	0.05608
753.46053	0.05637
752.17476	0.05665
750.88899	0.05691
749.60323	0.05715
748.31746	0.05741
747.03169	0.05773
745.74592	0.05811
744.46015	0.05848
743.17438	0.05875
741.88861	0.05888
740.60284	0.05895
739.31708	0.05908
738.03131	0.05937
736.74554	0.05980
735.45977	0.06027
734.17400	0.06069
732.88823	0.06104
731.60246	0.06130
730.31669	0.06150
729.03092	0.06170
727.74516	0.06195
726.45939	0.06228
725.17362	0.06264
723.88785	0.06297
722.60208	0.06337
721.31631	0.06380
720.03054	0.06418
718.74477	0.06454
717.45901	0.06487
716.17324	0.06516
714.88747	0.06537
713.60170	0.06550
712.31593	0.06564
711.03016	0.06587
709.74439	0.06622
708.45862	0.06665
707.17285	0.06712
705.88709	0.06756
704.60132	0.06795
703.31555	0.06826
702.02978	0.06850
700.74401	0.06872
699.45824	0.06894
698.17247	0.06916
696.88670	0.06933
695.60094	0.06943
694.31517	0.06950
693.02940	0.06954
691.74363	0.06961
690.45786	0.06973
689.17209	0.06988
687.88632	0.07008
686.60055	0.07032
685.31478	0.07059
684.02902	0.07088
682.74325	0.07115
681.45748	0.07138
680.17171	0.07158
678.88594	0.07175
677.60017	0.07189
676.31440	0.07203
675.02863	0.07218
673.74287	0.07235
672.45710	0.07255
671.17133	0.07277
669.88556	0.07298
668.59979	0.07316
667.31402	0.07334
666.02825	0.07360
664.74248	0.07383
663.45671	0.07408
662.17095	0.07432
660.88518	0.07451
659.59941	0.07463
658.31364	0.07473
657.02787	0.07483
655.74210	0.07497
654.45633	0.07512
653.17056	0.07525
651.88480	0.07538
650.59903	0.07553
649.31326	0.07569
648.02749	0.07583
646.74172	0.07593
645.45595	0.07602
644.17018	0.07615
642.88441	0.07631
641.59864	0.07644
640.31288	0.07648
639.02711	0.07646
637.74134	0.07645
636.45557	0.07648
635.16980	0.07653
633.88403	0.07657
632.59826	0.07660
631.31249	0.07653
630.02673	0.07598
628.74096	0.07506
627.45519	0.07507
626.16942	0.07380
624.88365	0.07167
623.59788	0.06960
622.31211	0.06804
621.02634	0.06753
619.74057	0.06867
618.45481	0.07165
617.16904	0.07555
615.88327	0.07844
614.59750	0.07871
613.31173	0.07649
612.02596	0.07372
610.74019	0.07241
609.45442	0.07297
608.16866	0.07424
606.88289	0.07507
605.59712	0.07519
604.31135	0.07501
603.02558	0.07498
601.73981	0.07530
600.45404	0.07590
599.16827	0.07658
597.88250	0.07719
596.59674	0.07769
595.31097	0.07813
594.02520	0.07846
592.73943	0.07857
591.45366	0.07841
590.16789	0.07817
588.88212	0.07804
587.59635	0.07811
586.31059	0.07830
585.02482	0.07850
583.73905	0.07865
582.45328	0.07874
581.16751	0.07878
579.88174	0.07877
578.59597	0.07873
577.31020	0.07869
576.02443	0.07871
574.73867	0.07880
573.45290	0.07891
572.16713	0.07897
570.88136	0.07899
569.59559	0.07903
568.30982	0.07918
567.02405	0.07942
565.73828	0.07966
564.45251	0.07988
563.16675	0.08007
561.88098	0.08026
560.59521	0.08042
559.30944	0.08051
558.02367	0.08057
556.73790	0.08069
555.45213	0.08089
554.16636	0.08111
552.88060	0.08127
551.59483	0.08132
550.30906	0.08128
549.02329	0.08117
547.73752	0.08102
546.45175	0.08084
545.16598	0.08065
543.88021	0.08053
542.59444	0.08046
541.30868	0.08036
540.02291	0.08020
538.73714	0.08008
537.45137	0.08012
536.16560	0.08032
534.87983	0.08055
533.59406	0.08067
532.30829	0.08067
531.02253	0.08065
529.73676	0.08067
528.45099	0.08072
527.16522	0.08072
525.87945	0.08062
524.59368	0.08038
523.30791	0.08002
522.02214	0.07960
520.73637	0.07920
519.45061	0.07887
518.16484	0.07860
516.87907	0.07841
515.59330	0.07832
514.30753	0.07833
513.02176	0.07837
511.73599	0.07838
510.45022	0.07833
509.16446	0.07821
507.87869	0.07799
506.59292	0.07766
505.30715	0.07732
504.02138	0.07703
502.73561	0.07680
501.44984	0.07655
500.16407	0.07624
498.87830	0.07592
497.59254	0.07564
496.30677	0.07540
495.02100	0.07517
493.73523	0.07490
492.44946	0.07457
491.16369	0.07422
489.87792	0.07390
488.59215	0.07363
487.30639	0.07339
486.02062	0.07315
484.73485	0.07291
483.44908	0.07270
482.16331	0.07251
480.87754	0.07233
479.59177	0.07219
478.30600	0.07211
477.02023	0.07207
475.73447	0.07198
474.44870	0.07177
473.16293	0.07142
471.87716	0.07095
470.59139	0.07042
469.30562	0.06993
468.01985	0.06954
466.73408	0.06925
465.44832	0.06904
464.16255	0.06884
462.87678	0.06858
461.59101	0.06824
460.30524	0.06781
459.01947	0.06736
457.73370	0.06699
456.44793	0.06677
455.16216	0.06668
453.87640	0.06658
452.59063	0.06639
451.30486	0.06606
450.01909	0.06563
448.73332	0.06513
447.44755	0.06459
446.16178	0.06411
444.87601	0.06374
443.59025	0.06346
442.30448	0.06323
441.01871	0.06297
439.73294	0.06267
438.44717	0.06235
437.16140	0.06204
435.87563	0.06172
434.58986	0.06140
433.30409	0.06111
432.01833	0.06090
430.73256	0.06078
429.44679	0.06068
428.16102	0.06049
426.87525	0.06018
425.58948	0.05980
424.30371	0.05944
423.01794	0.05915
421.73218	0.05890
420.44641	0.05863
419.16064	0.05835
417.87487	0.05810
416.58910	0.05788
415.30333	0.05766
414.01756	0.05744
412.73179	0.05725
411.44602	0.05706
410.16026	0.05684
408.87449	0.05657
407.58872	0.05628
406.30295	0.05601
405.01718	0.05580
403.73141	0.05566
402.44564	0.05557
401.15987	0.05548
399.87411	0.05533
