3996.16951	0.04690
3994.24086	0.04705
3992.31221	0.04717
3990.38355	0.04720
3988.45490	0.04703
3986.52625	0.04665
3984.59759	0.04635
3982.66894	0.04632
3980.74029	0.04653
3978.81163	0.04695
3976.88298	0.04727
3974.95433	0.04715
3973.02567	0.04671
3971.09702	0.04625
3969.16837	0.04610
3967.23972	0.04657
3965.31106	0.04719
3963.38241	0.04701
3961.45376	0.04619
3959.52510	0.04573
3957.59645	0.04599
3955.66780	0.04648
3953.73914	0.04660
3951.81049	0.04638
3949.88184	0.04615
3947.95318	0.04582
3946.02453	0.04554
3944.09588	0.04561
3942.16722	0.04599
3940.23857	0.04630
3938.30992	0.04595
3936.38126	0.04514
3934.45261	0.04483
3932.52396	0.04526
3930.59530	0.04561
3928.66665	0.04542
3926.73800	0.04506
3924.80934	0.04478
3922.88069	0.04459
3920.95204	0.04451
3919.02338	0.04453
3917.09473	0.04473
3915.16608	0.04499
3913.23742	0.04503
3911.30877	0.04504
3909.38012	0.04536
3907.45146	0.04576
3905.52281	0.04567
3903.59416	0.04526
3901.66550	0.04515
3899.73685	0.04518
3897.80820	0.04490
3895.87955	0.04460
3893.95089	0.04459
3892.02224	0.04454
3890.09359	0.04426
3888.16493	0.04406
3886.23628	0.04435
3884.30763	0.04484
3882.37897	0.04457
3880.45032	0.04364
3878.52167	0.04330
3876.59301	0.04362
3874.66436	0.04360
3872.73571	0.04336
3870.80705	0.04352
3868.87840	0.04394
3866.94975	0.04419
3865.02109	0.04416
3863.09244	0.04389
3861.16379	0.04347
3859.23513	0.04330
3857.30648	0.04359
3855.37783	0.04393
3853.44917	0.04395
3851.52052	0.04378
3849.59187	0.04374
3847.66321	0.04360
3845.73456	0.04295
3843.80591	0.04211
3841.87725	0.04192
3839.94860	0.04255
3838.01995	0.04291
3836.09129	0.04227
3834.16264	0.04151
3832.23399	0.04149
3830.30534	0.04188
3828.37668	0.04220
3826.44803	0.04216
3824.51938	0.04170
3822.59072	0.04145
3820.66207	0.04190
3818.73342	0.04253
3816.80476	0.04280
3814.87611	0.04259
3812.94746	0.04191
3811.01880	0.04116
3809.09015	0.04061
3807.16150	0.04021
3805.23284	0.03997
3803.30419	0.04006
3801.37554	0.04054
3799.44688	0.04102
3797.51823	0.04094
3795.58958	0.04025
3793.66092	0.03968
3791.73227	0.03992
3789.80362	0.04053
3787.87496	0.04083
3785.94631	0.04076
3784.01766	0.04035
3782.08900	0.03990
3780.16035	0.03967
3778.23170	0.03934
3776.30304	0.03895
3774.37439	0.03928
3772.44574	0.04018
3770.51708	0.04060
3768.58843	0.04044
3766.65978	0.04020
3764.73112	0.03983
3762.80247	0.03932
3760.87382	0.03915
3758.94517	0.03952
3757.01651	0.03996
3755.08786	0.04006
3753.15921	0.04002
3751.23055	0.03997
3749.30190	0.03953
3747.37325	0.03890
3745.44459	0.03862
3743.51594	0.03874
3741.58729	0.03926
3739.65863	0.04000
3737.72998	0.04041
3735.80133	0.04035
3733.87267	0.03980
3731.94402	0.03852
3730.01537	0.03712
3728.08671	0.03683
3726.15806	0.03761
3724.22941	0.03824
3722.30075	0.03824
3720.37210	0.03800
3718.44345	0.03771
3716.51479	0.03729
3714.58614	0.03669
3712.65749	0.03637
3710.72883	0.03692
3708.80018	0.03767
3706.87153	0.03758
3704.94287	0.03704
3703.01422	0.03689
3701.08557	0.03689
3699.15691	0.03658
3697.22826	0.03622
3695.29961	0.03617
3693.37095	0.03660
3691.44230	0.03734
3689.51365	0.03758
3687.58500	0.03703
3685.65634	0.03653
3683.72769	0.03662
3681.79904	0.03689
3679.87038	0.03685
3677.94173	0.03660
3676.01308	0.03622
3674.08442	0.03560
3672.15577	0.03540
3670.22712	0.03607
3668.29846	0.03661
3666.36981	0.03624
3664.44116	0.03567
3662.51250	0.03577
3660.58385	0.03644
3658.65520	0.03699
3656.72654	0.03694
3654.79789	0.03644
3652.86924	0.03609
3650.94058	0.03628
3649.01193	0.03683
3647.08328	0.03732
3645.15462	0.03772
3643.22597	0.03823
3641.29732	0.03876
3639.36866	0.03912
3637.44001	0.03918
3635.51136	0.03887
3633.58270	0.03826
3631.65405	0.03763
3629.72540	0.03745
3627.79674	0.03788
3625.86809	0.03831
3623.93944	0.03849
3622.01079	0.03900
3620.08213	0.04012
3618.15348	0.04132
3616.22483	0.04182
3614.29617	0.04156
3612.36752	0.04132
3610.43887	0.04154
3608.51021	0.04188
3606.58156	0.04188
3604.65291	0.04174
3602.72425	0.04201
3600.79560	0.04267
3598.86695	0.04314
3596.93829	0.04317
3595.00964	0.04328
3593.08099	0.04397
3591.15233	0.04455
3589.22368	0.04422
3587.29503	0.04362
3585.36637	0.04383
3583.43772	0.04476
3581.50907	0.04561
3579.58041	0.04607
3577.65176	0.04636
3575.72311	0.04651
3573.79445	0.04660
3571.86580	0.04692
3569.93715	0.04736
3568.00849	0.04749
3566.07984	0.04734
3564.15119	0.04740
3562.22253	0.04790
3560.29388	0.04868
3558.36523	0.04950
3556.43657	0.05010
3554.50792	0.05044
3552.57927	0.05072
3550.65062	0.05117
3548.72196	0.05182
3546.79331	0.05227
3544.86466	0.05232
3542.93600	0.05237
3541.00735	0.05240
3539.07870	0.05217
3537.15004	0.05189
3535.22139	0.05181
3533.29274	0.05208
3531.36408	0.05263
3529.43543	0.05332
3527.50678	0.05423
3525.57812	0.05527
3523.64947	0.05595
3521.72082	0.05583
3519.79216	0.05546
3517.86351	0.05574
3515.93486	0.05653
3514.00620	0.05700
3512.07755	0.05716
3510.14890	0.05743
3508.22024	0.05770
3506.29159	0.05786
3504.36294	0.05807
3502.43428	0.05827
3500.50563	0.05854
3498.57698	0.05908
3496.64832	0.05951
3494.71967	0.05963
3492.79102	0.05990
3490.86236	0.06042
3488.93371	0.06067
3487.00506	0.06061
3485.07641	0.06075
3483.14775	0.06110
3481.21910	0.06108
3479.29045	0.06083
3477.36179	0.06103
3475.43314	0.06173
3473.50449	0.06227
3471.57583	0.06240
3469.64718	0.06251
3467.71853	0.06292
3465.78987	0.06349
3463.86122	0.06402
3461.93257	0.06433
3460.00391	0.06437
3458.07526	0.06439
3456.14661	0.06449
3454.21795	0.06451
3452.28930	0.06453
3450.36065	0.06491
3448.43199	0.06562
3446.50334	0.06592
3444.57469	0.06540
3442.64603	0.06479
3440.71738	0.06491
3438.78873	0.06555
3436.86007	0.06628
3434.93142	0.06708
3433.00277	0.06795
3431.07411	0.06868
3429.14546	0.06883
3427.21681	0.06836
3425.28815	0.06793
3423.35950	0.06814
3421.43085	0.06868
3419.50219	0.06903
3417.57354	0.06942
3415.64489	0.07028
3413.71624	0.07107
3411.78758	0.07108
3409.85893	0.07068
3407.93028	0.07058
3406.00162	0.07085
3404.07297	0.07128
3402.14432	0.07160
3400.21566	0.07169
3398.28701	0.07173
3396.35836	0.07203
3394.42970	0.07259
3392.50105	0.07297
3390.57240	0.07290
3388.64374	0.07285
3386.71509	0.07301
3384.78644	0.07297
3382.85778	0.07265
3380.92913	0.07251
3379.00048	0.07293
3377.07182	0.07370
3375.14317	0.07424
3373.21452	0.07456
3371.28586	0.07509
3369.35721	0.07578
3367.42856	0.07627
3365.49990	0.07657
3363.57125	0.07694
3361.64260	0.07740
3359.71394	0.07777
3357.78529	0.07815
3355.85664	0.07882
3353.92798	0.07973
3351.99933	0.08054
3350.07068	0.08112
3348.14202	0.08154
3346.21337	0.08193
3344.28472	0.08227
3342.35607	0.08256
3340.42741	0.08308
3338.49876	0.08392
3336.57011	0.08466
3334.64145	0.08504
3332.71280	0.08539
3330.78415	0.08599
3328.85549	0.08668
3326.92684	0.08717
3324.99819	0.08730
3323.06953	0.08727
3321.14088	0.08743
3319.21223	0.08768
3317.28357	0.08783
3315.35492	0.08812
3313.42627	0.08867
3311.49761	0.08913
3309.56896	0.08930
3307.64031	0.08943
3305.71165	0.08966
3303.78300	0.08974
3301.85435	0.08960
3299.92569	0.08964
3297.99704	0.09002
3296.06839	0.09024
3294.13973	0.08995
3292.21108	0.08938
3290.28243	0.08897
3288.35377	0.08880
3286.42512	0.08875
3284.49647	0.08898
3282.56781	0.08960
3280.63916	0.09005
3278.71051	0.08981
3276.78186	0.08919
3274.85320	0.08871
3272.92455	0.08832
3270.99590	0.08792
3269.06724	0.08766
3267.13859	0.08754
3265.20994	0.08733
3263.28128	0.08691
3261.35263	0.08655
3259.42398	0.08647
3257.49532	0.08632
3255.56667	0.08573
3253.63802	0.08501
3251.70936	0.08462
3249.78071	0.08443
3247.85206	0.08395
3245.92340	0.08335
3243.99475	0.08313
3242.06610	0.08312
3240.13744	0.08295
3238.20879	0.08281
3236.28014	0.08278
3234.35148	0.08257
3232.42283	0.08218
3230.49418	0.08176
3228.56552	0.08135
3226.63687	0.08099
3224.70822	0.08079
3222.77956	0.08083
3220.85091	0.08101
3218.92226	0.08126
3216.99360	0.08134
3215.06495	0.08089
3213.13630	0.08017
3211.20764	0.07960
3209.27899	0.07924
3207.35034	0.07906
3205.42169	0.07896
3203.49303	0.07885
3201.56438	0.07894
3199.63573	0.07905
3197.70707	0.07856
3195.77842	0.07753
3193.84977	0.07665
3191.92111	0.07622
3189.99246	0.07616
3188.06381	0.07627
3186.13515	0.07612
3184.20650	0.07550
3182.27785	0.07482
3180.34919	0.07437
3178.42054	0.07400
3176.49189	0.07365
3174.56323	0.07354
3172.63458	0.07350
3170.70593	0.07302
3168.77727	0.07214
3166.84862	0.07135
3164.91997	0.07072
3162.99131	0.07014
3161.06266	0.06980
3159.13401	0.06969
3157.20535	0.06932
3155.27670	0.06864
3153.34805	0.06809
3151.41939	0.06783
3149.49074	0.06759
3147.56209	0.06716
3145.63343	0.06676
3143.70478	0.06649
3141.77613	0.06625
3139.84748	0.06596
3137.91882	0.06562
3135.99017	0.06521
3134.06152	0.06471
3132.13286	0.06434
3130.20421	0.06418
3128.27556	0.06398
3126.34690	0.06383
3124.41825	0.06388
3122.48960	0.06373
3120.56094	0.06329
3118.63229	0.06305
3116.70364	0.06308
3114.77498	0.06313
3112.84633	0.06319
3110.91768	0.06345
3108.98902	0.06366
3107.06037	0.06349
3105.13172	0.06326
3103.20306	0.06330
3101.27441	0.06336
3099.34576	0.06328
3097.41710	0.06312
3095.48845	0.06289
3093.55980	0.06289
3091.63114	0.06340
3089.70249	0.06399
3087.77384	0.06408
3085.84518	0.06380
3083.91653	0.06376
3081.98788	0.06405
3080.05922	0.06426
3078.13057	0.06418
3076.20192	0.06402
3074.27326	0.06400
3072.34461	0.06409
3070.41596	0.06421
3068.48731	0.06421
3066.55865	0.06408
3064.63000	0.06393
3062.70135	0.06371
3060.77269	0.06339
3058.84404	0.06315
3056.91539	0.06297
3054.98673	0.06274
3053.05808	0.06255
3051.12943	0.06243
3049.20077	0.06221
3047.27212	0.06181
3045.34347	0.06136
3043.41481	0.06095
3041.48616	0.06058
3039.55751	0.06019
3037.62885	0.05965
3035.70020	0.05902
3033.77155	0.05859
3031.84289	0.05844
3029.91424	0.05834
3027.98559	0.05809
3026.05693	0.05786
3024.12828	0.05770
3022.19963	0.05734
3020.27097	0.05664
3018.34232	0.05597
3016.41367	0.05567
3014.48501	0.05566
3012.55636	0.05569
3010.62771	0.05569
3008.69905	0.05566
3006.77040	0.05562
3004.84175	0.05549
3002.91309	0.05524
3000.98444	0.05507
2999.05579	0.05518
2997.12714	0.05529
2995.19848	0.05535
2993.26983	0.05561
2991.34118	0.05598
2989.41252	0.05628
2987.48387	0.05650
2985.55522	0.05656
2983.62656	0.05672
2981.69791	0.05729
2979.76926	0.05801
2977.84060	0.05840
2975.91195	0.05835
2973.98330	0.05821
2972.05464	0.05839
2970.12599	0.05877
2968.19734	0.05889
2966.26868	0.05880
2964.34003	0.05883
2962.41138	0.05905
2960.48272	0.05935
2958.55407	0.05962
2956.62542	0.05977
2954.69676	0.05982
2952.76811	0.05979
2950.83946	0.05970
2948.91080	0.05962
2946.98215	0.05958
2945.05350	0.05960
2943.12484	0.05986
2941.19619	0.06049
2939.26754	0.06117
2937.33888	0.06134
2935.41023	0.06094
2933.48158	0.06047
2931.55293	0.06026
2929.62427	0.06022
2927.69562	0.06024
2925.76697	0.06023
2923.83831	0.06013
2921.90966	0.05973
2919.98101	0.05902
2918.05235	0.05847
2916.12370	0.05819
2914.19505	0.05774
2912.26639	0.05711
2910.33774	0.05653
2908.40909	0.05604
2906.48043	0.05574
2904.55178	0.05550
2902.62313	0.05504
2900.69447	0.05451
2898.76582	0.05426
2896.83717	0.05426
2894.90851	0.05423
2892.97986	0.05397
2891.05121	0.05376
2889.12255	0.05391
2887.19390	0.05421
2885.26525	0.05434
2883.33659	0.05423
2881.40794	0.05394
2879.47929	0.05370
2877.55063	0.05360
2875.62198	0.05350
2873.69333	0.05337
2871.76467	0.05327
2869.83602	0.05317
2867.90737	0.05294
2865.97871	0.05252
2864.05006	0.05206
2862.12141	0.05171
2860.19276	0.05150
2858.26410	0.05127
2856.33545	0.05097
2854.40680	0.05081
2852.47814	0.05080
2850.54949	0.05064
2848.62084	0.05021
2846.69218	0.04970
2844.76353	0.04940
2842.83488	0.04922
2840.90622	0.04891
2838.97757	0.04851
2837.04892	0.04821
2835.12026	0.04808
2833.19161	0.04806
2831.26296	0.04800
2829.33430	0.04785
2827.40565	0.04754
2825.47700	0.04704
2823.54834	0.04648
2821.61969	0.04626
2819.69104	0.04644
2817.76238	0.04660
2815.83373	0.04659
2813.90508	0.04653
2811.97642	0.04634
2810.04777	0.04589
2808.11912	0.04545
2806.19046	0.04544
2804.26181	0.04572
2802.33316	0.04581
2800.40450	0.04568
2798.47585	0.04556
2796.54720	0.04539
2794.61855	0.04499
2792.68989	0.04455
2790.76124	0.04438
2788.83259	0.04439
2786.90393	0.04433
2784.97528	0.04414
2783.04663	0.04393
2781.11797	0.04370
2779.18932	0.04355
2777.26067	0.04356
2775.33201	0.04370
2773.40336	0.04383
2771.47471	0.04385
2769.54605	0.04371
2767.61740	0.04339
2765.68875	0.04303
2763.76009	0.04280
2761.83144	0.04273
2759.90279	0.04276
2757.97413	0.04276
2756.04548	0.04257
2754.11683	0.04234
2752.18817	0.04234
2750.25952	0.04241
2748.33087	0.04222
2746.40221	0.04191
2744.47356	0.04175
2742.54491	0.04176
2740.61625	0.04171
2738.68760	0.04157
2736.75895	0.04152
2734.83029	0.04152
2732.90164	0.04148
2730.97299	0.04137
2729.04433	0.04114
2727.11568	0.04088
2725.18703	0.04078
2723.25838	0.04080
2721.32972	0.04077
2719.40107	0.04062
2717.47242	0.04036
2715.54376	0.04017
2713.61511	0.04016
2711.68646	0.04019
2709.75780	0.04012
2707.82915	0.03996
2705.90050	0.03981
2703.97184	0.03969
2702.04319	0.03955
2700.11454	0.03946
2698.18588	0.03948
2696.25723	0.03948
2694.32858	0.03918
2692.39992	0.03873
2690.47127	0.03856
2688.54262	0.03864
2686.61396	0.03870
2684.68531	0.03867
2682.75666	0.03856
2680.82800	0.03845
2678.89935	0.03843
2676.97070	0.03846
2675.04204	0.03848
2673.11339	0.03859
2671.18474	0.03869
2669.25608	0.03857
2667.32743	0.03833
2665.39878	0.03823
2663.47012	0.03822
2661.54147	0.03805
2659.61282	0.03758
2657.68417	0.03703
2655.75551	0.03668
2653.82686	0.03643
2651.89821	0.03619
2649.96955	0.03597
2648.04090	0.03577
2646.11225	0.03565
2644.18359	0.03544
2642.25494	0.03510
2640.32629	0.03496
2638.39763	0.03499
2636.46898	0.03489
2634.54033	0.03466
2632.61167	0.03438
2630.68302	0.03407
2628.75437	0.03391
2626.82571	0.03395
2624.89706	0.03410
2622.96841	0.03405
2621.03975	0.03368
2619.11110	0.03330
2617.18245	0.03315
2615.25379	0.03316
2613.32514	0.03312
2611.39649	0.03300
2609.46783	0.03269
2607.53918	0.03222
2605.61053	0.03193
2603.68187	0.03197
2601.75322	0.03209
2599.82457	0.03205
2597.89591	0.03191
2595.96726	0.03187
2594.03861	0.03199
2592.10995	0.03202
2590.18130	0.03185
2588.25265	0.03150
2586.32400	0.03096
2584.39534	0.03053
2582.46669	0.03049
2580.53804	0.03056
2578.60938	0.03047
2576.68073	0.03034
2574.75208	0.03023
2572.82342	0.03016
2570.89477	0.03021
2568.96612	0.03019
2567.03746	0.03011
2565.10881	0.03010
2563.18016	0.03010
2561.25150	0.02998
2559.32285	0.02980
2557.39420	0.02977
2555.46554	0.02995
2553.53689	0.03003
2551.60824	0.02985
2549.67958	0.02965
2547.75093	0.02947
2545.82228	0.02921
2543.89362	0.02904
2541.96497	0.02903
2540.03632	0.02911
2538.10766	0.02914
2536.17901	0.02885
2534.25036	0.02836
2532.32170	0.02817
2530.39305	0.02836
2528.46440	0.02852
2526.53574	0.02851
2524.60709	0.02848
2522.67844	0.02845
2520.74978	0.02822
2518.82113	0.02782
2516.89248	0.02760
2514.96383	0.02763
2513.03517	0.02774
2511.10652	0.02790
2509.17787	0.02792
2507.24921	0.02769
2505.32056	0.02742
2503.39191	0.02733
2501.46325	0.02727
2499.53460	0.02700
2497.60595	0.02670
2495.67729	0.02677
2493.74864	0.02727
2491.81999	0.02766
2489.89133	0.02742
2487.96268	0.02687
2486.03403	0.02670
2484.10537	0.02693
2482.17672	0.02711
2480.24807	0.02699
2478.31941	0.02679
2476.39076	0.02696
2474.46211	0.02717
2472.53345	0.02693
2470.60480	0.02672
2468.67615	0.02686
2466.74749	0.02687
2464.81884	0.02660
2462.89019	0.02645
2460.96153	0.02631
2459.03288	0.02612
2457.10423	0.02611
2455.17557	0.02604
2453.24692	0.02570
2451.31827	0.02552
2449.38962	0.02555
2447.46096	0.02541
2445.53231	0.02532
2443.60366	0.02555
2441.67500	0.02589
2439.74635	0.02610
2437.81770	0.02616
2435.88904	0.02616
2433.96039	0.02612
2432.03174	0.02605
2430.10308	0.02598
2428.17443	0.02578
2426.24578	0.02547
2424.31712	0.02554
2422.38847	0.02606
2420.45982	0.02634
2418.53116	0.02629
2416.60251	0.02638
2414.67386	0.02637
2412.74520	0.02605
2410.81655	0.02601
2408.88790	0.02651
2406.95924	0.02693
2405.03059	0.02682
2403.10194	0.02650
2401.17328	0.02633
2399.24463	0.02615
2397.31598	0.02589
2395.38732	0.02584
2393.45867	0.02618
2391.53002	0.02649
2389.60136	0.02648
2387.67271	0.02644
2385.74406	0.02653
2383.81540	0.02655
2381.88675	0.02654
2379.95810	0.02669
2378.02945	0.02697
2376.10079	0.02719
2374.17214	0.02721
2372.24349	0.02709
2370.31483	0.02714
2368.38618	0.02744
2366.45753	0.02754
2364.52887	0.02730
2362.60022	0.02708
2360.67157	0.02704
2358.74291	0.02708
2356.81426	0.02713
2354.88561	0.02718
2352.95695	0.02709
2351.02830	0.02685
2349.09965	0.02663
2347.17099	0.02667
2345.24234	0.02689
2343.31369	0.02697
2341.38503	0.02690
2339.45638	0.02698
2337.52773	0.02716
2335.59907	0.02721
2333.67042	0.02716
2331.74177	0.02693
2329.81311	0.02649
2327.88446	0.02596
2325.95581	0.02541
2324.02715	0.02505
2322.09850	0.02505
2320.16985	0.02505
2318.24119	0.02473
2316.31254	0.02424
2314.38389	0.02383
2312.45524	0.02374
2310.52658	0.02395
2308.59793	0.02406
2306.66928	0.02396
2304.74062	0.02371
2302.81197	0.02328
2300.88332	0.02284
2298.95466	0.02255
2297.02601	0.02227
2295.09736	0.02186
2293.16870	0.02142
2291.24005	0.02114
2289.31140	0.02111
2287.38274	0.02103
2285.45409	0.02069
2283.52544	0.02052
2281.59678	0.02081
2279.66813	0.02101
2277.73948	0.02068
2275.81082	0.02030
2273.88217	0.02013
2271.95352	0.01984
2270.02486	0.01945
2268.09621	0.01919
2266.16756	0.01915
2264.23890	0.01945
2262.31025	0.01994
2260.38160	0.02008
2258.45294	0.01977
2256.52429	0.01965
2254.59564	0.01978
2252.66698	0.01946
2250.73833	0.01872
2248.80968	0.01822
2246.88102	0.01802
2244.95237	0.01798
2243.02372	0.01793
2241.09507	0.01758
2239.16641	0.01713
2237.23776	0.01687
2235.30911	0.01656
2233.38045	0.01639
2231.45180	0.01667
2229.52315	0.01719
2227.59449	0.01756
2225.66584	0.01739
2223.73719	0.01700
2221.80853	0.01668
2219.87988	0.01587
2217.95123	0.01491
2216.02257	0.01444
2214.09392	0.01440
2212.16527	0.01453
2210.23661	0.01440
2208.30796	0.01439
2206.37931	0.01458
2204.45065	0.01411
2202.52200	0.01379
2200.59335	0.01423
2198.66469	0.01431
2196.73604	0.01391
2194.80739	0.01345
2192.87873	0.01282
2190.95008	0.01225
2189.02143	0.01212
2187.09277	0.01241
2185.16412	0.01208
2183.23547	0.01077
2181.30681	0.01014
2179.37816	0.01111
2177.44951	0.01225
2175.52085	0.01180
2173.59220	0.01005
2171.66355	0.00882
2169.73490	0.00886
2167.80624	0.00937
2165.87759	0.00940
2163.94894	0.00856
2162.02028	0.00701
2160.09163	0.00591
2158.16298	0.00686
2156.23432	0.00925
2154.30567	0.01087
2152.37702	0.01175
2150.44836	0.01320
2148.51971	0.01459
2146.59106	0.01489
2144.66240	0.01513
2142.73375	0.01584
2140.80510	0.01614
2138.87644	0.01614
2136.94779	0.01640
2135.01914	0.01649
2133.09048	0.01612
2131.16183	0.01597
2129.23318	0.01629
2127.30452	0.01669
2125.37587	0.01710
2123.44722	0.01725
2121.51856	0.01694
2119.58991	0.01649
2117.66126	0.01618
2115.73260	0.01593
2113.80395	0.01582
2111.87530	0.01591
2109.94664	0.01593
2108.01799	0.01597
2106.08934	0.01621
2104.16069	0.01636
2102.23203	0.01609
2100.30338	0.01547
2098.37473	0.01473
2096.44607	0.01492
2094.51742	0.01589
2092.58877	0.01671
2090.66011	0.01698
2088.73146	0.01699
2086.80281	0.01677
2084.87415	0.01635
2082.94550	0.01550
2081.01685	0.01430
2079.08819	0.01311
2077.15954	0.01238
2075.23089	0.01209
2073.30223	0.01189
2071.37358	0.01179
2069.44493	0.01170
2067.51627	0.01150
2065.58762	0.01152
2063.65897	0.01174
2061.73031	0.01206
2059.80166	0.01267
2057.87301	0.01333
2055.94435	0.01340
2054.01570	0.01268
2052.08705	0.01148
2050.15839	0.01031
2048.22974	0.00968
2046.30109	0.00940
2044.37243	0.00873
2042.44378	0.00766
2040.51513	0.00694
2038.58647	0.00670
2036.65782	0.00648
2034.72917	0.00611
2032.80052	0.00596
2030.87186	0.00637
2028.94321	0.00697
2027.01456	0.00737
2025.08590	0.00727
2023.15725	0.00619
2021.22860	0.00509
2019.29994	0.00537
2017.37129	0.00678
2015.44264	0.00844
2013.51398	0.00953
2011.58533	0.00942
2009.65668	0.00848
2007.72802	0.00755
2005.79937	0.00726
2003.87072	0.00802
2001.94206	0.00955
2000.01341	0.01110
1998.08476	0.01211
1996.15610	0.01228
1994.22745	0.01179
1992.29880	0.01135
1990.37014	0.01124
1988.44149	0.01144
1986.51284	0.01195
1984.58418	0.01231
1982.65553	0.01143
1980.72688	0.00880
1978.79822	0.00579
1976.86957	0.00435
1974.94092	0.00462
1973.01226	0.00559
1971.08361	0.00676
1969.15496	0.00778
1967.22631	0.00846
1965.29765	0.00920
1963.36900	0.01023
1961.44035	0.01137
1959.51169	0.01216
1957.58304	0.01235
1955.65439	0.01212
1953.72573	0.01167
1951.79708	0.01139
1949.86843	0.01163
1947.93977	0.01200
1946.01112	0.01222
1944.08247	0.01268
1942.15381	0.01329
1940.22516	0.01345
1938.29651	0.01326
1936.36785	0.01312
1934.43920	0.01302
1932.51055	0.01292
1930.58189	0.01273
1928.65324	0.01254
1926.72459	0.01255
1924.79593	0.01280
1922.86728	0.01341
1920.93863	0.01407
1919.00997	0.01409
1917.08132	0.01365
1915.15267	0.01336
1913.22401	0.01332
1911.29536	0.01341
1909.36671	0.01350
1907.43805	0.01360
1905.50940	0.01380
1903.58075	0.01400
1901.65209	0.01395
1899.72344	0.01370
1897.79479	0.01343
1895.86614	0.01326
1893.93748	0.01318
1892.00883	0.01319
1890.08018	0.01333
1888.15152	0.01348
1886.22287	0.01345
1884.29422	0.01326
1882.36556	0.01320
1880.43691	0.01345
1878.50826	0.01379
1876.57960	0.01378
1874.65095	0.01354
1872.72230	0.01339
1870.79364	0.01327
1868.86499	0.01319
1866.93634	0.01329
1865.00768	0.01345
1863.07903	0.01350
1861.15038	0.01361
1859.22172	0.01379
1857.29307	0.01393
1855.36442	0.01401
1853.43576	0.01388
1851.50711	0.01344
1849.57846	0.01306
1847.64980	0.01307
1845.72115	0.01341
1843.79250	0.01386
1841.86384	0.01407
1839.93519	0.01386
1838.00654	0.01354
1836.07788	0.01348
1834.14923	0.01353
1832.22058	0.01348
1830.29192	0.01340
1828.36327	0.01339
1826.43462	0.01334
1824.50597	0.01307
1822.57731	0.01271
1820.64866	0.01253
1818.72001	0.01276
1816.79135	0.01339
1814.86270	0.01398
1812.93405	0.01412
1811.00539	0.01393
1809.07674	0.01371
1807.14809	0.01355
1805.21943	0.01347
1803.29078	0.01341
1801.36213	0.01326
1799.43347	0.01311
1797.50482	0.01316
1795.57617	0.01332
1793.64751	0.01343
1791.71886	0.01347
1789.79021	0.01337
1787.86155	0.01309
1785.93290	0.01286
1784.00425	0.01293
1782.07559	0.01304
1780.14694	0.01292
1778.21829	0.01272
1776.28963	0.01269
1774.36098	0.01278
1772.43233	0.01289
1770.50367	0.01294
1768.57502	0.01296
1766.64637	0.01300
1764.71771	0.01301
1762.78906	0.01296
1760.86041	0.01291
1758.93176	0.01298
1757.00310	0.01320
1755.07445	0.01339
1753.14580	0.01340
1751.21714	0.01339
1749.28849	0.01360
1747.35984	0.01398
1745.43118	0.01430
1743.50253	0.01451
1741.57388	0.01473
1739.64522	0.01502
1737.71657	0.01530
1735.78792	0.01551
1733.85926	0.01577
1731.93061	0.01603
1730.00196	0.01623
1728.07330	0.01652
1726.14465	0.01693
1724.21600	0.01731
1722.28734	0.01762
1720.35869	0.01790
1718.43004	0.01826
1716.50138	0.01877
1714.57273	0.01936
1712.64408	0.01998
1710.71542	0.02076
1708.78677	0.02177
1706.85812	0.02303
1704.92946	0.02456
1703.00081	0.02634
1701.07216	0.02838
1699.14350	0.03073
1697.21485	0.03333
1695.28620	0.03603
1693.35754	0.03866
1691.42889	0.04123
1689.50024	0.04387
1687.57159	0.04662
1685.64293	0.04951
1683.71428	0.05259
1681.78563	0.05587
1679.85697	0.05946
1677.92832	0.06334
1675.99967	0.06737
1674.07101	0.07146
1672.14236	0.07564
1670.21371	0.07995
1668.28505	0.08428
1666.35640	0.08843
1664.42775	0.09239
1662.49909	0.09619
1660.57044	0.09972
1658.64179	0.10280
1656.71313	0.10542
1654.78448	0.10771
1652.85583	0.10981
1650.92717	0.11157
1648.99852	0.11295
1647.06987	0.11418
1645.14121	0.11528
1643.21256	0.11620
1641.28391	0.11704
1639.35525	0.11780
1637.42660	0.11834
1635.49795	0.11858
1633.56929	0.11850
1631.64064	0.11798
1629.71199	0.11691
1627.78333	0.11515
1625.85468	0.11257
1623.92603	0.10924
1621.99738	0.10539
1620.06872	0.10125
1618.14007	0.09695
1616.21142	0.09266
1614.28276	0.08849
1612.35411	0.08446
1610.42546	0.08057
1608.49680	0.07693
1606.56815	0.07355
1604.63950	0.07043
1602.71084	0.06761
1600.78219	0.06514
1598.85354	0.06296
1596.92488	0.06103
1594.99623	0.05937
1593.06758	0.05802
1591.13892	0.05700
1589.21027	0.05634
1587.28162	0.05599
1585.35296	0.05584
1583.42431	0.05584
1581.49566	0.05613
1579.56700	0.05679
1577.63835	0.05781
1575.70970	0.05921
1573.78104	0.06091
1571.85239	0.06282
1569.92374	0.06498
1567.99508	0.06736
1566.06643	0.06990
1564.13778	0.07255
1562.20912	0.07518
1560.28047	0.07774
1558.35182	0.08029
1556.42316	0.08269
1554.49451	0.08479
1552.56586	0.08650
1550.63721	0.08784
1548.70855	0.08894
1546.77990	0.08987
1544.85125	0.09055
1542.92259	0.09083
1540.99394	0.09080
1539.06529	0.09066
1537.13663	0.09048
1535.20798	0.09009
1533.27933	0.08944
1531.35067	0.08862
1529.42202	0.08772
1527.49337	0.08675
1525.56471	0.08568
1523.63606	0.08447
1521.70741	0.08320
1519.77875	0.08191
1517.85010	0.08049
1515.92145	0.07886
1513.99279	0.07701
1512.06414	0.07489
1510.13549	0.07257
1508.20683	0.07018
1506.27818	0.06780
1504.34953	0.06543
1502.42087	0.06303
1500.49222	0.06061
1498.56357	0.05825
1496.63491	0.05603
1494.70626	0.05389
1492.77761	0.05185
1490.84895	0.05000
1488.92030	0.04842
1486.99165	0.04712
1485.06299	0.04616
1483.13434	0.04557
1481.20569	0.04532
1479.27704	0.04536
1477.34838	0.04573
1475.41973	0.04639
1473.49108	0.04731
1471.56242	0.04847
1469.63377	0.04978
1467.70512	0.05118
1465.77646	0.05255
1463.84781	0.05387
1461.91916	0.05522
1459.99050	0.05659
1458.06185	0.05795
1456.13320	0.05919
1454.20454	0.06019
1452.27589	0.06083
1450.34724	0.06104
1448.41858	0.06082
1446.48993	0.06036
1444.56128	0.05981
1442.63262	0.05918
1440.70397	0.05841
1438.77532	0.05747
1436.84666	0.05631
1434.91801	0.05499
1432.98936	0.05368
1431.06070	0.05257
1429.13205	0.05173
1427.20340	0.05113
1425.27474	0.05071
1423.34609	0.05048
1421.41744	0.05041
1419.48878	0.05039
1417.56013	0.05039
1415.63148	0.05045
1413.70283	0.05064
1411.77417	0.05091
1409.84552	0.05124
1407.91687	0.05163
1405.98821	0.05199
1404.05956	0.05220
1402.13091	0.05222
1400.20225	0.05207
1398.27360	0.05183
1396.34495	0.05156
1394.41629	0.05130
1392.48764	0.05111
1390.55899	0.05094
1388.63033	0.05077
1386.70168	0.05059
1384.77303	0.05034
1382.84437	0.04997
1380.91572	0.04953
1378.98707	0.04908
1377.05841	0.04863
1375.12976	0.04815
1373.20111	0.04765
1371.27245	0.04705
1369.34380	0.04630
1367.41515	0.04547
1365.48649	0.04468
1363.55784	0.04398
1361.62919	0.04342
1359.70053	0.04299
1357.77188	0.04275
1355.84323	0.04276
1353.91457	0.04301
1351.98592	0.04339
1350.05727	0.04389
1348.12861	0.04458
1346.19996	0.04541
1344.27131	0.04623
1342.34266	0.04692
1340.41400	0.04749
1338.48535	0.04790
1336.55670	0.04807
1334.62804	0.04794
1332.69939	0.04751
1330.77074	0.04684
1328.84208	0.04603
1326.91343	0.04530
1324.98478	0.04474
1323.05612	0.04437
1321.12747	0.04413
1319.19882	0.04395
1317.27016	0.04376
1315.34151	0.04353
1313.41286	0.04325
1311.48420	0.04291
1309.55555	0.04252
1307.62690	0.04216
1305.69824	0.04189
1303.76959	0.04173
1301.84094	0.04163
1299.91228	0.04152
1297.98363	0.04138
1296.05498	0.04132
1294.12632	0.04151
1292.19767	0.04197
1290.26902	0.04257
1288.34036	0.04321
1286.41171	0.04383
1284.48306	0.04439
1282.55440	0.04485
1280.62575	0.04515
1278.69710	0.04529
1276.76845	0.04529
1274.83979	0.04523
1272.91114	0.04526
1270.98249	0.04546
1269.05383	0.04576
1267.12518	0.04606
1265.19653	0.04642
1263.26787	0.04688
1261.33922	0.04739
1259.41057	0.04796
1257.48191	0.04863
1255.55326	0.04942
1253.62461	0.05029
1251.69595	0.05117
1249.76730	0.05206
1247.83865	0.05300
1245.90999	0.05397
1243.98134	0.05488
1242.05269	0.05574
1240.12403	0.05653
1238.19538	0.05711
1236.26673	0.05742
1234.33807	0.05748
1232.40942	0.05722
1230.48077	0.05660
1228.55211	0.05567
1226.62346	0.05449
1224.69481	0.05310
1222.76615	0.05164
1220.83750	0.05031
1218.90885	0.04925
1216.98019	0.04846
1215.05154	0.04789
1213.12289	0.04751
1211.19423	0.04735
1209.26558	0.04745
1207.33693	0.04773
1205.40828	0.04794
1203.47962	0.04792
1201.55097	0.04767
1199.62232	0.04736
1197.69366	0.04658
1195.76501	0.04565
1193.83636	0.04473
1191.90770	0.04385
1189.97905	0.04292
1188.05040	0.04203
1186.12174	0.04131
1184.19309	0.04072
1182.26444	0.04025
1180.33578	0.03991
1178.40713	0.03965
1176.47848	0.03951
1174.54982	0.03946
1172.62117	0.03938
1170.69252	0.03931
1168.76386	0.03930
1166.83521	0.03931
1164.90656	0.03930
1162.97790	0.03930
1161.04925	0.03914
1159.12060	0.03873
1157.19194	0.03821
1155.26329	0.03769
1153.33464	0.03710
1151.40598	0.03639
1149.47733	0.03562
1147.54868	0.03486
1145.62002	0.03429
1143.69137	0.03395
1141.76272	0.03360
1139.83406	0.03310
1137.90541	0.03265
1135.97676	0.03244
1134.04811	0.03237
1132.11945	0.03233
1130.19080	0.03228
1128.26215	0.03224
1126.33349	0.03217
1124.40484	0.03206
1122.47619	0.03191
1120.54753	0.03176
1118.61888	0.03167
1116.69023	0.03167
1114.76157	0.03170
1112.83292	0.03171
1110.90427	0.03187
1108.97561	0.03219
1107.04696	0.03242
1105.11831	0.03249
1103.18965	0.03261
1101.26100	0.03294
1099.33235	0.03343
1097.40369	0.03393
1095.47504	0.03429
1093.54639	0.03462
1091.61773	0.03524
1089.68908	0.03613
1087.76043	0.03701
1085.83177	0.03781
1083.90312	0.03858
1081.97447	0.03918
1080.04581	0.03951
1078.11716	0.03960
1076.18851	0.03942
1074.25985	0.03899
1072.33120	0.03858
1070.40255	0.03837
1068.47390	0.03829
1066.54524	0.03827
1064.61659	0.03827
1062.68794	0.03824
1060.75928	0.03809
1058.83063	0.03777
1056.90198	0.03736
1054.97332	0.03697
1053.04467	0.03666
1051.11602	0.03636
1049.18736	0.03601
1047.25871	0.03565
1045.33006	0.03541
1043.40140	0.03529
1041.47275	0.03526
1039.54410	0.03532
1037.61544	0.03551
1035.68679	0.03583
1033.75814	0.03617
1031.82948	0.03630
1029.90083	0.03606
1027.97218	0.03553
1026.04352	0.03484
1024.11487	0.03410
1022.18622	0.03343
1020.25756	0.03283
1018.32891	0.03226
1016.40026	0.03183
1014.47160	0.03148
1012.54295	0.03104
1010.61430	0.03056
1008.68564	0.03010
1006.75699	0.02963
1004.82834	0.02914
1002.89968	0.02869
1000.97103	0.02828
999.04238	0.02791
997.11373	0.02761
995.18507	0.02737
993.25642	0.02707
991.32777	0.02671
989.39911	0.02641
987.47046	0.02628
985.54181	0.02627
983.61315	0.02623
981.68450	0.02620
979.75585	0.02629
977.82719	0.02639
975.89854	0.02634
973.96989	0.02625
972.04123	0.02616
970.11258	0.02594
968.18393	0.02569
966.25527	0.02550
964.32662	0.02528
962.39797	0.02505
960.46931	0.02492
958.54066	0.02488
956.61201	0.02478
954.68335	0.02458
952.75470	0.02443
950.82605	0.02441
948.89739	0.02440
946.96874	0.02437
945.04009	0.02434
943.11143	0.02432
941.18278	0.02443
939.25413	0.02454
937.32547	0.02448
935.39682	0.02444
933.46817	0.02455
931.53952	0.02462
929.61086	0.02452
927.68221	0.02434
925.75356	0.02426
923.82490	0.02435
921.89625	0.02445
919.96760	0.02438
918.03894	0.02420
916.11029	0.02409
914.18164	0.02407
912.25298	0.02399
910.32433	0.02382
908.39568	0.02358
906.46702	0.02334
904.53837	0.02310
902.60972	0.02299
900.68106	0.02302
898.75241	0.02302
896.82376	0.02302
894.89510	0.02307
892.96645	0.02301
891.03780	0.02285
889.10914	0.02270
887.18049	0.02261
885.25184	0.02256
883.32318	0.02259
881.39453	0.02268
879.46588	0.02277
877.53722	0.02281
875.60857	0.02280
873.67992	0.02276
871.75126	0.02267
869.82261	0.02258
867.89396	0.02256
865.96530	0.02251
864.03665	0.02246
862.10800	0.02255
860.17935	0.02264
858.25069	0.02258
856.32204	0.02246
854.39339	0.02241
852.46473	0.02247
850.53608	0.02259
848.60743	0.02264
846.67877	0.02259
844.75012	0.02254
842.82147	0.02254
840.89281	0.02251
838.96416	0.02244
837.03551	0.02243
835.10685	0.02247
833.17820	0.02244
831.24955	0.02240
829.32089	0.02249
827.39224	0.02259
825.46359	0.02266
823.53493	0.02284
821.60628	0.02322
819.67763	0.02363
817.74897	0.02387
815.82032	0.02394
813.89167	0.02388
811.96301	0.02384
810.03436	0.02404
808.10571	0.02436
806.17705	0.02451
804.24840	0.02453
802.31975	0.02462
800.39109	0.02471
798.46244	0.02478
796.53379	0.02504
794.60513	0.02544
792.67648	0.02577
790.74783	0.02601
788.81918	0.02617
786.89052	0.02627
784.96187	0.02637
783.03322	0.02657
781.10456	0.02681
779.17591	0.02693
777.24726	0.02698
775.31860	0.02709
773.38995	0.02731
771.46130	0.02764
769.53264	0.02799
767.60399	0.02827
765.67534	0.02846
763.74668	0.02858
761.81803	0.02873
759.88938	0.02898
757.96072	0.02926
756.03207	0.02961
754.10342	0.03001
752.17476	0.03026
750.24611	0.03036
748.31746	0.03045
746.38880	0.03068
744.46015	0.03104
742.53150	0.03128
740.60284	0.03136
738.67419	0.03155
736.74554	0.03181
734.81688	0.03203
732.88823	0.03232
730.95958	0.03267
729.03092	0.03304
727.10227	0.03338
725.17362	0.03359
723.24497	0.03379
721.31631	0.03410
719.38766	0.03435
717.45901	0.03460
715.53035	0.03488
713.60170	0.03509
711.67305	0.03521
709.74439	0.03533
707.81574	0.03553
705.88709	0.03583
703.95843	0.03617
702.02978	0.03645
700.10113	0.03660
698.17247	0.03670
696.24382	0.03683
694.31517	0.03691
692.38651	0.03692
690.45786	0.03699
688.52921	0.03724
686.60055	0.03758
684.67190	0.03784
682.74325	0.03794
680.81459	0.03802
678.88594	0.03818
676.95729	0.03841
675.02863	0.03867
673.09998	0.03894
671.17133	0.03922
669.24267	0.03943
667.31402	0.03952
665.38537	0.03958
663.45671	0.03971
661.52806	0.03988
659.59941	0.04004
657.67075	0.04018
655.74210	0.04022
653.81345	0.04013
651.88480	0.04010
649.95614	0.04031
648.02749	0.04063
646.09884	0.04082
644.17018	0.04078
642.24153	0.04064
640.31288	0.04060
638.38422	0.04068
636.45557	0.04083
634.52692	0.04102
632.59826	0.04097
630.66961	0.04133
628.74096	0.04367
626.81230	0.04005
624.88365	0.03491
622.95500	0.03169
621.02634	0.03146
619.09769	0.03306
617.16904	0.03685
615.24038	0.04197
613.31173	0.04495
611.38308	0.04445
609.45442	0.04229
607.52577	0.04048
605.59712	0.03956
603.66846	0.03979
601.73981	0.04078
599.81116	0.04129
597.88250	0.04122
595.95385	0.04116
594.02520	0.04121
592.09654	0.04137
590.16789	0.04155
588.23924	0.04154
586.31059	0.04150
584.38193	0.04163
582.45328	0.04176
580.52463	0.04168
578.59597	0.04151
576.66732	0.04150
574.73867	0.04159
572.81001	0.04149
570.88136	0.04113
568.95271	0.04076
567.02405	0.04078
565.09540	0.04104
563.16675	0.04132
561.23809	0.04167
559.30944	0.04202
557.38079	0.04222
555.45213	0.04239
553.52348	0.04261
551.59483	0.04256
549.66617	0.04212
547.73752	0.04178
545.80887	0.04172
543.88021	0.04151
541.95156	0.04123
540.02291	0.04123
538.09425	0.04134
536.16560	0.04128
534.23695	0.04124
532.30829	0.04137
530.37964	0.04140
528.45099	0.04121
526.52233	0.04105
524.59368	0.04095
522.66503	0.04062
520.73637	0.04012
518.80772	0.03973
516.87907	0.03951
514.95042	0.03940
513.02176	0.03937
511.09311	0.03928
509.16446	0.03907
507.23580	0.03883
505.30715	0.03861
503.37850	0.03828
501.44984	0.03792
499.52119	0.03777
497.59254	0.03767
495.66388	0.03744
493.73523	0.03716
491.80658	0.03687
489.87792	0.03653
487.94927	0.03618
486.02062	0.03591
484.09196	0.03571
482.16331	0.03544
480.23466	0.03507
478.30600	0.03480
476.37735	0.03476
474.44870	0.03469
472.52004	0.03431
470.59139	0.03374
468.66274	0.03332
466.73408	0.03320
464.80543	0.03325
462.87678	0.03316
460.94812	0.03281
459.01947	0.03230
457.09082	0.03179
455.16216	0.03139
453.23351	0.03109
451.30486	0.03087
449.37620	0.03066
447.44755	0.03045
445.51890	0.03032
443.59025	0.03027
441.66159	0.03005
439.73294	0.02971
437.80429	0.02953
435.87563	0.02949
433.94698	0.02936
432.01833	0.02913
430.08967	0.02889
428.16102	0.02858
426.23237	0.02817
424.30371	0.02782
422.37506	0.02767
420.44641	0.02761
418.51775	0.02746
416.58910	0.02720
414.66045	0.02699
412.73179	0.02687
410.80314	0.02673
408.87449	0.02658
406.94583	0.02649
405.01718	0.02636
403.08853	0.02614
401.15987	0.02596
399.23122	0.02587
