3996.16951	0.04686
3994.24086	0.04657
3992.31220	0.04615
3990.38355	0.04619
3988.45490	0.04651
3986.52624	0.04640
3984.59759	0.04581
3982.66894	0.04558
3980.74028	0.04616
3978.81163	0.04673
3976.88298	0.04658
3974.95432	0.04623
3973.02567	0.04625
3971.09702	0.04625
3969.16836	0.04579
3967.23971	0.04534
3965.31106	0.04536
3963.38240	0.04556
3961.45375	0.04561
3959.52510	0.04568
3957.59645	0.04587
3955.66779	0.04590
3953.73914	0.04559
3951.81049	0.04514
3949.88183	0.04502
3947.95318	0.04525
3946.02453	0.04528
3944.09587	0.04497
3942.16722	0.04453
3940.23857	0.04406
3938.30991	0.04360
3936.38126	0.04355
3934.45261	0.04423
3932.52395	0.04493
3930.59530	0.04465
3928.66665	0.04389
3926.73799	0.04380
3924.80934	0.04445
3922.88069	0.04488
3920.95203	0.04474
3919.02338	0.04442
3917.09473	0.04425
3915.16607	0.04394
3913.23742	0.04351
3911.30877	0.04318
3909.38011	0.04290
3907.45146	0.04275
3905.52281	0.04302
3903.59415	0.04346
3901.66550	0.04387
3899.73685	0.04424
3897.80819	0.04410
3895.87954	0.04363
3893.95089	0.04340
3892.02224	0.04347
3890.09358	0.04304
3888.16493	0.04266
3886.23628	0.04293
3884.30762	0.04269
3882.37897	0.04241
3880.45032	0.04242
3878.52166	0.04208
3876.59301	0.04212
3874.66436	0.04230
3872.73570	0.04213
3870.80705	0.04254
3868.87840	0.04275
3866.94974	0.04279
3865.02109	0.04322
3863.09244	0.04320
3861.16378	0.04294
3859.23513	0.04242
3857.30648	0.04197
3855.37782	0.04261
3853.44917	0.04308
3851.52052	0.04248
3849.59186	0.04229
3847.66321	0.04211
3845.73456	0.04120
3843.80590	0.04017
3841.87725	0.03963
3839.94860	0.04019
3838.01994	0.04115
3836.09129	0.04098
3834.16264	0.04061
3832.23398	0.04067
3830.30533	0.04068
3828.37668	0.04075
3826.44803	0.04071
3824.51937	0.04038
3822.59072	0.04074
3820.66207	0.04082
3818.73341	0.04014
3816.80476	0.04018
3814.87611	0.03997
3812.94745	0.03976
3811.01880	0.04002
3809.09015	0.04010
3807.16149	0.03998
3805.23284	0.03912
3803.30419	0.03877
3801.37553	0.03902
3799.44688	0.03874
3797.51823	0.03894
3795.58957	0.03884
3793.66092	0.03828
3791.73227	0.03856
3789.80361	0.03951
3787.87496	0.04015
3785.94631	0.04001
3784.01765	0.03931
3782.08900	0.03881
3780.16035	0.03891
3778.23169	0.03881
3776.30304	0.03851
3774.37439	0.03875
3772.44573	0.03919
3770.51708	0.03911
3768.58843	0.03853
3766.65977	0.03838
3764.73112	0.03836
3762.80247	0.03797
3760.87381	0.03785
3758.94516	0.03823
3757.01651	0.03871
3755.08786	0.03867
3753.15920	0.03869
3751.23055	0.03875
3749.30190	0.03799
3747.37324	0.03696
3745.44459	0.03764
3743.51594	0.03770
3741.58728	0.03663
3739.65863	0.03656
3737.72998	0.03717
3735.80132	0.03772
3733.87267	0.03767
3731.94402	0.03718
3730.01536	0.03626
3728.08671	0.03628
3726.15806	0.03699
3724.22940	0.03718
3722.30075	0.03701
3720.37210	0.03683
3718.44344	0.03667
3716.51479	0.03631
3714.58614	0.03596
3712.65748	0.03571
3710.72883	0.03543
3708.80018	0.03562
3706.87152	0.03587
3704.94287	0.03578
3703.01422	0.03578
3701.08556	0.03578
3699.15691	0.03561
3697.22826	0.03551
3695.29960	0.03565
3693.37095	0.03603
3691.44230	0.03615
3689.51365	0.03593
3687.58499	0.03551
3685.65634	0.03535
3683.72769	0.03584
3681.79903	0.03600
3679.87038	0.03543
3677.94173	0.03496
3676.01307	0.03516
3674.08442	0.03456
3672.15577	0.03442
3670.22711	0.03539
3668.29846	0.03594
3666.36981	0.03604
3664.44115	0.03566
3662.51250	0.03548
3660.58385	0.03601
3658.65519	0.03692
3656.72654	0.03760
3654.79789	0.03709
3652.86923	0.03635
3650.94058	0.03681
3649.01193	0.03758
3647.08327	0.03758
3645.15462	0.03744
3643.22597	0.03785
3641.29731	0.03850
3639.36866	0.03897
3637.44001	0.03919
3635.51135	0.03927
3633.58270	0.03922
3631.65405	0.03915
3629.72539	0.03960
3627.79674	0.03980
3625.86809	0.03984
3623.93943	0.04003
3622.01078	0.04026
3620.08213	0.04089
3618.15348	0.04148
3616.22482	0.04179
3614.29617	0.04202
3612.36752	0.04203
3610.43886	0.04232
3608.51021	0.04300
3606.58156	0.04325
3604.65290	0.04319
3602.72425	0.04331
3600.79560	0.04390
3598.86694	0.04465
3596.93829	0.04505
3595.00964	0.04514
3593.08098	0.04512
3591.15233	0.04496
3589.22368	0.04483
3587.29502	0.04482
3585.36637	0.04523
3583.43772	0.04638
3581.50906	0.04767
3579.58041	0.04852
3577.65176	0.04900
3575.72310	0.04912
3573.79445	0.04886
3571.86580	0.04864
3569.93714	0.04889
3568.00849	0.04955
3566.07984	0.05008
3564.15118	0.05064
3562.22253	0.05139
3560.29388	0.05205
3558.36522	0.05278
3556.43657	0.05357
3554.50792	0.05396
3552.57927	0.05397
3550.65061	0.05404
3548.72196	0.05462
3546.79331	0.05549
3544.86465	0.05613
3542.93600	0.05649
3541.00735	0.05651
3539.07869	0.05631
3537.15004	0.05637
3535.22139	0.05674
3533.29273	0.05722
3531.36408	0.05778
3529.43543	0.05829
3527.50677	0.05875
3525.57812	0.05940
3523.64947	0.06021
3521.72081	0.06080
3519.79216	0.06113
3517.86351	0.06159
3515.93485	0.06222
3514.00620	0.06253
3512.07755	0.06267
3510.14889	0.06316
3508.22024	0.06358
3506.29159	0.06366
3504.36293	0.06388
3502.43428	0.06414
3500.50563	0.06435
3498.57697	0.06487
3496.64832	0.06539
3494.71967	0.06563
3492.79101	0.06609
3490.86236	0.06690
3488.93371	0.06751
3487.00506	0.06771
3485.07640	0.06769
3483.14775	0.06783
3481.21910	0.06817
3479.29044	0.06838
3477.36179	0.06835
3475.43314	0.06839
3473.50448	0.06870
3471.57583	0.06914
3469.64718	0.06964
3467.71852	0.07020
3465.78987	0.07052
3463.86122	0.07055
3461.93256	0.07067
3460.00391	0.07119
3458.07526	0.07185
3456.14660	0.07209
3454.21795	0.07193
3452.28930	0.07203
3450.36064	0.07273
3448.43199	0.07347
3446.50334	0.07357
3444.57468	0.07321
3442.64603	0.07319
3440.71738	0.07358
3438.78872	0.07392
3436.86007	0.07413
3434.93142	0.07439
3433.00276	0.07484
3431.07411	0.07562
3429.14546	0.07634
3427.21680	0.07650
3425.28815	0.07646
3423.35950	0.07684
3421.43084	0.07751
3419.50219	0.07793
3417.57354	0.07814
3415.64489	0.07868
3413.71623	0.07940
3411.78758	0.07965
3409.85893	0.07944
3407.93027	0.07932
3406.00162	0.07937
3404.07297	0.07947
3402.14431	0.07983
3400.21566	0.08040
3398.28701	0.08074
3396.35835	0.08112
3394.42970	0.08189
3392.50105	0.08247
3390.57239	0.08231
3388.64374	0.08194
3386.71509	0.08184
3384.78643	0.08180
3382.85778	0.08171
3380.92913	0.08184
3379.00047	0.08242
3377.07182	0.08327
3375.14317	0.08401
3373.21451	0.08452
3371.28586	0.08493
3369.35721	0.08554
3367.42855	0.08633
3365.49990	0.08698
3363.57125	0.08744
3361.64259	0.08792
3359.71394	0.08849
3357.78529	0.08904
3355.85663	0.08958
3353.92798	0.09025
3351.99933	0.09110
3350.07068	0.09200
3348.14202	0.09275
3346.21337	0.09313
3344.28472	0.09328
3342.35606	0.09381
3340.42741	0.09484
3338.49876	0.09575
3336.57010	0.09612
3334.64145	0.09634
3332.71280	0.09701
3330.78414	0.09811
3328.85549	0.09901
3326.92684	0.09943
3324.99818	0.09967
3323.06953	0.10006
3321.14088	0.10051
3319.21222	0.10061
3317.28357	0.10044
3315.35492	0.10062
3313.42626	0.10119
3311.49761	0.10177
3309.56896	0.10217
3307.64030	0.10218
3305.71165	0.10184
3303.78300	0.10163
3301.85434	0.10183
3299.92569	0.10219
3297.99704	0.10231
3296.06838	0.10201
3294.13973	0.10145
3292.21108	0.10097
3290.28242	0.10075
3288.35377	0.10074
3286.42512	0.10077
3284.49646	0.10076
3282.56781	0.10084
3280.63916	0.10100
3278.71051	0.10086
3276.78185	0.10043
3274.85320	0.09999
3272.92455	0.09932
3270.99589	0.09830
3269.06724	0.09750
3267.13859	0.09725
3265.20993	0.09726
3263.28128	0.09701
3261.35263	0.09642
3259.42397	0.09578
3257.49532	0.09520
3255.56667	0.09466
3253.63801	0.09420
3251.70936	0.09388
3249.78071	0.09358
3247.85205	0.09309
3245.92340	0.09255
3243.99475	0.09224
3242.06609	0.09210
3240.13744	0.09197
3238.20879	0.09183
3236.28013	0.09152
3234.35148	0.09088
3232.42283	0.09022
3230.49417	0.08984
3228.56552	0.08979
3226.63687	0.08980
3224.70821	0.08947
3222.77956	0.08885
3220.85091	0.08829
3218.92225	0.08791
3216.99360	0.08766
3215.06495	0.08743
3213.13630	0.08727
3211.20764	0.08702
3209.27899	0.08650
3207.35034	0.08600
3205.42168	0.08579
3203.49303	0.08575
3201.56438	0.08574
3199.63572	0.08546
3197.70707	0.08478
3195.77842	0.08409
3193.84976	0.08370
3191.92111	0.08341
3189.99246	0.08308
3188.06380	0.08280
3186.13515	0.08247
3184.20650	0.08189
3182.27784	0.08127
3180.34919	0.08076
3178.42054	0.08031
3176.49188	0.07982
3174.56323	0.07930
3172.63458	0.07875
3170.70592	0.07799
3168.77727	0.07708
3166.84862	0.07637
3164.91996	0.07577
3162.99131	0.07513
3161.06266	0.07478
3159.13400	0.07479
3157.20535	0.07454
3155.27670	0.07379
3153.34804	0.07300
3151.41939	0.07251
3149.49074	0.07222
3147.56209	0.07190
3145.63343	0.07155
3143.70478	0.07113
3141.77613	0.07045
3139.84747	0.06974
3137.91882	0.06939
3135.99017	0.06927
3134.06151	0.06896
3132.13286	0.06848
3130.20421	0.06827
3128.27555	0.06823
3126.34690	0.06798
3124.41825	0.06766
3122.48959	0.06738
3120.56094	0.06719
3118.63229	0.06726
3116.70363	0.06729
3114.77498	0.06691
3112.84633	0.06656
3110.91767	0.06676
3108.98902	0.06714
3107.06037	0.06719
3105.13171	0.06719
3103.20306	0.06747
3101.27441	0.06767
3099.34575	0.06748
3097.41710	0.06714
3095.48845	0.06699
3093.55979	0.06721
3091.63114	0.06764
3089.70249	0.06783
3087.77383	0.06775
3085.84518	0.06781
3083.91653	0.06814
3081.98787	0.06848
3080.05922	0.06864
3078.13057	0.06868
3076.20192	0.06863
3074.27326	0.06836
3072.34461	0.06802
3070.41596	0.06805
3068.48730	0.06835
3066.55865	0.06846
3064.63000	0.06821
3062.70134	0.06777
3060.77269	0.06738
3058.84404	0.06714
3056.91538	0.06699
3054.98673	0.06669
3053.05808	0.06614
3051.12942	0.06552
3049.20077	0.06507
3047.27212	0.06474
3045.34346	0.06435
3043.41481	0.06379
3041.48616	0.06324
3039.55750	0.06270
3037.62885	0.06201
3035.70020	0.06138
3033.77154	0.06114
3031.84289	0.06114
3029.91424	0.06109
3027.98558	0.06080
3026.05693	0.06033
3024.12828	0.05982
3022.19962	0.05923
3020.27097	0.05851
3018.34232	0.05785
3016.41366	0.05756
3014.48501	0.05773
3012.55636	0.05798
3010.62771	0.05792
3008.69905	0.05771
3006.77040	0.05764
3004.84175	0.05758
3002.91309	0.05744
3000.98444	0.05732
2999.05579	0.05727
2997.12713	0.05732
2995.19848	0.05753
2993.26983	0.05782
2991.34117	0.05802
2989.41252	0.05823
2987.48387	0.05855
2985.55521	0.05884
2983.62656	0.05916
2981.69791	0.05981
2979.76925	0.06049
2977.84060	0.06062
2975.91195	0.06046
2973.98329	0.06050
2972.05464	0.06075
2970.12599	0.06120
2968.19733	0.06177
2966.26868	0.06224
2964.34003	0.06244
2962.41137	0.06237
2960.48272	0.06237
2958.55407	0.06252
2956.62541	0.06259
2954.69676	0.06249
2952.76811	0.06237
2950.83945	0.06232
2948.91080	0.06250
2946.98215	0.06293
2945.05349	0.06322
2943.12484	0.06323
2941.19619	0.06344
2939.26754	0.06393
2937.33888	0.06420
2935.41023	0.06410
2933.48158	0.06397
2931.55292	0.06385
2929.62427	0.06361
2927.69562	0.06345
2925.76696	0.06339
2923.83831	0.06309
2921.90966	0.06250
2919.98100	0.06193
2918.05235	0.06148
2916.12370	0.06090
2914.19504	0.06000
2912.26639	0.05911
2910.33774	0.05846
2908.40908	0.05789
2906.48043	0.05745
2904.55178	0.05715
2902.62312	0.05676
2900.69447	0.05628
2898.76582	0.05594
2896.83716	0.05573
2894.90851	0.05550
2892.97986	0.05524
2891.05120	0.05511
2889.12255	0.05521
2887.19390	0.05541
2885.26524	0.05551
2883.33659	0.05542
2881.40794	0.05528
2879.47928	0.05516
2877.55063	0.05505
2875.62198	0.05500
2873.69333	0.05494
2871.76467	0.05468
2869.83602	0.05430
2867.90737	0.05396
2865.97871	0.05362
2864.05006	0.05326
2862.12141	0.05290
2860.19275	0.05251
2858.26410	0.05215
2856.33545	0.05185
2854.40679	0.05166
2852.47814	0.05151
2850.54949	0.05123
2848.62083	0.05075
2846.69218	0.05032
2844.76353	0.05006
2842.83487	0.04965
2840.90622	0.04899
2838.97757	0.04841
2837.04891	0.04810
2835.12026	0.04808
2833.19161	0.04819
2831.26295	0.04818
2829.33430	0.04792
2827.40565	0.04753
2825.47699	0.04714
2823.54834	0.04679
2821.61969	0.04648
2819.69103	0.04634
2817.76238	0.04643
2815.83373	0.04652
2813.90507	0.04640
2811.97642	0.04611
2810.04777	0.04576
2808.11912	0.04547
2806.19046	0.04538
2804.26181	0.04538
2802.33316	0.04536
2800.40450	0.04536
2798.47585	0.04533
2796.54720	0.04506
2794.61854	0.04464
2792.68989	0.04436
2790.76124	0.04419
2788.83258	0.04406
2786.90393	0.04400
2784.97528	0.04389
2783.04662	0.04365
2781.11797	0.04343
2779.18932	0.04330
2777.26066	0.04327
2775.33201	0.04326
2773.40336	0.04317
2771.47470	0.04297
2769.54605	0.04275
2767.61740	0.04261
2765.68874	0.04248
2763.76009	0.04235
2761.83144	0.04234
2759.90278	0.04245
2757.97413	0.04237
2756.04548	0.04206
2754.11682	0.04182
2752.18817	0.04181
2750.25952	0.04175
2748.33086	0.04149
2746.40221	0.04129
2744.47356	0.04117
2742.54490	0.04097
2740.61625	0.04076
2738.68760	0.04071
2736.75895	0.04076
2734.83029	0.04074
2732.90164	0.04066
2730.97299	0.04054
2729.04433	0.04040
2727.11568	0.04035
2725.18703	0.04031
2723.25837	0.04017
2721.32972	0.04001
2719.40107	0.03985
2717.47241	0.03954
2715.54376	0.03921
2713.61511	0.03910
2711.68645	0.03918
2709.75780	0.03931
2707.82915	0.03929
2705.90049	0.03908
2703.97184	0.03882
2702.04319	0.03868
2700.11453	0.03861
2698.18588	0.03856
2696.25723	0.03846
2694.32857	0.03824
2692.39992	0.03801
2690.47127	0.03796
2688.54261	0.03799
2686.61396	0.03795
2684.68531	0.03794
2682.75665	0.03794
2680.82800	0.03776
2678.89935	0.03754
2676.97069	0.03749
2675.04204	0.03741
2673.11339	0.03729
2671.18474	0.03737
2669.25608	0.03744
2667.32743	0.03734
2665.39878	0.03724
2663.47012	0.03719
2661.54147	0.03697
2659.61282	0.03648
2657.68416	0.03593
2655.75551	0.03552
2653.82686	0.03527
2651.89820	0.03517
2649.96955	0.03517
2648.04090	0.03510
2646.11224	0.03494
2644.18359	0.03467
2642.25494	0.03423
2640.32628	0.03388
2638.39763	0.03377
2636.46898	0.03368
2634.54032	0.03347
2632.61167	0.03325
2630.68302	0.03316
2628.75436	0.03312
2626.82571	0.03303
2624.89706	0.03292
2622.96840	0.03275
2621.03975	0.03244
2619.11110	0.03213
2617.18244	0.03197
2615.25379	0.03197
2613.32514	0.03192
2611.39648	0.03171
2609.46783	0.03135
2607.53918	0.03098
2605.61052	0.03072
2603.68187	0.03070
2601.75322	0.03093
2599.82457	0.03096
2597.89591	0.03055
2595.96726	0.03029
2594.03861	0.03058
2592.10995	0.03086
2590.18130	0.03064
2588.25265	0.03014
2586.32399	0.02962
2584.39534	0.02938
2582.46669	0.02958
2580.53803	0.02983
2578.60938	0.02993
2576.68073	0.02996
2574.75207	0.02988
2572.82342	0.02975
2570.89477	0.02967
2568.96611	0.02952
2567.03746	0.02932
2565.10881	0.02924
2563.18015	0.02923
2561.25150	0.02909
2559.32285	0.02886
2557.39419	0.02877
2555.46554	0.02886
2553.53689	0.02888
2551.60823	0.02876
2549.67958	0.02867
2547.75093	0.02856
2545.82227	0.02835
2543.89362	0.02825
2541.96497	0.02830
2540.03631	0.02831
2538.10766	0.02807
2536.17901	0.02764
2534.25036	0.02733
2532.32170	0.02740
2530.39305	0.02766
2528.46440	0.02784
2526.53574	0.02790
2524.60709	0.02780
2522.67844	0.02752
2520.74978	0.02725
2518.82113	0.02710
2516.89248	0.02691
2514.96382	0.02651
2513.03517	0.02606
2511.10652	0.02584
2509.17786	0.02606
2507.24921	0.02658
2505.32056	0.02683
2503.39190	0.02669
2501.46325	0.02642
2499.53460	0.02593
2497.60594	0.02544
2495.67729	0.02549
2493.74864	0.02605
2491.81998	0.02649
2489.89133	0.02642
2487.96268	0.02612
2486.03402	0.02598
2484.10537	0.02596
2482.17672	0.02589
2480.24806	0.02575
2478.31941	0.02554
2476.39076	0.02530
2474.46210	0.02517
2472.53345	0.02527
2470.60480	0.02558
2468.67615	0.02587
2466.74749	0.02580
2464.81884	0.02553
2462.89019	0.02538
2460.96153	0.02524
2459.03288	0.02507
2457.10423	0.02502
2455.17557	0.02513
2453.24692	0.02527
2451.31827	0.02526
2449.38961	0.02516
2447.46096	0.02497
2445.53231	0.02484
2443.60365	0.02492
2441.67500	0.02497
2439.74635	0.02493
2437.81769	0.02488
2435.88904	0.02484
2433.96039	0.02476
2432.03173	0.02458
2430.10308	0.02451
2428.17443	0.02447
2426.24577	0.02430
2424.31712	0.02437
2422.38847	0.02470
2420.45981	0.02485
2418.53116	0.02496
2416.60251	0.02519
2414.67385	0.02512
2412.74520	0.02476
2410.81655	0.02463
2408.88789	0.02481
2406.95924	0.02503
2405.03059	0.02498
2403.10193	0.02475
2401.17328	0.02470
2399.24463	0.02462
2397.31598	0.02440
2395.38732	0.02435
2393.45867	0.02471
2391.53002	0.02520
2389.60136	0.02542
2387.67271	0.02531
2385.74406	0.02516
2383.81540	0.02518
2381.88675	0.02527
2379.95810	0.02528
2378.02944	0.02534
2376.10079	0.02561
2374.17214	0.02588
2372.24348	0.02593
2370.31483	0.02584
2368.38618	0.02592
2366.45752	0.02580
2364.52887	0.02566
2362.60022	0.02567
2360.67156	0.02575
2358.74291	0.02562
2356.81426	0.02576
2354.88560	0.02586
2352.95695	0.02576
2351.02830	0.02555
2349.09964	0.02536
2347.17099	0.02548
2345.24234	0.02565
2343.31368	0.02566
2341.38503	0.02560
2339.45638	0.02560
2337.52772	0.02572
2335.59907	0.02566
2333.67042	0.02545
2331.74177	0.02532
2329.81311	0.02516
2327.88446	0.02477
2325.95581	0.02410
2324.02715	0.02347
2322.09850	0.02329
2320.16985	0.02345
2318.24119	0.02347
2316.31254	0.02316
2314.38389	0.02279
2312.45523	0.02268
2310.52658	0.02286
2308.59793	0.02307
2306.66927	0.02312
2304.74062	0.02288
2302.81197	0.02237
2300.88331	0.02192
2298.95466	0.02165
2297.02601	0.02134
2295.09735	0.02094
2293.16870	0.02059
2291.24005	0.02037
2289.31139	0.02020
2287.38274	0.01985
2285.45409	0.01932
2283.52543	0.01912
2281.59678	0.01938
2279.66813	0.01961
2277.73947	0.01953
2275.81082	0.01938
2273.88217	0.01918
2271.95351	0.01899
2270.02486	0.01894
2268.09621	0.01877
2266.16755	0.01829
2264.23890	0.01808
2262.31025	0.01854
2260.38160	0.01894
2258.45294	0.01859
2256.52429	0.01793
2254.59564	0.01751
2252.66698	0.01708
2250.73833	0.01673
2248.80968	0.01702
2246.88102	0.01750
2244.95237	0.01729
2243.02372	0.01669
2241.09506	0.01630
2239.16641	0.01602
2237.23776	0.01578
2235.30910	0.01587
2233.38045	0.01645
2231.45180	0.01711
2229.52314	0.01725
2227.59449	0.01694
2225.66584	0.01650
2223.73718	0.01616
2221.80853	0.01607
2219.87988	0.01590
2217.95122	0.01548
2216.02257	0.01502
2214.09392	0.01436
2212.16526	0.01344
2210.23661	0.01260
2208.30796	0.01232
2206.37930	0.01275
2204.45065	0.01276
2202.52200	0.01215
2200.59334	0.01212
2198.66469	0.01260
2196.73604	0.01289
2194.80739	0.01282
2192.87873	0.01261
2190.95008	0.01251
2189.02143	0.01231
2187.09277	0.01217
2185.16412	0.01223
2183.23547	0.01219
2181.30681	0.01223
2179.37816	0.01249
2177.44951	0.01241
2175.52085	0.01161
2173.59220	0.01042
2171.66355	0.00946
2169.73489	0.00914
2167.80624	0.00939
2165.87759	0.00922
2163.94893	0.00809
2162.02028	0.00677
2160.09163	0.00630
2158.16297	0.00732
2156.23432	0.00924
2154.30567	0.01016
2152.37701	0.00994
2150.44836	0.01060
2148.51971	0.01231
2146.59105	0.01340
2144.66240	0.01362
2142.73375	0.01394
2140.80509	0.01476
2138.87644	0.01547
2136.94779	0.01577
2135.01913	0.01596
2133.09048	0.01594
2131.16183	0.01582
2129.23318	0.01590
2127.30452	0.01593
2125.37587	0.01585
2123.44722	0.01588
2121.51856	0.01581
2119.58991	0.01571
2117.66126	0.01599
2115.73260	0.01627
2113.80395	0.01617
2111.87530	0.01594
2109.94664	0.01583
2108.01799	0.01574
2106.08934	0.01555
2104.16068	0.01540
2102.23203	0.01523
2100.30338	0.01486
2098.37472	0.01418
2096.44607	0.01414
2094.51742	0.01459
2092.58876	0.01482
2090.66011	0.01473
2088.73146	0.01472
2086.80280	0.01477
2084.87415	0.01470
2082.94550	0.01426
2081.01684	0.01352
2079.08819	0.01258
2077.15954	0.01172
2075.23088	0.01145
2073.30223	0.01158
2071.37358	0.01145
2069.44492	0.01114
2067.51627	0.01104
2065.58762	0.01091
2063.65896	0.01053
2061.73031	0.01047
2059.80166	0.01112
2057.87301	0.01197
2055.94435	0.01237
2054.01570	0.01205
2052.08705	0.01097
2050.15839	0.00950
2048.22974	0.00859
2046.30109	0.00881
2044.37243	0.00948
2042.44378	0.00975
2040.51513	0.00953
2038.58647	0.00880
2036.65782	0.00767
2034.72917	0.00693
2032.80051	0.00709
2030.87186	0.00727
2028.94321	0.00681
2027.01455	0.00631
2025.08590	0.00617
2023.15725	0.00596
2021.22859	0.00541
2019.29994	0.00518
2017.37129	0.00605
2015.44263	0.00766
2013.51398	0.00884
2011.58533	0.00869
2009.65667	0.00731
2007.72802	0.00601
2005.79937	0.00635
2003.87071	0.00813
2001.94206	0.00969
2000.01341	0.01031
1998.08475	0.01040
1996.15610	0.01034
1994.22745	0.01038
1992.29880	0.01066
1990.37014	0.01088
1988.44149	0.01083
1986.51284	0.01045
1984.58418	0.00955
1982.65553	0.00818
1980.72688	0.00635
1978.79822	0.00451
1976.86957	0.00348
1974.94092	0.00329
1973.01226	0.00373
1971.08361	0.00490
1969.15496	0.00666
1967.22630	0.00842
1965.29765	0.00925
1963.36900	0.00903
1961.44034	0.00883
1959.51169	0.00936
1957.58304	0.01020
1955.65438	0.01071
1953.72573	0.01053
1951.79708	0.00998
1949.86842	0.00987
1947.93977	0.01043
1946.01112	0.01113
1944.08246	0.01158
1942.15381	0.01178
1940.22516	0.01193
1938.29650	0.01197
1936.36785	0.01156
1934.43920	0.01126
1932.51054	0.01177
1930.58189	0.01225
1928.65324	0.01191
1926.72458	0.01141
1924.79593	0.01132
1922.86728	0.01167
1920.93863	0.01225
1919.00997	0.01269
1917.08132	0.01278
1915.15267	0.01261
1913.22401	0.01231
1911.29536	0.01212
1909.36671	0.01227
1907.43805	0.01255
1905.50940	0.01253
1903.58075	0.01235
1901.65209	0.01253
1899.72344	0.01291
1897.79479	0.01279
1895.86613	0.01240
1893.93748	0.01227
1892.00883	0.01233
1890.08017	0.01252
1888.15152	0.01274
1886.22287	0.01286
1884.29421	0.01280
1882.36556	0.01265
1880.43691	0.01266
1878.50825	0.01287
1876.57960	0.01307
1874.65095	0.01312
1872.72229	0.01307
1870.79364	0.01300
1868.86499	0.01278
1866.93633	0.01252
1865.00768	0.01259
1863.07903	0.01278
1861.15037	0.01286
1859.22172	0.01292
1857.29307	0.01311
1855.36442	0.01339
1853.43576	0.01336
1851.50711	0.01288
1849.57846	0.01239
1847.64980	0.01229
1845.72115	0.01261
1843.79250	0.01295
1841.86384	0.01290
1839.93519	0.01281
1838.00654	0.01290
1836.07788	0.01303
1834.14923	0.01287
1832.22058	0.01254
1830.29192	0.01246
1828.36327	0.01252
1826.43462	0.01253
1824.50596	0.01223
1822.57731	0.01179
1820.64866	0.01174
1818.72000	0.01212
1816.79135	0.01267
1814.86270	0.01314
1812.93404	0.01334
1811.00539	0.01318
1809.07674	0.01285
1807.14808	0.01264
1805.21943	0.01263
1803.29078	0.01271
1801.36212	0.01273
1799.43347	0.01264
1797.50482	0.01255
1795.57616	0.01249
1793.64751	0.01255
1791.71886	0.01261
1789.79021	0.01251
1787.86155	0.01237
1785.93290	0.01231
1784.00425	0.01238
1782.07559	0.01251
1780.14694	0.01250
1778.21829	0.01232
1776.28963	0.01216
1774.36098	0.01220
1772.43233	0.01242
1770.50367	0.01252
1768.57502	0.01269
1766.64637	0.01273
1764.71771	0.01276
1762.78906	0.01299
1760.86041	0.01301
1758.93175	0.01295
1757.00310	0.01309
1755.07445	0.01314
1753.14579	0.01327
1751.21714	0.01352
1749.28849	0.01369
1747.35983	0.01395
1745.43118	0.01425
1743.50253	0.01452
1741.57387	0.01484
1739.64522	0.01514
1737.71657	0.01522
1735.78791	0.01570
1733.85926	0.01634
1731.93061	0.01652
1730.00195	0.01685
1728.07330	0.01732
1726.14465	0.01771
1724.21599	0.01808
1722.28734	0.01829
1720.35869	0.01850
1718.43004	0.01907
1716.50138	0.01967
1714.57273	0.02033
1712.64408	0.02129
1710.71542	0.02236
1708.78677	0.02355
1706.85812	0.02508
1704.92946	0.02683
1703.00081	0.02883
1701.07216	0.03157
1699.14350	0.03417
1697.21485	0.03705
1695.28620	0.04038
1693.35754	0.04324
1691.42889	0.04629
1689.50024	0.04938
1687.57158	0.05247
1685.64293	0.05619
1683.71428	0.05991
1681.78562	0.06349
1679.85697	0.06778
1677.92832	0.07246
1675.99966	0.07741
1674.07101	0.08225
1672.14236	0.08717
1670.21370	0.09244
1668.28505	0.09753
1666.35640	0.10233
1664.42774	0.10717
1662.49909	0.11178
1660.57044	0.11578
1658.64178	0.11916
1656.71313	0.12188
1654.78448	0.12457
1652.85583	0.12691
1650.92717	0.12809
1648.99852	0.12939
1647.06987	0.13097
1645.14121	0.13198
1643.21256	0.13263
1641.28391	0.13328
1639.35525	0.13368
1637.42660	0.13406
1635.49795	0.13426
1633.56929	0.13362
1631.64064	0.13244
1629.71199	0.13075
1627.78333	0.12808
1625.85468	0.12438
1623.92603	0.11994
1621.99737	0.11485
1620.06872	0.10945
1618.14007	0.10434
1616.21141	0.09925
1614.28276	0.09411
1612.35411	0.08951
1610.42545	0.08521
1608.49680	0.08110
1606.56815	0.07733
1604.63949	0.07394
1602.71084	0.07091
1600.78219	0.06823
1598.85353	0.06595
1596.92488	0.06404
1594.99623	0.06241
1593.06757	0.06110
1591.13892	0.06024
1589.21027	0.05974
1587.28161	0.05951
1585.35296	0.05958
1583.42431	0.05999
1581.49566	0.06062
1579.56700	0.06146
1577.63835	0.06293
1575.70970	0.06474
1573.78104	0.06653
1571.85239	0.06898
1569.92374	0.07195
1567.99508	0.07487
1566.06643	0.07796
1564.13778	0.08104
1562.20912	0.08400
1560.28047	0.08730
1558.35182	0.09026
1556.42316	0.09269
1554.49451	0.09517
1552.56586	0.09714
1550.63720	0.09850
1548.70855	0.09942
1546.77990	0.10000
1544.85124	0.10027
1542.92259	0.10014
1540.99394	0.09993
1539.06528	0.09942
1537.13663	0.09852
1535.20798	0.09786
1533.27932	0.09706
1531.35067	0.09565
1529.42202	0.09413
1527.49336	0.09264
1525.56471	0.09097
1523.63606	0.08928
1521.70740	0.08772
1519.77875	0.08588
1517.85010	0.08404
1515.92145	0.08213
1513.99279	0.07982
1512.06414	0.07722
1510.13549	0.07437
1508.20683	0.07171
1506.27818	0.06910
1504.34953	0.06612
1502.42087	0.06339
1500.49222	0.06094
1498.56357	0.05852
1496.63491	0.05619
1494.70626	0.05380
1492.77761	0.05162
1490.84895	0.04990
1488.92030	0.04838
1486.99165	0.04717
1485.06299	0.04636
1483.13434	0.04596
1481.20569	0.04590
1479.27703	0.04610
1477.34838	0.04662
1475.41973	0.04752
1473.49107	0.04880
1471.56242	0.05013
1469.63377	0.05149
1467.70511	0.05314
1465.77646	0.05498
1463.84781	0.05665
1461.91915	0.05810
1459.99050	0.05957
1458.06185	0.06124
1456.13319	0.06252
1454.20454	0.06320
1452.27589	0.06379
1450.34724	0.06401
1448.41858	0.06374
1446.48993	0.06308
1444.56128	0.06224
1442.63262	0.06131
1440.70397	0.06019
1438.77532	0.05905
1436.84666	0.05788
1434.91801	0.05635
1432.98936	0.05485
1431.06070	0.05366
1429.13205	0.05273
1427.20340	0.05214
1425.27474	0.05189
1423.34609	0.05167
1421.41744	0.05152
1419.48878	0.05153
1417.56013	0.05140
1415.63148	0.05145
1413.70282	0.05178
1411.77417	0.05219
1409.84552	0.05262
1407.91686	0.05311
1405.98821	0.05368
1404.05956	0.05408
1402.13090	0.05415
1400.20225	0.05407
1398.27360	0.05383
1396.34494	0.05353
1394.41629	0.05323
1392.48764	0.05289
1390.55898	0.05266
1388.63033	0.05253
1386.70168	0.05227
1384.77302	0.05191
1382.84437	0.05157
1380.91572	0.05118
1378.98707	0.05075
1377.05841	0.05024
1375.12976	0.04961
1373.20111	0.04879
1371.27245	0.04785
1369.34380	0.04693
1367.41515	0.04605
1365.48649	0.04522
1363.55784	0.04448
1361.62919	0.04379
1359.70053	0.04322
1357.77188	0.04297
1355.84323	0.04311
1353.91457	0.04353
1351.98592	0.04413
1350.05727	0.04491
1348.12861	0.04583
1346.19996	0.04679
1344.27131	0.04767
1342.34265	0.04840
1340.41400	0.04895
1338.48535	0.04931
1336.55669	0.04945
1334.62804	0.04927
1332.69939	0.04871
1330.77073	0.04787
1328.84208	0.04701
1326.91343	0.04625
1324.98477	0.04560
1323.05612	0.04509
1321.12747	0.04477
1319.19881	0.04458
1317.27016	0.04442
1315.34151	0.04424
1313.41286	0.04399
1311.48420	0.04368
1309.55555	0.04337
1307.62690	0.04306
1305.69824	0.04272
1303.76959	0.04250
1301.84094	0.04240
1299.91228	0.04229
1297.98363	0.04215
1296.05498	0.04217
1294.12632	0.04248
1292.19767	0.04301
1290.26902	0.04367
1288.34036	0.04440
1286.41171	0.04508
1284.48306	0.04566
1282.55440	0.04615
1280.62575	0.04647
1278.69710	0.04662
1276.76844	0.04664
1274.83979	0.04664
1272.91114	0.04670
1270.98248	0.04686
1269.05383	0.04712
1267.12518	0.04748
1265.19652	0.04794
1263.26787	0.04845
1261.33922	0.04900
1259.41056	0.04966
1257.48191	0.05042
1255.55326	0.05128
1253.62460	0.05227
1251.69595	0.05337
1249.76730	0.05451
1247.83864	0.05561
1245.90999	0.05665
1243.98134	0.05765
1242.05269	0.05862
1240.12403	0.05941
1238.19538	0.05985
1236.26673	0.05996
1234.33807	0.05984
1232.40942	0.05941
1230.48077	0.05854
1228.55211	0.05728
1226.62346	0.05574
1224.69481	0.05404
1222.76615	0.05233
1220.83750	0.05083
1218.90885	0.04957
1216.98019	0.04860
1215.05154	0.04795
1213.12289	0.04762
1211.19423	0.04757
1209.26558	0.04774
1207.33693	0.04805
1205.40827	0.04834
1203.47962	0.04833
1201.55097	0.04798
1199.62231	0.04749
1197.69366	0.04651
1195.76501	0.04541
1193.83635	0.04436
1191.90770	0.04341
1189.97905	0.04248
1188.05039	0.04157
1186.12174	0.04075
1184.19309	0.04003
1182.26443	0.03945
1180.33578	0.03915
1178.40713	0.03899
1176.47848	0.03884
1174.54982	0.03869
1172.62117	0.03857
1170.69252	0.03854
1168.76386	0.03849
1166.83521	0.03839
1164.90656	0.03835
1162.97790	0.03838
1161.04925	0.03823
1159.12060	0.03775
1157.19194	0.03705
1155.26329	0.03638
1153.33464	0.03577
1151.40598	0.03510
1149.47733	0.03434
1147.54868	0.03359
1145.62002	0.03302
1143.69137	0.03262
1141.76272	0.03228
1139.83406	0.03201
1137.90541	0.03174
1135.97676	0.03141
1134.04810	0.03111
1132.11945	0.03094
1130.19080	0.03092
1128.26214	0.03095
1126.33349	0.03091
1124.40484	0.03080
1122.47618	0.03068
1120.54753	0.03057
1118.61888	0.03049
1116.69022	0.03053
1114.76157	0.03061
1112.83292	0.03063
1110.90427	0.03078
1108.97561	0.03115
1107.04696	0.03148
1105.11831	0.03170
1103.18965	0.03198
1101.26100	0.03238
1099.33235	0.03283
1097.40369	0.03324
1095.47504	0.03356
1093.54639	0.03395
1091.61773	0.03472
1089.68908	0.03583
1087.76043	0.03690
1085.83177	0.03772
1083.90312	0.03837
1081.97447	0.03890
1080.04581	0.03917
1078.11716	0.03914
1076.18851	0.03888
1074.25985	0.03841
1072.33120	0.03787
1070.40255	0.03747
1068.47389	0.03728
1066.54524	0.03720
1064.61659	0.03712
1062.68793	0.03700
1060.75928	0.03679
1058.83063	0.03645
1056.90197	0.03608
1054.97332	0.03571
1053.04467	0.03533
1051.11601	0.03491
1049.18736	0.03454
1047.25871	0.03427
1045.33005	0.03411
1043.40140	0.03397
1041.47275	0.03391
1039.54410	0.03405
1037.61544	0.03437
1035.68679	0.03471
1033.75814	0.03495
1031.82948	0.03493
1029.90083	0.03456
1027.97218	0.03393
1026.04352	0.03324
1024.11487	0.03256
1022.18622	0.03186
1020.25756	0.03118
1018.32891	0.03067
1016.40026	0.03035
1014.47160	0.03002
1012.54295	0.02955
1010.61430	0.02903
1008.68564	0.02856
1006.75699	0.02808
1004.82834	0.02762
1002.89968	0.02726
1000.97103	0.02690
999.04238	0.02639
997.11372	0.02590
995.18507	0.02554
993.25642	0.02527
991.32776	0.02502
989.39911	0.02478
987.47046	0.02462
985.54180	0.02456
983.61315	0.02452
981.68450	0.02455
979.75584	0.02470
977.82719	0.02484
975.89854	0.02487
973.96989	0.02485
972.04123	0.02487
970.11258	0.02483
968.18393	0.02469
966.25527	0.02452
964.32662	0.02430
962.39797	0.02403
960.46931	0.02382
958.54066	0.02366
956.61201	0.02346
954.68335	0.02325
952.75470	0.02308
950.82605	0.02297
948.89739	0.02299
946.96874	0.02311
945.04009	0.02320
943.11143	0.02328
941.18278	0.02342
939.25413	0.02353
937.32547	0.02349
935.39682	0.02339
933.46817	0.02334
931.53951	0.02336
929.61086	0.02333
927.68221	0.02322
925.75355	0.02310
923.82490	0.02306
921.89625	0.02310
919.96759	0.02311
918.03894	0.02300
916.11029	0.02283
914.18163	0.02268
912.25298	0.02256
910.32433	0.02240
908.39567	0.02222
906.46702	0.02209
904.53837	0.02195
902.60972	0.02180
900.68106	0.02175
898.75241	0.02180
896.82376	0.02185
894.89510	0.02190
892.96645	0.02196
891.03780	0.02194
889.10914	0.02184
887.18049	0.02171
885.25184	0.02163
883.32318	0.02165
881.39453	0.02179
879.46588	0.02199
877.53722	0.02216
875.60857	0.02229
873.67992	0.02240
871.75126	0.02240
869.82261	0.02220
867.89396	0.02192
865.96530	0.02174
864.03665	0.02170
862.10800	0.02175
860.17934	0.02177
858.25069	0.02176
856.32204	0.02182
854.39338	0.02199
852.46473	0.02215
850.53608	0.02218
848.60742	0.02209
846.67877	0.02205
844.75012	0.02217
842.82146	0.02234
840.89281	0.02236
838.96416	0.02219
837.03551	0.02203
835.10685	0.02202
833.17820	0.02209
831.24955	0.02215
829.32089	0.02220
827.39224	0.02224
825.46359	0.02236
823.53493	0.02262
821.60628	0.02303
819.67763	0.02350
817.74897	0.02386
815.82032	0.02406
813.89167	0.02420
811.96301	0.02425
810.03436	0.02423
808.10571	0.02430
806.17705	0.02449
804.24840	0.02470
802.31975	0.02492
800.39109	0.02512
798.46244	0.02528
796.53379	0.02546
794.60513	0.02569
792.67648	0.02591
790.74783	0.02614
788.81917	0.02639
786.89052	0.02659
784.96187	0.02668
783.03321	0.02675
781.10456	0.02689
779.17591	0.02708
777.24725	0.02729
775.31860	0.02754
773.38995	0.02788
771.46130	0.02826
769.53264	0.02856
767.60399	0.02871
765.67534	0.02881
763.74668	0.02896
761.81803	0.02919
759.88938	0.02948
757.96072	0.02974
756.03207	0.03001
754.10342	0.03036
752.17476	0.03071
750.24611	0.03097
748.31746	0.03113
746.38880	0.03128
744.46015	0.03152
742.53150	0.03175
740.60284	0.03184
738.67419	0.03193
736.74554	0.03226
734.81688	0.03277
732.88823	0.03319
730.95958	0.03344
729.03092	0.03368
727.10227	0.03385
725.17362	0.03395
723.24496	0.03423
721.31631	0.03473
719.38766	0.03513
717.45900	0.03537
715.53035	0.03558
713.60170	0.03579
711.67304	0.03602
709.74439	0.03624
707.81574	0.03643
705.88708	0.03666
703.95843	0.03697
702.02978	0.03724
700.10113	0.03737
698.17247	0.03748
696.24382	0.03763
694.31517	0.03774
692.38651	0.03783
690.45786	0.03796
688.52921	0.03814
686.60055	0.03828
684.67190	0.03843
682.74325	0.03868
680.81459	0.03906
678.88594	0.03940
676.95729	0.03962
675.02863	0.03978
673.09998	0.03993
671.17133	0.04001
669.24267	0.04011
667.31402	0.04026
665.38537	0.04042
663.45671	0.04056
661.52806	0.04073
659.59941	0.04089
657.67075	0.04101
655.74210	0.04110
653.81345	0.04117
651.88479	0.04128
649.95614	0.04138
648.02749	0.04138
646.09883	0.04132
644.17018	0.04129
642.24153	0.04131
640.31287	0.04138
638.38422	0.04141
636.45557	0.04140
634.52692	0.04150
632.59826	0.04160
630.66961	0.04235
628.74096	0.04520
626.81230	0.04161
624.88365	0.03587
622.95500	0.03189
621.02634	0.03179
619.09769	0.03461
617.16904	0.04001
615.24038	0.04650
613.31173	0.04883
611.38308	0.04528
609.45442	0.04152
607.52577	0.04130
605.59712	0.04169
603.66846	0.04113
601.73981	0.04098
599.81116	0.04160
597.88250	0.04222
595.95385	0.04225
594.02520	0.04187
592.09654	0.04180
590.16789	0.04206
588.23924	0.04213
586.31058	0.04184
584.38193	0.04146
582.45328	0.04129
580.52462	0.04139
578.59597	0.04167
576.66732	0.04199
574.73866	0.04226
572.81001	0.04229
570.88136	0.04190
568.95270	0.04137
567.02405	0.04126
565.09540	0.04162
563.16675	0.04205
561.23809	0.04225
559.30944	0.04214
557.38079	0.04191
555.45213	0.04187
553.52348	0.04210
551.59483	0.04228
549.66617	0.04207
547.73752	0.04167
545.80887	0.04144
543.88021	0.04128
541.95156	0.04115
540.02291	0.04127
538.09425	0.04148
536.16560	0.04141
534.23695	0.04129
532.30829	0.04135
530.37964	0.04128
528.45099	0.04096
526.52233	0.04058
524.59368	0.04020
522.66503	0.03993
520.73637	0.03981
518.80772	0.03959
516.87907	0.03917
514.95041	0.03885
513.02176	0.03868
511.09311	0.03856
509.16445	0.03846
507.23580	0.03822
505.30715	0.03778
503.37849	0.03737
501.44984	0.03719
499.52119	0.03721
497.59254	0.03709
495.66388	0.03662
493.73523	0.03603
491.80658	0.03559
489.87792	0.03531
487.94927	0.03510
486.02062	0.03491
484.09196	0.03471
482.16331	0.03451
480.23466	0.03434
478.30600	0.03422
476.37735	0.03410
474.44870	0.03391
472.52004	0.03360
470.59139	0.03319
468.66274	0.03286
466.73408	0.03269
464.80543	0.03256
462.87678	0.03229
460.94812	0.03189
459.01947	0.03145
457.09082	0.03106
455.16216	0.03074
453.23351	0.03043
451.30486	0.03011
449.37620	0.02988
447.44755	0.02970
445.51890	0.02957
443.59024	0.02946
441.66159	0.02919
439.73294	0.02878
437.80428	0.02847
435.87563	0.02828
433.94698	0.02817
432.01833	0.02810
430.08967	0.02793
428.16102	0.02763
426.23237	0.02734
424.30371	0.02714
422.37506	0.02695
420.44641	0.02672
418.51775	0.02643
416.58910	0.02619
414.66045	0.02614
412.73179	0.02609
410.80314	0.02594
408.87449	0.02576
406.94583	0.02565
405.01718	0.02561
403.08853	0.02552
401.15987	0.02532
399.23122	0.02511
