3997.45528	0.06970
3996.16951	0.07008
3994.88374	0.07039
3993.59798	0.07076
3992.31221	0.07132
3991.02644	0.07195
3989.74067	0.07227
3988.45490	0.07211
3987.16913	0.07168
3985.88336	0.07127
3984.59759	0.07097
3983.31183	0.07075
3982.02606	0.07057
3980.74029	0.07041
3979.45452	0.07025
3978.16875	0.07016
3976.88298	0.07035
3975.59721	0.07083
3974.31144	0.07135
3973.02567	0.07151
3971.73991	0.07116
3970.45414	0.07055
3969.16837	0.07009
3967.88260	0.07002
3966.59683	0.07026
3965.31106	0.07048
3964.02529	0.07048
3962.73952	0.07024
3961.45376	0.06985
3960.16799	0.06939
3958.88222	0.06897
3957.59645	0.06881
3956.31068	0.06898
3955.02491	0.06924
3953.73914	0.06916
3952.45337	0.06856
3951.16760	0.06763
3949.88184	0.06676
3948.59607	0.06612
3947.31030	0.06570
3946.02453	0.06557
3944.73876	0.06588
3943.45299	0.06663
3942.16722	0.06761
3940.88145	0.06861
3939.59569	0.06961
3938.30992	0.07052
3937.02415	0.07098
3935.73838	0.07070
3934.45261	0.06981
3933.16684	0.06876
3931.88107	0.06792
3930.59530	0.06738
3929.30953	0.06712
3928.02377	0.06711
3926.73800	0.06727
3925.45223	0.06740
3924.16646	0.06731
3922.88069	0.06705
3921.59492	0.06690
3920.30915	0.06695
3919.02338	0.06696
3917.73762	0.06659
3916.45185	0.06587
3915.16608	0.06525
3913.88031	0.06514
3912.59454	0.06557
3911.30877	0.06619
3910.02300	0.06664
3908.73723	0.06667
3907.45146	0.06628
3906.16570	0.06573
3904.87993	0.06545
3903.59416	0.06576
3902.30839	0.06659
3901.02262	0.06748
3899.73685	0.06782
3898.45108	0.06732
3897.16531	0.06620
3895.87955	0.06501
3894.59378	0.06417
3893.30801	0.06378
3892.02224	0.06369
3890.73647	0.06374
3889.45070	0.06399
3888.16493	0.06460
3886.87916	0.06538
3885.59339	0.06590
3884.30763	0.06607
3883.02186	0.06624
3881.73609	0.06663
3880.45032	0.06697
3879.16455	0.06693
3877.87878	0.06662
3876.59301	0.06638
3875.30724	0.06629
3874.02148	0.06611
3872.73571	0.06576
3871.44994	0.06548
3870.16417	0.06547
3868.87840	0.06572
3867.59263	0.06605
3866.30686	0.06620
3865.02109	0.06603
3863.73532	0.06579
3862.44956	0.06593
3861.16379	0.06647
3859.87802	0.06683
3858.59225	0.06644
3857.30648	0.06544
3856.02071	0.06465
3854.73494	0.06464
3853.44917	0.06516
3852.16341	0.06557
3850.87764	0.06555
3849.59187	0.06514
3848.30610	0.06451
3847.02033	0.06385
3845.73456	0.06331
3844.44879	0.06291
3843.16302	0.06259
3841.87725	0.06242
3840.59149	0.06265
3839.30572	0.06338
3838.01995	0.06411
3836.73418	0.06421
3835.44841	0.06363
3834.16264	0.06304
3832.87687	0.06298
3831.59110	0.06324
3830.30534	0.06320
3829.01957	0.06255
3827.73380	0.06161
3826.44803	0.06100
3825.16226	0.06125
3823.87649	0.06251
3822.59072	0.06426
3821.30495	0.06538
3820.01918	0.06516
3818.73342	0.06408
3817.44765	0.06318
3816.16188	0.06286
3814.87611	0.06280
3813.59034	0.06267
3812.30457	0.06226
3811.01880	0.06146
3809.73303	0.06047
3808.44726	0.05966
3807.16150	0.05916
3805.87573	0.05894
3804.58996	0.05923
3803.30419	0.06021
3802.01842	0.06135
3800.73265	0.06181
3799.44688	0.06140
3798.16111	0.06072
3796.87535	0.06028
3795.58958	0.06017
3794.30381	0.06033
3793.01804	0.06062
3791.73227	0.06084
3790.44650	0.06075
3789.16073	0.06036
3787.87496	0.05999
3786.58919	0.05997
3785.30343	0.06022
3784.01766	0.06032
3782.73189	0.06000
3781.44612	0.05949
3780.16035	0.05909
3778.87458	0.05885
3777.58881	0.05863
3776.30304	0.05843
3775.01728	0.05837
3773.73151	0.05840
3772.44574	0.05835
3771.15997	0.05809
3769.87420	0.05773
3768.58843	0.05760
3767.30266	0.05790
3766.01689	0.05844
3764.73112	0.05885
3763.44536	0.05891
3762.15959	0.05871
3760.87382	0.05845
3759.58805	0.05827
3758.30228	0.05821
3757.01651	0.05817
3755.73074	0.05805
3754.44497	0.05795
3753.15921	0.05805
3751.87344	0.05838
3750.58767	0.05876
3749.30190	0.05894
3748.01613	0.05895
3746.73036	0.05917
3745.44459	0.05967
3744.15882	0.05992
3742.87305	0.05963
3741.58729	0.05916
3740.30152	0.05881
3739.01575	0.05849
3737.72998	0.05799
3736.44421	0.05721
3735.15844	0.05626
3733.87267	0.05555
3732.58690	0.05543
3731.30114	0.05598
3730.01537	0.05698
3728.72960	0.05797
3727.44383	0.05831
3726.15806	0.05759
3724.87229	0.05616
3723.58652	0.05482
3722.30075	0.05411
3721.01498	0.05401
3719.72922	0.05424
3718.44345	0.05450
3717.15768	0.05450
3715.87191	0.05417
3714.58614	0.05380
3713.30037	0.05374
3712.01460	0.05405
3710.72883	0.05446
3709.44307	0.05467
3708.15730	0.05458
3706.87153	0.05431
3705.58576	0.05410
3704.29999	0.05418
3703.01422	0.05460
3701.72845	0.05508
3700.44268	0.05520
3699.15691	0.05480
3697.87115	0.05429
3696.58538	0.05427
3695.29961	0.05483
3694.01384	0.05546
3692.72807	0.05558
3691.44230	0.05523
3690.15653	0.05502
3688.87076	0.05538
3687.58500	0.05593
3686.29923	0.05603
3685.01346	0.05563
3683.72769	0.05520
3682.44192	0.05512
3681.15615	0.05525
3679.87038	0.05512
3678.58461	0.05464
3677.29884	0.05429
3676.01308	0.05437
3674.72731	0.05471
3673.44154	0.05514
3672.15577	0.05574
3670.87000	0.05648
3669.58423	0.05712
3668.29846	0.05762
3667.01269	0.05805
3665.72693	0.05829
3664.44116	0.05809
3663.15539	0.05748
3661.86962	0.05677
3660.58385	0.05636
3659.29808	0.05638
3658.01231	0.05669
3656.72654	0.05695
3655.44077	0.05702
3654.15501	0.05712
3652.86924	0.05760
3651.58347	0.05849
3650.29770	0.05956
3649.01193	0.06052
3647.72616	0.06121
3646.44039	0.06158
3645.15462	0.06166
3643.86886	0.06167
3642.58309	0.06186
3641.29732	0.06233
3640.01155	0.06296
3638.72578	0.06348
3637.44001	0.06383
3636.15424	0.06412
3634.86847	0.06437
3633.58270	0.06439
3632.29694	0.06415
3631.01117	0.06403
3629.72540	0.06448
3628.43963	0.06548
3627.15386	0.06662
3625.86809	0.06750
3624.58232	0.06793
3623.29655	0.06808
3622.01079	0.06830
3620.72502	0.06878
3619.43925	0.06931
3618.15348	0.06963
3616.86771	0.06972
3615.58194	0.06974
3614.29617	0.06980
3613.01040	0.07003
3611.72463	0.07059
3610.43887	0.07165
3609.15310	0.07315
3607.86733	0.07484
3606.58156	0.07647
3605.29579	0.07781
3604.01002	0.07869
3602.72425	0.07913
3601.43848	0.07935
3600.15272	0.07957
3598.86695	0.07980
3597.58118	0.08010
3596.29541	0.08064
3595.00964	0.08151
3593.72387	0.08239
3592.43810	0.08295
3591.15233	0.08319
3589.86656	0.08343
3588.58080	0.08389
3587.29503	0.08445
3586.00926	0.08482
3584.72349	0.08492
3583.43772	0.08505
3582.15195	0.08561
3580.86618	0.08670
3579.58041	0.08810
3578.29464	0.08957
3577.00888	0.09098
3575.72311	0.09232
3574.43734	0.09348
3573.15157	0.09430
3571.86580	0.09472
3570.58003	0.09485
3569.29426	0.09495
3568.00849	0.09527
3566.72273	0.09598
3565.43696	0.09705
3564.15119	0.09818
3562.86542	0.09898
3561.57965	0.09930
3560.29388	0.09930
3559.00811	0.09933
3557.72234	0.09966
3556.43657	0.10030
3555.15081	0.10092
3553.86504	0.10128
3552.57927	0.10151
3551.29350	0.10208
3550.00773	0.10320
3548.72196	0.10463
3547.43619	0.10591
3546.15042	0.10684
3544.86466	0.10756
3543.57889	0.10827
3542.29312	0.10901
3541.00735	0.10982
3539.72158	0.11079
3538.43581	0.11191
3537.15004	0.11302
3535.86427	0.11388
3534.57850	0.11443
3533.29274	0.11479
3532.00697	0.11513
3530.72120	0.11564
3529.43543	0.11648
3528.14966	0.11767
3526.86389	0.11899
3525.57812	0.12017
3524.29235	0.12111
3523.00659	0.12193
3521.72082	0.12268
3520.43505	0.12335
3519.14928	0.12397
3517.86351	0.12469
3516.57774	0.12561
3515.29197	0.12651
3514.00620	0.12704
3512.72043	0.12699
3511.43467	0.12653
3510.14890	0.12608
3508.86313	0.12611
3507.57736	0.12684
3506.29159	0.12815
3505.00582	0.12963
3503.72005	0.13076
3502.43428	0.13127
3501.14852	0.13130
3499.86275	0.13129
3498.57698	0.13158
3497.29121	0.13219
3496.00544	0.13297
3494.71967	0.13381
3493.43390	0.13479
3492.14813	0.13591
3490.86236	0.13701
3489.57660	0.13777
3488.29083	0.13792
3487.00506	0.13755
3485.71929	0.13718
3484.43352	0.13736
3483.14775	0.13825
3481.86198	0.13946
3480.57621	0.14049
3479.29045	0.14110
3478.00468	0.14144
3476.71891	0.14180
3475.43314	0.14232
3474.14737	0.14297
3472.86160	0.14364
3471.57583	0.14432
3470.29006	0.14506
3469.00429	0.14582
3467.71853	0.14653
3466.43276	0.14716
3465.14699	0.14777
3463.86122	0.14839
3462.57545	0.14894
3461.28968	0.14928
3460.00391	0.14941
3458.71814	0.14951
3457.43238	0.14974
3456.14661	0.15005
3454.86084	0.15033
3453.57507	0.15050
3452.28930	0.15072
3451.00353	0.15125
3449.71776	0.15220
3448.43199	0.15344
3447.14622	0.15458
3445.86046	0.15535
3444.57469	0.15575
3443.28892	0.15602
3442.00315	0.15639
3440.71738	0.15693
3439.43161	0.15753
3438.14584	0.15812
3436.86007	0.15866
3435.57431	0.15916
3434.28854	0.15964
3433.00277	0.16013
3431.71700	0.16066
3430.43123	0.16117
3429.14546	0.16151
3427.85969	0.16165
3426.57392	0.16171
3425.28815	0.16189
3424.00239	0.16229
3422.71662	0.16295
3421.43085	0.16383
3420.14508	0.16480
3418.85931	0.16568
3417.57354	0.16639
3416.28777	0.16698
3415.00200	0.16753
3413.71624	0.16802
3412.43047	0.16847
3411.14470	0.16898
3409.85893	0.16969
3408.57316	0.17055
3407.28739	0.17138
3406.00162	0.17212
3404.71585	0.17288
3403.43008	0.17367
3402.14432	0.17423
3400.85855	0.17432
3399.57278	0.17410
3398.28701	0.17381
3397.00124	0.17373
3395.71547	0.17402
3394.42970	0.17470
3393.14393	0.17562
3391.85817	0.17654
3390.57240	0.17723
3389.28663	0.17759
3388.00086	0.17779
3386.71509	0.17806
3385.42932	0.17854
3384.14355	0.17919
3382.85778	0.17985
3381.57201	0.18046
3380.28625	0.18109
3379.00048	0.18189
3377.71471	0.18286
3376.42894	0.18386
3375.14317	0.18477
3373.85740	0.18565
3372.57163	0.18659
3371.28586	0.18758
3370.00010	0.18849
3368.71433	0.18926
3367.42856	0.19004
3366.14279	0.19100
3364.85702	0.19210
3363.57125	0.19314
3362.28548	0.19401
3360.99971	0.19487
3359.71394	0.19595
3358.42818	0.19727
3357.14241	0.19861
3355.85664	0.19976
3354.57087	0.20073
3353.28510	0.20164
3351.99933	0.20252
3350.71356	0.20336
3349.42779	0.20422
3348.14202	0.20523
3346.85626	0.20643
3345.57049	0.20760
3344.28472	0.20850
3342.99895	0.20907
3341.71318	0.20957
3340.42741	0.21035
3339.14164	0.21156
3337.85587	0.21306
3336.57011	0.21451
3335.28434	0.21572
3333.99857	0.21671
3332.71280	0.21759
3331.42703	0.21834
3330.14126	0.21888
3328.85549	0.21927
3327.56972	0.21975
3326.28395	0.22052
3324.99819	0.22146
3323.71242	0.22225
3322.42665	0.22277
3321.14088	0.22322
3319.85511	0.22385
3318.56934	0.22469
3317.28357	0.22548
3315.99780	0.22599
3314.71204	0.22627
3313.42627	0.22663
3312.14050	0.22732
3310.85473	0.22830
3309.56896	0.22932
3308.28319	0.23010
3306.99742	0.23051
3305.71165	0.23064
3304.42588	0.23073
3303.14012	0.23105
3301.85435	0.23166
3300.56858	0.23243
3299.28281	0.23311
3297.99704	0.23342
3296.71127	0.23330
3295.42550	0.23294
3294.13973	0.23272
3292.85397	0.23285
3291.56820	0.23321
3290.28243	0.23342
3288.99666	0.23324
3287.71089	0.23278
3286.42512	0.23240
3285.13935	0.23230
3283.85358	0.23234
3282.56781	0.23224
3281.28205	0.23187
3279.99628	0.23145
3278.71051	0.23120
3277.42474	0.23117
3276.13897	0.23126
3274.85320	0.23134
3273.56743	0.23131
3272.28166	0.23102
3270.99590	0.23034
3269.71013	0.22934
3268.42436	0.22832
3267.13859	0.22752
3265.85282	0.22700
3264.56705	0.22662
3263.28128	0.22618
3261.99551	0.22560
3260.70974	0.22487
3259.42398	0.22405
3258.13821	0.22321
3256.85244	0.22237
3255.56667	0.22158
3254.28090	0.22088
3252.99513	0.22031
3251.70936	0.21989
3250.42359	0.21961
3249.13783	0.21938
3247.85206	0.21904
3246.56629	0.21850
3245.28052	0.21780
3243.99475	0.21711
3242.70898	0.21656
3241.42321	0.21614
3240.13744	0.21578
3238.85167	0.21540
3237.56591	0.21491
3236.28014	0.21426
3234.99437	0.21348
3233.70860	0.21269
3232.42283	0.21197
3231.13706	0.21128
3229.85129	0.21059
3228.56552	0.20988
3227.27976	0.20916
3225.99399	0.20844
3224.70822	0.20776
3223.42245	0.20722
3222.13668	0.20687
3220.85091	0.20667
3219.56514	0.20652
3218.27937	0.20640
3216.99360	0.20633
3215.70784	0.20624
3214.42207	0.20601
3213.13630	0.20555
3211.85053	0.20491
3210.56476	0.20414
3209.27899	0.20336
3207.99322	0.20271
3206.70745	0.20229
3205.42169	0.20208
3204.13592	0.20191
3202.85015	0.20157
3201.56438	0.20099
3200.27861	0.20020
3198.99284	0.19932
3197.70707	0.19852
3196.42130	0.19790
3195.13553	0.19745
3193.84977	0.19703
3192.56400	0.19641
3191.27823	0.19549
3189.99246	0.19444
3188.70669	0.19348
3187.42092	0.19276
3186.13515	0.19217
3184.84938	0.19157
3183.56362	0.19084
3182.27785	0.18996
3180.99208	0.18902
3179.70631	0.18809
3178.42054	0.18716
3177.13477	0.18618
3175.84900	0.18516
3174.56323	0.18423
3173.27746	0.18355
3171.99170	0.18315
3170.70593	0.18293
3169.42016	0.18266
3168.13439	0.18208
3166.84862	0.18109
3165.56285	0.17985
3164.27708	0.17870
3162.99131	0.17786
3161.70555	0.17734
3160.41978	0.17693
3159.13401	0.17646
3157.84824	0.17587
3156.56247	0.17516
3155.27670	0.17435
3153.99093	0.17337
3152.70516	0.17219
3151.41939	0.17088
3150.13363	0.16968
3148.84786	0.16880
3147.56209	0.16819
3146.27632	0.16761
3144.99055	0.16682
3143.70478	0.16578
3142.41901	0.16455
3141.13324	0.16332
3139.84748	0.16236
3138.56171	0.16185
3137.27594	0.16171
3135.99017	0.16169
3134.70440	0.16163
3133.41863	0.16146
3132.13286	0.16111
3130.84709	0.16045
3129.56132	0.15953
3128.27556	0.15859
3126.98979	0.15790
3125.70402	0.15756
3124.41825	0.15747
3123.13248	0.15743
3121.84671	0.15725
3120.56094	0.15685
3119.27517	0.15630
3117.98940	0.15577
3116.70364	0.15536
3115.41787	0.15505
3114.13210	0.15475
3112.84633	0.15448
3111.56056	0.15437
3110.27479	0.15450
3108.98902	0.15481
3107.70325	0.15518
3106.41749	0.15556
3105.13172	0.15598
3103.84595	0.15644
3102.56018	0.15686
3101.27441	0.15711
3099.98864	0.15720
3098.70287	0.15725
3097.41710	0.15735
3096.13133	0.15753
3094.84557	0.15776
3093.55980	0.15798
3092.27403	0.15804
3090.98826	0.15781
3089.70249	0.15739
3088.41672	0.15707
3087.13095	0.15705
3085.84518	0.15734
3084.55942	0.15782
3083.27365	0.15838
3081.98788	0.15896
3080.70211	0.15943
3079.41634	0.15968
3078.13057	0.15968
3076.84480	0.15955
3075.55903	0.15945
3074.27326	0.15943
3072.98750	0.15939
3071.70173	0.15920
3070.41596	0.15891
3069.13019	0.15871
3067.84442	0.15876
3066.55865	0.15904
3065.27288	0.15935
3063.98711	0.15942
3062.70135	0.15909
3061.41558	0.15835
3060.12981	0.15738
3058.84404	0.15644
3057.55827	0.15566
3056.27250	0.15504
3054.98673	0.15452
3053.70096	0.15408
3052.41519	0.15374
3051.12943	0.15338
3049.84366	0.15279
3048.55789	0.15186
3047.27212	0.15068
3045.98635	0.14950
3044.70058	0.14850
3043.41481	0.14774
3042.12904	0.14713
3040.84328	0.14657
3039.55751	0.14603
3038.27174	0.14548
3036.98597	0.14486
3035.70020	0.14407
3034.41443	0.14313
3033.12866	0.14219
3031.84289	0.14143
3030.55712	0.14091
3029.27136	0.14052
3027.98559	0.14007
3026.69982	0.13943
3025.41405	0.13862
3024.12828	0.13775
3022.84251	0.13693
3021.55674	0.13618
3020.27097	0.13550
3018.98521	0.13482
3017.69944	0.13409
3016.41367	0.13330
3015.12790	0.13259
3013.84213	0.13215
3012.55636	0.13206
3011.27059	0.13217
3009.98482	0.13217
3008.69905	0.13187
3007.41329	0.13133
3006.12752	0.13075
3004.84175	0.13037
3003.55598	0.13026
3002.27021	0.13042
3000.98444	0.13079
2999.69867	0.13136
2998.41290	0.13185
2997.12714	0.13217
2995.84137	0.13233
2994.55560	0.13251
2993.26983	0.13279
2991.98406	0.13309
2990.69829	0.13330
2989.41252	0.13352
2988.12675	0.13395
2986.84098	0.13462
2985.55522	0.13536
2984.26945	0.13603
2982.98368	0.13661
2981.69791	0.13711
2980.41214	0.13754
2979.12637	0.13796
2977.84060	0.13848
2976.55483	0.13911
2975.26907	0.13974
2973.98330	0.14026
2972.69753	0.14064
2971.41176	0.14100
2970.12599	0.14147
2968.84022	0.14208
2967.55445	0.14267
2966.26868	0.14312
2964.98291	0.14347
2963.69715	0.14388
2962.41138	0.14441
2961.12561	0.14501
2959.83984	0.14555
2958.55407	0.14587
2957.26830	0.14587
2955.98253	0.14564
2954.69676	0.14544
2953.41100	0.14544
2952.12523	0.14557
2950.83946	0.14561
2949.55369	0.14544
2948.26792	0.14516
2946.98215	0.14492
2945.69638	0.14485
2944.41061	0.14498
2943.12484	0.14525
2941.83908	0.14554
2940.55331	0.14578
2939.26754	0.14596
2937.98177	0.14614
2936.69600	0.14633
2935.41023	0.14648
2934.12446	0.14653
2932.83869	0.14654
2931.55293	0.14653
2930.26716	0.14652
2928.98139	0.14647
2927.69562	0.14631
2926.40985	0.14598
2925.12408	0.14544
2923.83831	0.14469
2922.55254	0.14385
2921.26677	0.14302
2919.98101	0.14227
2918.69524	0.14160
2917.40947	0.14092
2916.12370	0.14014
2914.83793	0.13927
2913.55216	0.13844
2912.26639	0.13771
2910.98062	0.13705
2909.69486	0.13636
2908.40909	0.13561
2907.12332	0.13482
2905.83755	0.13403
2904.55178	0.13325
2903.26601	0.13253
2901.98024	0.13187
2900.69447	0.13119
2899.40870	0.13046
2898.12294	0.12979
2896.83717	0.12933
2895.55140	0.12907
2894.26563	0.12883
2892.97986	0.12850
2891.69409	0.12820
2890.40832	0.12808
2889.12255	0.12811
2887.83678	0.12807
2886.55102	0.12788
2885.26525	0.12767
2883.97948	0.12762
2882.69371	0.12776
2881.40794	0.12795
2880.12217	0.12802
2878.83640	0.12792
2877.55063	0.12773
2876.26487	0.12759
2874.97910	0.12754
2873.69333	0.12740
2872.40756	0.12701
2871.12179	0.12636
2869.83602	0.12556
2868.55025	0.12471
2867.26448	0.12383
2865.97871	0.12295
2864.69295	0.12214
2863.40718	0.12147
2862.12141	0.12088
2860.83564	0.12029
2859.54987	0.11964
2858.26410	0.11892
2856.97833	0.11823
2855.69256	0.11765
2854.40680	0.11716
2853.12103	0.11664
2851.83526	0.11601
2850.54949	0.11533
2849.26372	0.11475
2847.97795	0.11429
2846.69218	0.11382
2845.40641	0.11327
2844.12064	0.11270
2842.83488	0.11228
2841.54911	0.11201
2840.26334	0.11179
2838.97757	0.11145
2837.69180	0.11094
2836.40603	0.11030
2835.12026	0.10964
2833.83449	0.10906
2832.54873	0.10858
2831.26296	0.10814
2829.97719	0.10772
2828.69142	0.10741
2827.40565	0.10731
2826.11988	0.10733
2824.83411	0.10726
2823.54834	0.10695
2822.26257	0.10643
2820.97681	0.10583
2819.69104	0.10528
2818.40527	0.10486
2817.11950	0.10461
2815.83373	0.10440
2814.54796	0.10407
2813.26219	0.10362
2811.97642	0.10316
2810.69066	0.10284
2809.40489	0.10268
2808.11912	0.10266
2806.83335	0.10268
2805.54758	0.10267
2804.26181	0.10257
2802.97604	0.10235
2801.69027	0.10202
2800.40450	0.10169
2799.11874	0.10144
2797.83297	0.10124
2796.54720	0.10097
2795.26143	0.10058
2793.97566	0.10012
2792.68989	0.09970
2791.40412	0.09935
2790.11835	0.09902
2788.83259	0.09866
2787.54682	0.09833
2786.26105	0.09814
2784.97528	0.09815
2783.68951	0.09829
2782.40374	0.09839
2781.11797	0.09826
2779.83220	0.09789
2778.54643	0.09739
2777.26067	0.09697
2775.97490	0.09677
2774.68913	0.09670
2773.40336	0.09660
2772.11759	0.09632
2770.83182	0.09587
2769.54605	0.09538
2768.26028	0.09496
2766.97452	0.09461
2765.68875	0.09426
2764.40298	0.09388
2763.11721	0.09355
2761.83144	0.09342
2760.54567	0.09351
2759.25990	0.09373
2757.97413	0.09389
2756.68836	0.09386
2755.40260	0.09358
2754.11683	0.09308
2752.83106	0.09247
2751.54529	0.09191
2750.25952	0.09155
2748.97375	0.09140
2747.68798	0.09137
2746.40221	0.09131
2745.11645	0.09116
2743.83068	0.09099
2742.54491	0.09087
2741.25914	0.09079
2739.97337	0.09063
2738.68760	0.09029
2737.40183	0.08982
2736.11606	0.08938
2734.83029	0.08908
2733.54453	0.08892
2732.25876	0.08884
2730.97299	0.08877
2729.68722	0.08867
2728.40145	0.08854
2727.11568	0.08841
2725.82991	0.08827
2724.54414	0.08803
2723.25838	0.08761
2721.97261	0.08703
2720.68684	0.08645
2719.40107	0.08603
2718.11530	0.08582
2716.82953	0.08574
2715.54376	0.08572
2714.25799	0.08568
2712.97222	0.08563
2711.68646	0.08556
2710.40069	0.08549
2709.11492	0.08538
2707.82915	0.08524
2706.54338	0.08507
2705.25761	0.08489
2703.97184	0.08475
2702.68607	0.08464
2701.40031	0.08457
2700.11454	0.08451
2698.82877	0.08442
2697.54300	0.08429
2696.25723	0.08413
2694.97146	0.08398
2693.68569	0.08385
2692.39992	0.08373
2691.11415	0.08357
2689.82839	0.08333
2688.54262	0.08308
2687.25685	0.08291
2685.97108	0.08287
2684.68531	0.08288
2683.39954	0.08281
2682.11377	0.08263
2680.82800	0.08243
2679.54224	0.08232
2678.25647	0.08230
2676.97070	0.08226
2675.68493	0.08207
2674.39916	0.08173
2673.11339	0.08135
2671.82762	0.08103
2670.54185	0.08085
2669.25608	0.08081
2667.97032	0.08089
2666.68455	0.08099
2665.39878	0.08102
2664.11301	0.08095
2662.82724	0.08079
2661.54147	0.08065
2660.25570	0.08056
2658.96993	0.08049
2657.68417	0.08037
2656.39840	0.08018
2655.11263	0.07992
2653.82686	0.07959
2652.54109	0.07919
2651.25532	0.07876
2649.96955	0.07837
2648.68378	0.07802
2647.39801	0.07768
2646.11225	0.07734
2644.82648	0.07706
2643.54071	0.07686
2642.25494	0.07668
2640.96917	0.07639
2639.68340	0.07599
2638.39763	0.07554
2637.11186	0.07510
2635.82609	0.07474
2634.54033	0.07449
2633.25456	0.07432
2631.96879	0.07412
2630.68302	0.07381
2629.39725	0.07348
2628.11148	0.07329
2626.82571	0.07326
2625.53994	0.07323
2624.25418	0.07298
2622.96841	0.07250
2621.68264	0.07200
2620.39687	0.07170
2619.11110	0.07154
2617.82533	0.07130
2616.53956	0.07085
2615.25379	0.07032
2613.96802	0.06996
2612.68226	0.06991
2611.39649	0.07009
2610.11072	0.07027
2608.82495	0.07020
2607.53918	0.06982
2606.25341	0.06928
2604.96764	0.06879
2603.68187	0.06842
2602.39611	0.06817
2601.11034	0.06799
2599.82457	0.06787
2598.53880	0.06777
2597.25303	0.06775
2595.96726	0.06789
2594.68149	0.06812
2593.39572	0.06827
2592.10995	0.06821
2590.82419	0.06802
2589.53842	0.06779
2588.25265	0.06748
2586.96688	0.06702
2585.68111	0.06639
2584.39534	0.06574
2583.10957	0.06530
2581.82380	0.06519
2580.53804	0.06535
2579.25227	0.06555
2577.96650	0.06561
2576.68073	0.06549
2575.39496	0.06523
2574.10919	0.06491
2572.82342	0.06461
2571.53765	0.06443
2570.25188	0.06433
2568.96612	0.06420
2567.68035	0.06393
2566.39458	0.06355
2565.10881	0.06322
2563.82304	0.06314
2562.53727	0.06343
2561.25150	0.06388
2559.96573	0.06412
2558.67997	0.06387
2557.39420	0.06327
2556.10843	0.06265
2554.82266	0.06229
2553.53689	0.06215
2552.25112	0.06205
2550.96535	0.06186
2549.67958	0.06169
2548.39381	0.06161
2547.10805	0.06163
2545.82228	0.06166
2544.53651	0.06165
2543.25074	0.06155
2541.96497	0.06133
2540.67920	0.06102
2539.39343	0.06074
2538.10766	0.06052
2536.82190	0.06032
2535.53613	0.06009
2534.25036	0.05984
2532.96459	0.05961
2531.67882	0.05940
2530.39305	0.05916
2529.10728	0.05893
2527.82151	0.05884
2526.53574	0.05901
2525.24998	0.05940
2523.96421	0.05974
2522.67844	0.05973
2521.39267	0.05934
2520.10690	0.05884
2518.82113	0.05854
2517.53536	0.05853
2516.24959	0.05874
2514.96383	0.05901
2513.67806	0.05915
2512.39229	0.05903
2511.10652	0.05867
2509.82075	0.05825
2508.53498	0.05796
2507.24921	0.05788
2505.96344	0.05791
2504.67767	0.05792
2503.39191	0.05783
2502.10614	0.05767
2500.82037	0.05755
2499.53460	0.05759
2498.24883	0.05771
2496.96306	0.05767
2495.67729	0.05727
2494.39152	0.05659
2493.10576	0.05600
2491.81999	0.05579
2490.53422	0.05595
2489.24845	0.05621
2487.96268	0.05631
2486.67691	0.05618
2485.39114	0.05591
2484.10537	0.05566
2482.81960	0.05553
2481.53384	0.05557
2480.24807	0.05575
2478.96230	0.05600
2477.67653	0.05623
2476.39076	0.05632
2475.10499	0.05623
2473.81922	0.05607
2472.53345	0.05602
2471.24769	0.05608
2469.96192	0.05600
2468.67615	0.05558
2467.39038	0.05498
2466.10461	0.05459
2464.81884	0.05465
2463.53307	0.05504
2462.24730	0.05541
2460.96153	0.05545
2459.67577	0.05511
2458.39000	0.05459
2457.10423	0.05423
2455.81846	0.05428
2454.53269	0.05467
2453.24692	0.05504
2451.96115	0.05510
2450.67538	0.05487
2449.38962	0.05463
2448.10385	0.05464
2446.81808	0.05480
2445.53231	0.05484
2444.24654	0.05464
2442.96077	0.05435
2441.67500	0.05418
2440.38923	0.05413
2439.10346	0.05409
2437.81770	0.05407
2436.53193	0.05411
2435.24616	0.05420
2433.96039	0.05426
2432.67462	0.05424
2431.38885	0.05425
2430.10308	0.05444
2428.81731	0.05474
2427.53155	0.05489
2426.24578	0.05470
2424.96001	0.05426
2423.67424	0.05387
2422.38847	0.05375
2421.10270	0.05385
2419.81693	0.05396
2418.53116	0.05388
2417.24539	0.05357
2415.95963	0.05315
2414.67386	0.05278
2413.38809	0.05258
2412.10232	0.05260
2410.81655	0.05280
2409.53078	0.05302
2408.24501	0.05312
2406.95924	0.05304
2405.67347	0.05290
2404.38771	0.05282
2403.10194	0.05283
2401.81617	0.05289
2400.53040	0.05293
2399.24463	0.05271
2397.95886	0.05264
2396.67309	0.05255
2395.38732	0.05252
2394.10156	0.05257
2392.81579	0.05265
2391.53002	0.05268
2390.24425	0.05270
2388.95848	0.05276
2387.67271	0.05283
2386.38694	0.05288
2385.10117	0.05294
2383.81540	0.05308
2382.52964	0.05327
2381.24387	0.05338
2379.95810	0.05330
2378.67233	0.05316
2377.38656	0.05307
2376.10079	0.05306
2374.81502	0.05315
2373.52925	0.05341
2372.24349	0.05372
2370.95772	0.05390
2369.67195	0.05394
2368.38618	0.05395
2367.10041	0.05407
2365.81464	0.05438
2364.52887	0.05480
2363.24310	0.05515
2361.95733	0.05532
2360.67157	0.05533
2359.38580	0.05525
2358.10003	0.05518
2356.81426	0.05510
2355.52849	0.05495
2354.24272	0.05467
2352.95695	0.05431
2351.67118	0.05406
2350.38542	0.05393
2349.09965	0.05388
2347.81388	0.05394
2346.52811	0.05404
2345.24234	0.05401
2343.95657	0.05388
2342.67080	0.05370
2341.38503	0.05382
2340.09926	0.05406
2338.81350	0.05403
2337.52773	0.05380
2336.24196	0.05370
2334.95619	0.05363
2333.67042	0.05350
2332.38465	0.05330
2331.09888	0.05334
2329.81311	0.05324
2328.52735	0.05316
2327.24158	0.05332
2325.95581	0.05347
2324.67004	0.05350
2323.38427	0.05326
2322.09850	0.05299
2320.81273	0.05274
2319.52696	0.05249
2318.24119	0.05221
2316.95543	0.05191
2315.66966	0.05156
2314.38389	0.05113
2313.09812	0.05063
2311.81235	0.05006
2310.52658	0.04948
2309.24081	0.04906
2307.95504	0.04893
2306.66928	0.04901
2305.38351	0.04915
2304.09774	0.04923
2302.81197	0.04924
2301.52620	0.04917
2300.24043	0.04895
2298.95466	0.04853
2297.66889	0.04796
2296.38312	0.04734
2295.09736	0.04678
2293.81159	0.04638
2292.52582	0.04619
2291.24005	0.04613
2289.95428	0.04603
2288.66851	0.04586
2287.38274	0.04568
2286.09697	0.04550
2284.81121	0.04523
2283.52544	0.04487
2282.23967	0.04454
2280.95390	0.04433
2279.66813	0.04424
2278.38236	0.04420
2277.09659	0.04424
2275.81082	0.04433
2274.52505	0.04429
2273.23929	0.04400
2271.95352	0.04355
2270.66775	0.04316
2269.38198	0.04283
2268.09621	0.04237
2266.81044	0.04164
2265.52467	0.04080
2264.23890	0.04020
2262.95314	0.04007
2261.66737	0.04038
2260.38160	0.04087
2259.09583	0.04125
2257.81006	0.04129
2256.52429	0.04086
2255.23852	0.04006
2253.95275	0.03915
2252.66698	0.03843
2251.38122	0.03814
2250.09545	0.03826
2248.80968	0.03849
2247.52391	0.03871
2246.23814	0.03885
2244.95237	0.03884
2243.66660	0.03864
2242.38083	0.03827
2241.09507	0.03798
2239.80930	0.03807
2238.52353	0.03857
2237.23776	0.03908
2235.95199	0.03920
2234.66622	0.03893
2233.38045	0.03854
2232.09468	0.03817
2230.80891	0.03771
2229.52315	0.03711
2228.23738	0.03655
2226.95161	0.03620
2225.66584	0.03597
2224.38007	0.03578
2223.09430	0.03574
2221.80853	0.03594
2220.52276	0.03611
2219.23700	0.03575
2217.95123	0.03477
2216.66546	0.03364
2215.37969	0.03287
2214.09392	0.03252
2212.80815	0.03236
2211.52238	0.03220
2210.23661	0.03204
2208.95084	0.03194
2207.66508	0.03215
2206.37931	0.03290
2205.09354	0.03415
2203.80777	0.03534
2202.52200	0.03565
2201.23623	0.03464
2199.95046	0.03274
2198.66469	0.03099
2197.37893	0.03027
2196.09316	0.03060
2194.80739	0.03127
2193.52162	0.03171
2192.23585	0.03183
2190.95008	0.03171
2189.66431	0.03127
2188.37854	0.03056
2187.09277	0.02990
2185.80701	0.02948
2184.52124	0.02898
2183.23547	0.02802
2181.94970	0.02696
2180.66393	0.02659
2179.37816	0.02719
2178.09239	0.02822
2176.80662	0.02898
2175.52085	0.02927
2174.23509	0.02926
2172.94932	0.02906
2171.66355	0.02856
2170.37778	0.02770
2169.09201	0.02663
2167.80624	0.02558
2166.52047	0.02457
2165.23470	0.02343
2163.94894	0.02205
2162.66317	0.02062
2161.37740	0.01954
2160.09163	0.01913
2158.80586	0.01947
2157.52009	0.02034
2156.23432	0.02138
2154.94855	0.02241
2153.66278	0.02346
2152.37702	0.02450
2151.09125	0.02541
2149.80548	0.02626
2148.51971	0.02720
2147.23394	0.02811
2145.94817	0.02856
2144.66240	0.02844
2143.37663	0.02813
2142.09087	0.02804
2140.80510	0.02814
2139.51933	0.02826
2138.23356	0.02840
2136.94779	0.02877
2135.66202	0.02943
2134.37625	0.03023
2133.09048	0.03096
2131.80471	0.03150
2130.51895	0.03188
2129.23318	0.03217
2127.94741	0.03245
2126.66164	0.03282
2125.37587	0.03326
2124.09010	0.03370
2122.80433	0.03406
2121.51856	0.03440
2120.23280	0.03477
2118.94703	0.03514
2117.66126	0.03544
2116.37549	0.03563
2115.08972	0.03572
2113.80395	0.03571
2112.51818	0.03563
2111.23241	0.03552
2109.94664	0.03533
2108.66088	0.03512
2107.37511	0.03503
2106.08934	0.03512
2104.80357	0.03512
2103.51780	0.03478
2102.23203	0.03428
2100.94626	0.03398
2099.66049	0.03313
2098.37473	0.03265
2097.08896	0.03233
2095.80319	0.03189
2094.51742	0.03157
2093.23165	0.03162
2091.94588	0.03197
2090.66011	0.03223
2089.37434	0.03212
2088.08857	0.03173
2086.80281	0.03137
2085.51704	0.03121
2084.23127	0.03111
2082.94550	0.03094
2081.65973	0.03080
2080.37396	0.03083
2079.08819	0.03090
2077.80242	0.03065
2076.51666	0.02993
2075.23089	0.02901
2073.94512	0.02836
2072.65935	0.02824
2071.37358	0.02850
2070.08781	0.02879
2068.80204	0.02886
2067.51627	0.02874
2066.23050	0.02853
2064.94474	0.02821
2063.65897	0.02771
2062.37320	0.02707
2061.08743	0.02650
2059.80166	0.02614
2058.51589	0.02598
2057.23012	0.02591
2055.94435	0.02580
2054.65859	0.02553
2053.37282	0.02497
2052.08705	0.02408
2050.80128	0.02299
2049.51551	0.02194
2048.22974	0.02117
2046.94397	0.02079
2045.65820	0.02082
2044.37243	0.02117
2043.08667	0.02169
2041.80090	0.02203
2040.51513	0.02182
2039.22936	0.02102
2037.94359	0.02004
2036.65782	0.01930
2035.37205	0.01886
2034.08628	0.01847
2032.80052	0.01793
2031.51475	0.01744
2030.22898	0.01742
2028.94321	0.01816
2027.65744	0.01954
2026.37167	0.02111
2025.08590	0.02248
2023.80013	0.02339
2022.51436	0.02358
2021.22860	0.02284
2019.94283	0.02132
2018.65706	0.01970
2017.37129	0.01858
2016.08552	0.01804
2014.79975	0.01785
2013.51398	0.01789
2012.22821	0.01825
2010.94245	0.01887
2009.65668	0.01947
2008.37091	0.01978
2007.08514	0.01980
2005.79937	0.01973
2004.51360	0.01976
2003.22783	0.02000
2001.94206	0.02051
2000.65629	0.02129
1999.37053	0.02217
1998.08476	0.02280
1996.79899	0.02300
1995.51322	0.02297
1994.22745	0.02312
1992.94168	0.02358
1991.65591	0.02400
1990.37014	0.02406
1989.08438	0.02388
1987.79861	0.02372
1986.51284	0.02355
1985.22707	0.02306
1983.94130	0.02217
1982.65553	0.02110
1981.36976	0.02005
1980.08399	0.01902
1978.79822	0.01803
1977.51246	0.01732
1976.22669	0.01724
1974.94092	0.01787
1973.65515	0.01893
1972.36938	0.02013
1971.08361	0.02129
1969.79784	0.02218
1968.51207	0.02248
1967.22631	0.02214
1965.94054	0.02165
1964.65477	0.02161
1963.36900	0.02217
1962.08323	0.02286
1960.79746	0.02322
1959.51169	0.02325
1958.22592	0.02327
1956.94015	0.02352
1955.65439	0.02390
1954.36862	0.02413
1953.08285	0.02404
1951.79708	0.02378
1950.51131	0.02365
1949.22554	0.02379
1947.93977	0.02404
1946.65400	0.02423
1945.36823	0.02428
1944.08247	0.02429
1942.79670	0.02434
1941.51093	0.02445
1940.22516	0.02462
1938.93939	0.02489
1937.65362	0.02524
1936.36785	0.02557
1935.08208	0.02574
1933.79632	0.02570
1932.51055	0.02552
1931.22478	0.02533
1929.93901	0.02526
1928.65324	0.02535
1927.36747	0.02560
1926.08170	0.02598
1924.79593	0.02636
1923.51016	0.02668
1922.22440	0.02695
1920.93863	0.02725
1919.65286	0.02757
1918.36709	0.02776
1917.08132	0.02772
1915.79555	0.02751
1914.50978	0.02732
1913.22401	0.02726
1911.93825	0.02733
1910.65248	0.02742
1909.36671	0.02741
1908.08094	0.02723
1906.79517	0.02697
1905.50940	0.02684
1904.22363	0.02695
1902.93786	0.02724
1901.65209	0.02751
1900.36633	0.02762
1899.08056	0.02755
1897.79479	0.02743
1896.50902	0.02737
1895.22325	0.02739
1893.93748	0.02745
1892.65171	0.02751
1891.36594	0.02756
1890.08018	0.02761
1888.79441	0.02763
1887.50864	0.02761
1886.22287	0.02763
1884.93710	0.02772
1883.65133	0.02779
1882.36556	0.02768
1881.07979	0.02736
1879.79402	0.02696
1878.50826	0.02673
1877.22249	0.02680
1875.93672	0.02708
1874.65095	0.02737
1873.36518	0.02759
1872.07941	0.02780
1870.79364	0.02804
1869.50787	0.02818
1868.22211	0.02811
1866.93634	0.02787
1865.65057	0.02760
1864.36480	0.02736
1863.07903	0.02708
1861.79326	0.02676
1860.50749	0.02649
1859.22172	0.02636
1857.93595	0.02633
1856.65019	0.02634
1855.36442	0.02641
1854.07865	0.02657
1852.79288	0.02679
1851.50711	0.02696
1850.22134	0.02699
1848.93557	0.02686
1847.64980	0.02664
1846.36404	0.02647
1845.07827	0.02648
1843.79250	0.02663
1842.50673	0.02677
1841.22096	0.02677
1839.93519	0.02665
1838.64942	0.02649
1837.36365	0.02636
1836.07788	0.02629
1834.79212	0.02626
1833.50635	0.02626
1832.22058	0.02629
1830.93481	0.02638
1829.64904	0.02649
1828.36327	0.02657
1827.07750	0.02656
1825.79173	0.02643
1824.50597	0.02614
1823.22020	0.02579
1821.93443	0.02544
1820.64866	0.02517
1819.36289	0.02508
1818.07712	0.02524
1816.79135	0.02564
1815.50558	0.02613
1814.21981	0.02653
1812.93405	0.02672
1811.64828	0.02671
1810.36251	0.02663
1809.07674	0.02656
1807.79097	0.02653
1806.50520	0.02648
1805.21943	0.02637
1803.93366	0.02624
1802.64790	0.02615
1801.36213	0.02612
1800.07636	0.02609
1798.79059	0.02602
1797.50482	0.02594
1796.21905	0.02587
1794.93328	0.02584
1793.64751	0.02583
1792.36174	0.02581
1791.07598	0.02573
1789.79021	0.02559
1788.50444	0.02545
1787.21867	0.02531
1785.93290	0.02521
1784.64713	0.02514
1783.36136	0.02509
1782.07559	0.02506
1780.78983	0.02505
1779.50406	0.02505
1778.21829	0.02507
1776.93252	0.02510
1775.64675	0.02513
1774.36098	0.02521
1773.07521	0.02533
1771.78944	0.02539
1770.50367	0.02540
1769.21791	0.02540
1767.93214	0.02537
1766.64637	0.02527
1765.36060	0.02516
1764.07483	0.02511
1762.78906	0.02511
1761.50329	0.02509
1760.21752	0.02505
1758.93176	0.02509
1757.64599	0.02525
1756.36022	0.02548
1755.07445	0.02569
1753.78868	0.02594
1752.50291	0.02626
1751.21714	0.02658
1749.93137	0.02684
1748.64560	0.02701
1747.35984	0.02714
1746.07407	0.02727
1744.78830	0.02743
1743.50253	0.02766
1742.21676	0.02795
1740.93099	0.02832
1739.64522	0.02871
1738.35945	0.02905
1737.07369	0.02941
1735.78792	0.02989
1734.50215	0.03043
1733.21638	0.03089
1731.93061	0.03127
1730.64484	0.03166
1729.35907	0.03207
1728.07330	0.03245
1726.78753	0.03287
1725.50177	0.03340
1724.21600	0.03398
1722.93023	0.03446
1721.64446	0.03482
1720.35869	0.03523
1719.07292	0.03583
1717.78715	0.03657
1716.50138	0.03732
1715.21561	0.03808
1713.92985	0.03900
1712.64408	0.04021
1711.35831	0.04171
1710.07254	0.04344
1708.78677	0.04535
1707.50100	0.04742
1706.21523	0.04963
1704.92946	0.05192
1703.64370	0.05437
1702.35793	0.05717
1701.07216	0.06032
1699.78639	0.06360
1698.50062	0.06697
1697.21485	0.07058
1695.92908	0.07436
1694.64331	0.07803
1693.35754	0.08152
1692.07178	0.08499
1690.78601	0.08848
1689.50024	0.09192
1688.21447	0.09536
1686.92870	0.09902
1685.64293	0.10305
1684.35716	0.10730
1683.07139	0.11152
1681.78563	0.11568
1680.49986	0.11992
1679.21409	0.12431
1677.92832	0.12890
1676.64255	0.13374
1675.35678	0.13875
1674.07101	0.14382
1672.78524	0.14896
1671.49947	0.15426
1670.21371	0.15972
1668.92794	0.16520
1667.64217	0.17056
1666.35640	0.17577
1665.07063	0.18089
1663.78486	0.18596
1662.49909	0.19094
1661.21332	0.19577
1659.92756	0.20035
1658.64179	0.20456
1657.35602	0.20836
1656.07025	0.21199
1654.78448	0.21579
1653.49871	0.21971
1652.21294	0.22334
1650.92717	0.22645
1649.64140	0.22923
1648.35564	0.23196
1647.06987	0.23469
1645.78410	0.23730
1644.49833	0.23973
1643.21256	0.24201
1641.92679	0.24420
1640.64102	0.24630
1639.35525	0.24830
1638.06949	0.25026
1636.78372	0.25217
1635.49795	0.25392
1634.21218	0.25536
1632.92641	0.25647
1631.64064	0.25724
1630.35487	0.25758
1629.06910	0.25733
1627.78333	0.25641
1626.49757	0.25485
1625.21180	0.25276
1623.92603	0.25018
1622.64026	0.24707
1621.35449	0.24339
1620.06872	0.23926
1618.78295	0.23487
1617.49718	0.23028
1616.21142	0.22545
1614.92565	0.22040
1613.63988	0.21524
1612.35411	0.21004
1611.06834	0.20479
1609.78257	0.19951
1608.49680	0.19427
1607.21103	0.18913
1605.92526	0.18416
1604.63950	0.17940
1603.35373	0.17486
1602.06796	0.17056
1600.78219	0.16648
1599.49642	0.16261
1598.21065	0.15898
1596.92488	0.15560
1595.63911	0.15252
1594.35335	0.14973
1593.06758	0.14721
1591.78181	0.14498
1590.49604	0.14306
1589.21027	0.14149
1587.92450	0.14025
1586.63873	0.13929
1585.35296	0.13858
1584.06719	0.13812
1582.78143	0.13789
1581.49566	0.13787
1580.20989	0.13809
1578.92412	0.13871
1577.63835	0.13984
1576.35258	0.14139
1575.06681	0.14314
1573.78104	0.14500
1572.49528	0.14704
1571.20951	0.14936
1569.92374	0.15195
1568.63797	0.15477
1567.35220	0.15778
1566.06643	0.16092
1564.78066	0.16406
1563.49489	0.16710
1562.20912	0.17019
1560.92336	0.17355
1559.63759	0.17710
1558.35182	0.18055
1557.06605	0.18375
1555.78028	0.18675
1554.49451	0.18959
1553.20874	0.19221
1551.92297	0.19458
1550.63721	0.19673
1549.35144	0.19867
1548.06567	0.20038
1546.77990	0.20187
1545.49413	0.20316
1544.20836	0.20426
1542.92259	0.20525
1541.63682	0.20626
1540.35105	0.20728
1539.06529	0.20812
1537.77952	0.20860
1536.49375	0.20880
1535.20798	0.20888
1533.92221	0.20888
1532.63644	0.20875
1531.35067	0.20848
1530.06490	0.20809
1528.77914	0.20759
1527.49337	0.20698
1526.20760	0.20624
1524.92183	0.20538
1523.63606	0.20448
1522.35029	0.20356
1521.06452	0.20252
1519.77875	0.20131
1518.49298	0.19998
1517.20722	0.19853
1515.92145	0.19682
1514.63568	0.19479
1513.34991	0.19249
1512.06414	0.18993
1510.77837	0.18712
1509.49260	0.18413
1508.20683	0.18106
1506.92107	0.17789
1505.63530	0.17449
1504.34953	0.17087
1503.06376	0.16714
1501.77799	0.16342
1500.49222	0.15972
1499.20645	0.15606
1497.92068	0.15244
1496.63491	0.14877
1495.34915	0.14502
1494.06338	0.14124
1492.77761	0.13757
1491.49184	0.13409
1490.20607	0.13080
1488.92030	0.12777
1487.63453	0.12509
1486.34876	0.12277
1485.06299	0.12080
1483.77723	0.11913
1482.49146	0.11775
1481.20569	0.11670
1479.91992	0.11602
1478.63415	0.11575
1477.34838	0.11586
1476.06261	0.11633
1474.77684	0.11721
1473.49108	0.11848
1472.20531	0.12000
1470.91954	0.12161
1469.63377	0.12323
1468.34800	0.12487
1467.06223	0.12658
1465.77646	0.12841
1464.49069	0.13035
1463.20492	0.13236
1461.91916	0.13439
1460.63339	0.13650
1459.34762	0.13878
1458.06185	0.14121
1456.77608	0.14362
1455.49031	0.14576
1454.20454	0.14755
1452.91877	0.14897
1451.63301	0.15001
1450.34724	0.15067
1449.06147	0.15100
1447.77570	0.15105
1446.48993	0.15084
1445.20416	0.15041
1443.91839	0.14981
1442.63262	0.14906
1441.34685	0.14811
1440.06109	0.14698
1438.77532	0.14573
1437.48955	0.14436
1436.20378	0.14276
1434.91801	0.14089
1433.63224	0.13889
1432.34647	0.13693
1431.06070	0.13511
1429.77494	0.13348
1428.48917	0.13207
1427.20340	0.13090
1425.91763	0.12996
1424.63186	0.12921
1423.34609	0.12855
1422.06032	0.12803
1420.77455	0.12773
1419.48878	0.12762
1418.20302	0.12762
1416.91725	0.12765
1415.63148	0.12772
1414.34571	0.12786
1413.05994	0.12805
1411.77417	0.12833
1410.48840	0.12868
1409.20263	0.12911
1407.91687	0.12959
1406.63110	0.13009
1405.34533	0.13054
1404.05956	0.13088
1402.77379	0.13112
1401.48802	0.13127
1400.20225	0.13132
1398.91648	0.13125
1397.63071	0.13105
1396.34495	0.13080
1395.05918	0.13053
1393.77341	0.13022
1392.48764	0.12987
1391.20187	0.12951
1389.91610	0.12917
1388.63033	0.12880
1387.34456	0.12837
1386.05880	0.12787
1384.77303	0.12731
1383.48726	0.12674
1382.20149	0.12618
1380.91572	0.12564
1379.62995	0.12511
1378.34418	0.12451
1377.05841	0.12380
1375.77264	0.12296
1374.48688	0.12202
1373.20111	0.12098
1371.91534	0.11986
1370.62957	0.11869
1369.34380	0.11745
1368.05803	0.11611
1366.77226	0.11470
1365.48649	0.11327
1364.20073	0.11192
1362.91496	0.11073
1361.62919	0.10972
1360.34342	0.10886
1359.05765	0.10816
1357.77188	0.10763
1356.48611	0.10731
1355.20034	0.10726
1353.91457	0.10749
1352.62881	0.10798
1351.34304	0.10863
1350.05727	0.10939
1348.77150	0.11025
1347.48573	0.11122
1346.19996	0.11228
1344.91419	0.11336
1343.62842	0.11441
1342.34266	0.11544
1341.05689	0.11644
1339.77112	0.11736
1338.48535	0.11812
1337.19958	0.11864
1335.91381	0.11883
1334.62804	0.11868
1333.34227	0.11820
1332.05650	0.11749
1330.77074	0.11665
1329.48497	0.11575
1328.19920	0.11483
1326.91343	0.11391
1325.62766	0.11300
1324.34189	0.11214
1323.05612	0.11139
1321.77035	0.11076
1320.48459	0.11027
1319.19882	0.10987
1317.91305	0.10951
1316.62728	0.10916
1315.34151	0.10879
1314.05574	0.10836
1312.76997	0.10786
1311.48420	0.10730
1310.19843	0.10671
1308.91267	0.10612
1307.62690	0.10555
1306.34113	0.10502
1305.05536	0.10454
1303.76959	0.10410
1302.48382	0.10368
1301.19805	0.10326
1299.91228	0.10288
1298.62652	0.10255
1297.34075	0.10231
1296.05498	0.10220
1294.76921	0.10223
1293.48344	0.10241
1292.19767	0.10274
1290.91190	0.10316
1289.62613	0.10369
1288.34036	0.10429
1287.05460	0.10496
1285.76883	0.10567
1284.48306	0.10638
1283.19729	0.10702
1281.91152	0.10757
1280.62575	0.10801
1279.33998	0.10836
1278.05421	0.10866
1276.76845	0.10889
1275.48268	0.10901
1274.19691	0.10904
1272.91114	0.10907
1271.62537	0.10918
1270.33960	0.10944
1269.05383	0.10983
1267.76806	0.11034
1266.48229	0.11094
1265.19653	0.11160
1263.91076	0.11231
1262.62499	0.11306
1261.33922	0.11383
1260.05345	0.11460
1258.76768	0.11533
1257.48191	0.11605
1256.19614	0.11681
1254.91037	0.11766
1253.62461	0.11862
1252.33884	0.11967
1251.05307	0.12078
1249.76730	0.12197
1248.48153	0.12324
1247.19576	0.12461
1245.90999	0.12606
1244.62422	0.12754
1243.33846	0.12900
1242.05269	0.13038
1240.76692	0.13162
1239.48115	0.13266
1238.19538	0.13342
1236.90961	0.13391
1235.62384	0.13417
1234.33807	0.13425
1233.05230	0.13419
1231.76654	0.13399
1230.48077	0.13359
1229.19500	0.13293
1227.90923	0.13195
1226.62346	0.13061
1225.33769	0.12900
1224.05192	0.12722
1222.76615	0.12542
1221.48039	0.12367
1220.19462	0.12200
1218.90885	0.12043
1217.62308	0.11895
1216.33731	0.11762
1215.05154	0.11652
1213.76577	0.11574
1212.48000	0.11530
1211.19423	0.11513
1209.90847	0.11514
1208.62270	0.11527
1207.33693	0.11550
1206.05116	0.11579
1204.76539	0.11605
1203.47962	0.11618
1202.19385	0.11608
1200.90808	0.11572
1199.62232	0.11511
1198.33655	0.11413
1197.05078	0.11300
1195.76501	0.11178
1194.47924	0.11049
1193.19347	0.10912
1191.90770	0.10771
1190.62193	0.10632
1189.33616	0.10499
1188.05040	0.10374
1186.76463	0.10255
1185.47886	0.10143
1184.19309	0.10039
1182.90732	0.09947
1181.62155	0.09870
1180.33578	0.09809
1179.05001	0.09761
1177.76425	0.09721
1176.47848	0.09684
1175.19271	0.09650
1173.90694	0.09621
1172.62117	0.09599
1171.33540	0.09584
1170.04963	0.09573
1168.76386	0.09564
1167.47809	0.09558
1166.19233	0.09557
1164.90656	0.09558
1163.62079	0.09555
1162.33502	0.09543
1161.04925	0.09524
1159.76348	0.09501
1158.47771	0.09471
1157.19194	0.09426
1155.90618	0.09361
1154.62041	0.09278
1153.33464	0.09183
1152.04887	0.09080
1150.76310	0.08969
1149.47733	0.08856
1148.19156	0.08746
1146.90579	0.08647
1145.62002	0.08563
1144.33426	0.08490
1143.04849	0.08422
1141.76272	0.08354
1140.47695	0.08284
1139.19118	0.08213
1137.90541	0.08144
1136.61964	0.08082
1135.33387	0.08033
1134.04811	0.07999
1132.76234	0.07974
1131.47657	0.07951
1130.19080	0.07924
1128.90503	0.07895
1127.61926	0.07869
1126.33349	0.07848
1125.04772	0.07830
1123.76195	0.07816
1122.47619	0.07806
1121.19042	0.07801
1119.90465	0.07799
1118.61888	0.07800
1117.33311	0.07802
1116.04734	0.07805
1114.76157	0.07810
1113.47580	0.07819
1112.19004	0.07832
1110.90427	0.07851
1109.61850	0.07874
1108.33273	0.07899
1107.04696	0.07925
1105.76119	0.07953
1104.47542	0.07988
1103.18965	0.08030
1101.90388	0.08075
1100.61812	0.08118
1099.33235	0.08158
1098.04658	0.08200
1096.76081	0.08245
1095.47504	0.08297
1094.18927	0.08358
1092.90350	0.08430
1091.61773	0.08516
1090.33197	0.08614
1089.04620	0.08725
1087.76043	0.08846
1086.47466	0.08976
1085.18889	0.09107
1083.90312	0.09226
1082.61735	0.09323
1081.33158	0.09393
1080.04581	0.09437
1078.76005	0.09451
1077.47428	0.09432
1076.18851	0.09382
1074.90274	0.09310
1073.61697	0.09235
1072.33120	0.09171
1071.04543	0.09124
1069.75966	0.09098
1068.47390	0.09086
1067.18813	0.09080
1065.90236	0.09074
1064.61659	0.09065
1063.33082	0.09053
1062.04505	0.09034
1060.75928	0.09003
1059.47351	0.08960
1058.18774	0.08911
1056.90198	0.08862
1055.61621	0.08816
1054.33044	0.08771
1053.04467	0.08724
1051.75890	0.08677
1050.47313	0.08631
1049.18736	0.08587
1047.90159	0.08551
1046.61583	0.08524
1045.33006	0.08500
1044.04429	0.08476
1042.75852	0.08457
1041.47275	0.08452
1040.18698	0.08469
1038.90121	0.08507
1037.61544	0.08560
1036.32967	0.08620
1035.04391	0.08679
1033.75814	0.08733
1032.47237	0.08775
1031.18660	0.08798
1029.90083	0.08792
1028.61506	0.08755
1027.32929	0.08690
1026.04352	0.08607
1024.75775	0.08515
1023.47199	0.08421
1022.18622	0.08329
1020.90045	0.08243
1019.61468	0.08165
1018.32891	0.08097
1017.04314	0.08042
1015.75737	0.07996
1014.47160	0.07950
1013.18584	0.07894
1011.90007	0.07829
1010.61430	0.07759
1009.32853	0.07687
1008.04276	0.07617
1006.75699	0.07546
1005.47122	0.07469
1004.18545	0.07386
1002.89968	0.07303
1001.61392	0.07226
1000.32815	0.07157
999.04238	0.07089
997.75661	0.07019
996.47084	0.06951
995.18507	0.06889
993.89930	0.06831
992.61353	0.06772
991.32777	0.06709
990.04200	0.06643
988.75623	0.06580
987.47046	0.06526
986.18469	0.06484
984.89892	0.06449
983.61315	0.06416
982.32738	0.06390
981.04161	0.06378
979.75585	0.06388
978.47008	0.06415
977.18431	0.06445
975.89854	0.06465
974.61277	0.06469
973.32700	0.06456
972.04123	0.06434
970.75546	0.06404
969.46970	0.06365
968.18393	0.06319
966.89816	0.06268
965.61239	0.06219
964.32662	0.06177
963.04085	0.06144
961.75508	0.06118
960.46931	0.06093
959.18354	0.06061
957.89778	0.06020
956.61201	0.05974
955.32624	0.05933
954.04047	0.05901
952.75470	0.05875
951.46893	0.05852
950.18316	0.05829
948.89739	0.05811
947.61163	0.05798
946.32586	0.05790
945.04009	0.05783
943.75432	0.05777
942.46855	0.05774
941.18278	0.05771
939.89701	0.05765
938.61124	0.05761
937.32547	0.05761
936.03971	0.05760
934.75394	0.05754
933.46817	0.05740
932.18240	0.05724
930.89663	0.05707
929.61086	0.05692
928.32509	0.05681
927.03932	0.05675
925.75356	0.05671
924.46779	0.05664
923.18202	0.05650
921.89625	0.05630
920.61048	0.05607
919.32471	0.05582
918.03894	0.05556
916.75317	0.05530
915.46740	0.05504
914.18164	0.05474
912.89587	0.05438
911.61010	0.05402
910.32433	0.05377
909.03856	0.05369
907.75279	0.05372
906.46702	0.05378
905.18125	0.05381
903.89549	0.05378
902.60972	0.05369
901.32395	0.05353
900.03818	0.05328
898.75241	0.05300
897.46664	0.05274
896.18087	0.05250
894.89510	0.05229
893.60933	0.05210
892.32357	0.05196
891.03780	0.05189
889.75203	0.05190
888.46626	0.05194
887.18049	0.05198
885.89472	0.05200
884.60895	0.05204
883.32318	0.05210
882.03742	0.05216
880.75165	0.05221
879.46588	0.05231
878.18011	0.05244
876.89434	0.05259
875.60857	0.05270
874.32280	0.05269
873.03703	0.05255
871.75126	0.05231
870.46550	0.05207
869.17973	0.05190
867.89396	0.05181
866.60819	0.05173
865.32242	0.05164
864.03665	0.05158
862.75088	0.05155
861.46511	0.05151
860.17935	0.05142
858.89358	0.05128
857.60781	0.05117
856.32204	0.05120
855.03627	0.05136
853.75050	0.05161
852.46473	0.05186
851.17896	0.05204
849.89319	0.05210
848.60743	0.05202
847.32166	0.05185
846.03589	0.05163
844.75012	0.05138
843.46435	0.05112
842.17858	0.05087
840.89281	0.05066
839.60704	0.05050
838.32128	0.05041
837.03551	0.05039
835.74974	0.05045
834.46397	0.05056
833.17820	0.05068
831.89243	0.05078
830.60666	0.05083
829.32089	0.05085
828.03512	0.05089
826.74936	0.05104
825.46359	0.05128
824.17782	0.05157
822.89205	0.05186
821.60628	0.05217
820.32051	0.05253
819.03474	0.05292
817.74897	0.05324
816.46321	0.05345
815.17744	0.05357
813.89167	0.05368
812.60590	0.05386
811.32013	0.05414
810.03436	0.05445
808.74859	0.05473
807.46282	0.05497
806.17705	0.05518
804.89129	0.05540
803.60552	0.05560
802.31975	0.05576
801.03398	0.05586
799.74821	0.05588
798.46244	0.05585
797.17667	0.05579
795.89090	0.05579
794.60513	0.05591
793.31937	0.05615
792.03360	0.05645
790.74783	0.05677
789.46206	0.05706
788.17629	0.05733
786.89052	0.05760
785.60475	0.05790
784.31898	0.05818
783.03322	0.05837
781.74745	0.05845
780.46168	0.05847
779.17591	0.05853
777.89014	0.05871
776.60437	0.05896
775.31860	0.05925
774.03283	0.05953
772.74706	0.05980
771.46130	0.06005
770.17553	0.06025
768.88976	0.06043
767.60399	0.06064
766.31822	0.06091
765.03245	0.06123
763.74668	0.06155
762.46091	0.06180
761.17515	0.06201
759.88938	0.06221
758.60361	0.06244
757.31784	0.06272
756.03207	0.06304
754.74630	0.06340
753.46053	0.06375
752.17476	0.06405
750.88899	0.06427
749.60323	0.06443
748.31746	0.06458
747.03169	0.06475
745.74592	0.06497
744.46015	0.06521
743.17438	0.06547
741.88861	0.06571
740.60284	0.06589
739.31708	0.06601
738.03131	0.06621
736.74554	0.06664
735.45977	0.06725
734.17400	0.06788
732.88823	0.06839
731.60246	0.06875
730.31669	0.06906
729.03092	0.06938
727.74516	0.06977
726.45939	0.07021
725.17362	0.07062
723.88785	0.07085
722.60208	0.07114
721.31631	0.07145
720.03054	0.07180
718.74477	0.07222
717.45901	0.07267
716.17324	0.07304
714.88747	0.07329
713.60170	0.07345
712.31593	0.07360
711.03016	0.07380
709.74439	0.07408
708.45862	0.07444
707.17285	0.07487
705.88709	0.07533
704.60132	0.07579
703.31555	0.07618
702.02978	0.07649
700.74401	0.07673
699.45824	0.07693
698.17247	0.07713
696.88670	0.07732
695.60094	0.07751
694.31517	0.07766
693.02940	0.07776
691.74363	0.07784
690.45786	0.07795
689.17209	0.07810
687.88632	0.07828
686.60055	0.07847
685.31478	0.07868
684.02902	0.07891
682.74325	0.07917
681.45748	0.07945
680.17171	0.07975
678.88594	0.08002
677.60017	0.08026
676.31440	0.08046
675.02863	0.08064
673.74287	0.08080
672.45710	0.08096
671.17133	0.08115
669.88556	0.08138
668.59979	0.08165
667.31402	0.08194
666.02825	0.08221
664.74248	0.08241
663.45671	0.08256
662.17095	0.08269
660.88518	0.08282
659.59941	0.08299
658.31364	0.08317
657.02787	0.08333
655.74210	0.08346
654.45633	0.08357
653.17056	0.08371
651.88480	0.08388
650.59903	0.08410
649.31326	0.08428
648.02749	0.08433
646.74172	0.08427
645.45595	0.08417
644.17018	0.08416
642.88441	0.08430
641.59864	0.08452
640.31288	0.08471
639.02711	0.08483
637.74134	0.08490
636.45557	0.08496
635.16980	0.08498
633.88403	0.08495
632.59826	0.08487
631.31249	0.08471
630.02673	0.08400
628.74096	0.08260
627.45519	0.08259
626.16942	0.08072
624.88365	0.07760
623.59788	0.07465
622.31211	0.07267
621.02634	0.07212
619.74057	0.07317
618.45481	0.07559
617.16904	0.07871
615.88327	0.08154
614.59750	0.08320
613.31173	0.08337
612.02596	0.08249
610.74019	0.08153
609.45442	0.08138
608.16866	0.08208
606.88289	0.08273
605.59712	0.08250
604.31135	0.08159
603.02558	0.08099
601.73981	0.08142
600.45404	0.08272
599.16827	0.08419
597.88250	0.08526
596.59674	0.08586
595.31097	0.08614
594.02520	0.08622
592.73943	0.08619
591.45366	0.08614
590.16789	0.08618
588.88212	0.08631
587.59635	0.08640
586.31059	0.08631
585.02482	0.08611
583.73905	0.08600
582.45328	0.08618
581.16751	0.08662
579.88174	0.08707
578.59597	0.08730
577.31020	0.08728
576.02443	0.08719
574.73867	0.08719
573.45290	0.08730
572.16713	0.08737
570.88136	0.08726
569.59559	0.08704
568.30982	0.08691
567.02405	0.08704
565.73828	0.08734
564.45251	0.08762
563.16675	0.08782
561.88098	0.08800
560.59521	0.08824
559.30944	0.08847
558.02367	0.08860
556.73790	0.08867
555.45213	0.08875
554.16636	0.08888
552.88060	0.08900
551.59483	0.08908
550.30906	0.08910
549.02329	0.08909
547.73752	0.08905
546.45175	0.08899
545.16598	0.08886
543.88021	0.08867
542.59444	0.08841
541.30868	0.08813
540.02291	0.08790
538.73714	0.08781
537.45137	0.08788
536.16560	0.08807
534.87983	0.08829
533.59406	0.08839
532.30829	0.08834
531.02253	0.08821
529.73676	0.08814
528.45099	0.08819
527.16522	0.08828
525.87945	0.08822
524.59368	0.08790
523.30791	0.08740
522.02214	0.08693
520.73637	0.08665
519.45061	0.08657
518.16484	0.08659
516.87907	0.08662
515.59330	0.08661
514.30753	0.08654
513.02176	0.08633
511.73599	0.08598
510.45022	0.08556
509.16446	0.08515
507.87869	0.08479
506.59292	0.08446
505.30715	0.08417
504.02138	0.08390
502.73561	0.08361
501.44984	0.08323
500.16407	0.08281
498.87830	0.08247
497.59254	0.08228
496.30677	0.08219
495.02100	0.08205
493.73523	0.08175
492.44946	0.08129
491.16369	0.08080
489.87792	0.08040
488.59215	0.08015
487.30639	0.07997
486.02062	0.07981
484.73485	0.07969
483.44908	0.07965
482.16331	0.07967
480.87754	0.07968
479.59177	0.07958
478.30600	0.07934
477.02023	0.07903
475.73447	0.07869
474.44870	0.07835
473.16293	0.07795
471.87716	0.07744
470.59139	0.07684
469.30562	0.07630
468.01985	0.07597
466.73408	0.07587
465.44832	0.07586
464.16255	0.07576
462.87678	0.07546
461.59101	0.07503
460.30524	0.07459
459.01947	0.07420
457.73370	0.07384
456.44793	0.07351
455.16216	0.07320
453.87640	0.07291
452.59063	0.07261
451.30486	0.07225
450.01909	0.07186
448.73332	0.07145
447.44755	0.07104
446.16178	0.07064
444.87601	0.07026
443.59025	0.06992
442.30448	0.06965
441.01871	0.06942
439.73294	0.06918
438.44717	0.06887
437.16140	0.06848
435.87563	0.06804
434.58986	0.06760
433.30409	0.06724
432.01833	0.06698
430.73256	0.06680
429.44679	0.06666
428.16102	0.06652
426.87525	0.06634
425.58948	0.06609
424.30371	0.06577
423.01794	0.06541
421.73218	0.06506
420.44641	0.06479
419.16064	0.06459
417.87487	0.06444
416.58910	0.06427
415.30333	0.06399
414.01756	0.06363
412.73179	0.06328
411.44602	0.06303
410.16026	0.06286
408.87449	0.06269
407.58872	0.06244
406.30295	0.06212
405.01718	0.06177
403.73141	0.06144
402.44564	0.06116
401.15987	0.06097
399.87411	0.06084
