3997.45528	0.06076
3996.16951	0.06072
3994.88374	0.06052
3993.59798	0.06023
3992.31221	0.06010
3991.02644	0.06019
3989.74067	0.06030
3988.45490	0.06021
3987.16913	0.05981
3985.88336	0.05921
3984.59759	0.05862
3983.31183	0.05831
3982.02606	0.05830
3980.74029	0.05832
3979.45452	0.05812
3978.16875	0.05779
3976.88298	0.05766
3975.59721	0.05795
3974.31144	0.05857
3973.02567	0.05925
3971.73991	0.05967
3970.45414	0.05960
3969.16837	0.05909
3967.88260	0.05849
3966.59683	0.05807
3965.31106	0.05788
3964.02529	0.05770
3962.73952	0.05741
3961.45376	0.05707
3960.16799	0.05693
3958.88222	0.05713
3957.59645	0.05762
3956.31068	0.05809
3955.02491	0.05827
3953.73914	0.05810
3952.45337	0.05784
3951.16760	0.05779
3949.88184	0.05796
3948.59607	0.05802
3947.31030	0.05770
3946.02453	0.05706
3944.73876	0.05646
3943.45299	0.05608
3942.16722	0.05591
3940.88145	0.05593
3939.59569	0.05619
3938.30992	0.05666
3937.02415	0.05703
3935.73838	0.05705
3934.45261	0.05677
3933.16684	0.05647
3931.88107	0.05634
3930.59530	0.05634
3929.30953	0.05635
3928.02377	0.05634
3926.73800	0.05638
3925.45223	0.05646
3924.16646	0.05649
3922.88069	0.05642
3921.59492	0.05627
3920.30915	0.05612
3919.02338	0.05588
3917.73762	0.05546
3916.45185	0.05491
3915.16608	0.05452
3913.88031	0.05454
3912.59454	0.05493
3911.30877	0.05538
3910.02300	0.05559
3908.73723	0.05542
3907.45146	0.05490
3906.16570	0.05433
3904.87993	0.05410
3903.59416	0.05443
3902.30839	0.05508
3901.02262	0.05565
3899.73685	0.05589
3898.45108	0.05573
3897.16531	0.05513
3895.87955	0.05419
3894.59378	0.05320
3893.30801	0.05257
3892.02224	0.05252
3890.73647	0.05301
3889.45070	0.05386
3888.16493	0.05484
3886.87916	0.05564
3885.59339	0.05599
3884.30763	0.05584
3883.02186	0.05537
3881.73609	0.05487
3880.45032	0.05446
3879.16455	0.05403
3877.87878	0.05355
3876.59301	0.05327
3875.30724	0.05358
3874.02148	0.05454
3872.73571	0.05576
3871.44994	0.05673
3870.16417	0.05724
3868.87840	0.05738
3867.59263	0.05721
3866.30686	0.05676
3865.02109	0.05619
3863.73532	0.05583
3862.44956	0.05585
3861.16379	0.05602
3859.87802	0.05593
3858.59225	0.05540
3857.30648	0.05467
3856.02071	0.05407
3854.73494	0.05376
3853.44917	0.05367
3852.16341	0.05371
3850.87764	0.05384
3849.59187	0.05400
3848.30610	0.05405
3847.02033	0.05388
3845.73456	0.05347
3844.44879	0.05294
3843.16302	0.05246
3841.87725	0.05223
3840.59149	0.05227
3839.30572	0.05236
3838.01995	0.05217
3836.73418	0.05166
3835.44841	0.05121
3834.16264	0.05130
3832.87687	0.05196
3831.59110	0.05270
3830.30534	0.05292
3829.01957	0.05244
3827.73380	0.05159
3826.44803	0.05088
3825.16226	0.05071
3823.87649	0.05119
3822.59072	0.05214
3821.30495	0.05321
3820.01918	0.05391
3818.73342	0.05393
3817.44765	0.05330
3816.16188	0.05241
3814.87611	0.05174
3813.59034	0.05151
3812.30457	0.05164
3811.01880	0.05186
3809.73303	0.05192
3808.44726	0.05165
3807.16150	0.05114
3805.87573	0.05072
3804.58996	0.05077
3803.30419	0.05135
3802.01842	0.05215
3800.73265	0.05278
3799.44688	0.05304
3798.16111	0.05295
3796.87535	0.05260
3795.58958	0.05213
3794.30381	0.05172
3793.01804	0.05159
3791.73227	0.05180
3790.44650	0.05207
3789.16073	0.05198
3787.87496	0.05139
3786.58919	0.05051
3785.30343	0.04977
3784.01766	0.04951
3782.73189	0.04978
3781.44612	0.05034
3780.16035	0.05077
3778.87458	0.05076
3777.58881	0.05038
3776.30304	0.04995
3775.01728	0.04968
3773.73151	0.04958
3772.44574	0.04957
3771.15997	0.04970
3769.87420	0.05000
3768.58843	0.05038
3767.30266	0.05055
3766.01689	0.05033
3764.73112	0.04980
3763.44536	0.04917
3762.15959	0.04860
3760.87382	0.04819
3759.58805	0.04807
3758.30228	0.04828
3757.01651	0.04870
3755.73074	0.04905
3754.44497	0.04910
3753.15921	0.04881
3751.87344	0.04830
3750.58767	0.04787
3749.30190	0.04791
3748.01613	0.04856
3746.73036	0.04952
3745.44459	0.05024
3744.15882	0.05041
3742.87305	0.05025
3741.58729	0.05013
3740.30152	0.05014
3739.01575	0.05011
3737.72998	0.04980
3736.44421	0.04916
3735.15844	0.04834
3733.87267	0.04760
3732.58690	0.04722
3731.30114	0.04731
3730.01537	0.04780
3728.72960	0.04841
3727.44383	0.04881
3726.15806	0.04876
3724.87229	0.04827
3723.58652	0.04761
3722.30075	0.04711
3721.01498	0.04690
3719.72922	0.04692
3718.44345	0.04701
3717.15768	0.04696
3715.87191	0.04662
3714.58614	0.04599
3713.30037	0.04525
3712.01460	0.04479
3710.72883	0.04490
3709.44307	0.04552
3708.15730	0.04630
3706.87153	0.04680
3705.58576	0.04686
3704.29999	0.04670
3703.01422	0.04650
3701.72845	0.04627
3700.44268	0.04586
3699.15691	0.04541
3697.87115	0.04528
3696.58538	0.04569
3695.29961	0.04649
3694.01384	0.04714
3692.72807	0.04725
3691.44230	0.04694
3690.15653	0.04667
3688.87076	0.04673
3687.58500	0.04697
3686.29923	0.04709
3685.01346	0.04696
3683.72769	0.04675
3682.44192	0.04680
3681.15615	0.04727
3679.87038	0.04798
3678.58461	0.04848
3677.29884	0.04847
3676.01308	0.04803
3674.72731	0.04756
3673.44154	0.04748
3672.15577	0.04798
3670.87000	0.04886
3669.58423	0.04965
3668.29846	0.04996
3667.01269	0.04970
3665.72693	0.04916
3664.44116	0.04871
3663.15539	0.04863
3661.86962	0.04898
3660.58385	0.04960
3659.29808	0.05016
3658.01231	0.05034
3656.72654	0.05012
3655.44077	0.04986
3654.15501	0.05002
3652.86924	0.05078
3651.58347	0.05187
3650.29770	0.05284
3649.01193	0.05338
3647.72616	0.05349
3646.44039	0.05335
3645.15462	0.05318
3643.86886	0.05317
3642.58309	0.05341
3641.29732	0.05384
3640.01155	0.05432
3638.72578	0.05479
3637.44001	0.05534
3636.15424	0.05603
3634.86847	0.05669
3633.58270	0.05697
3632.29694	0.05665
3631.01117	0.05598
3629.72540	0.05561
3628.43963	0.05606
3627.15386	0.05717
3625.86809	0.05829
3624.58232	0.05889
3623.29655	0.05897
3622.01079	0.05894
3620.72502	0.05914
3619.43925	0.05968
3618.15348	0.06044
3616.86771	0.06126
3615.58194	0.06199
3614.29617	0.06261
3613.01040	0.06313
3611.72463	0.06360
3610.43887	0.06404
3609.15310	0.06450
3607.86733	0.06522
3606.58156	0.06643
3605.29579	0.06805
3604.01002	0.06965
3602.72425	0.07074
3601.43848	0.07111
3600.15272	0.07096
3598.86695	0.07081
3597.58118	0.07104
3596.29541	0.07164
3595.00964	0.07225
3593.72387	0.07259
3592.43810	0.07277
3591.15233	0.07314
3589.86656	0.07388
3588.58080	0.07469
3587.29503	0.07515
3586.00926	0.07516
3584.72349	0.07508
3583.43772	0.07535
3582.15195	0.07613
3580.86618	0.07721
3579.58041	0.07831
3578.29464	0.07931
3577.00888	0.08026
3575.72311	0.08124
3574.43734	0.08224
3573.15157	0.08325
3571.86580	0.08424
3570.58003	0.08514
3569.29426	0.08585
3568.00849	0.08635
3566.72273	0.08682
3565.43696	0.08742
3564.15119	0.08814
3562.86542	0.08882
3561.57965	0.08932
3560.29388	0.08965
3559.00811	0.08988
3557.72234	0.09017
3556.43657	0.09066
3555.15081	0.09127
3553.86504	0.09188
3552.57927	0.09251
3551.29350	0.09335
3550.00773	0.09448
3548.72196	0.09563
3547.43619	0.09644
3546.15042	0.09687
3544.86466	0.09720
3543.57889	0.09776
3542.29312	0.09857
3541.00735	0.09944
3539.72158	0.10017
3538.43581	0.10071
3537.15004	0.10112
3535.86427	0.10165
3534.57850	0.10254
3533.29274	0.10385
3532.00697	0.10522
3530.72120	0.10625
3529.43543	0.10689
3528.14966	0.10749
3526.86389	0.10832
3525.57812	0.10932
3524.29235	0.11026
3523.00659	0.11100
3521.72082	0.11152
3520.43505	0.11186
3519.14928	0.11215
3517.86351	0.11255
3516.57774	0.11312
3515.29197	0.11377
3514.00620	0.11433
3512.72043	0.11475
3511.43467	0.11504
3510.14890	0.11527
3508.86313	0.11557
3507.57736	0.11609
3506.29159	0.11690
3505.00582	0.11790
3503.72005	0.11894
3502.43428	0.11986
3501.14852	0.12055
3499.86275	0.12103
3498.57698	0.12140
3497.29121	0.12170
3496.00544	0.12192
3494.71967	0.12214
3493.43390	0.12258
3492.14813	0.12331
3490.86236	0.12416
3489.57660	0.12478
3488.29083	0.12497
3487.00506	0.12486
3485.71929	0.12479
3484.43352	0.12516
3483.14775	0.12621
3481.86198	0.12773
3480.57621	0.12919
3479.29045	0.13013
3478.00468	0.13057
3476.71891	0.13091
3475.43314	0.13139
3474.14737	0.13187
3472.86160	0.13206
3471.57583	0.13196
3470.29006	0.13187
3469.00429	0.13208
3467.71853	0.13264
3466.43276	0.13339
3465.14699	0.13414
3463.86122	0.13477
3462.57545	0.13525
3461.28968	0.13558
3460.00391	0.13585
3458.71814	0.13621
3457.43238	0.13677
3456.14661	0.13750
3454.86084	0.13826
3453.57507	0.13889
3452.28930	0.13939
3451.00353	0.13985
3449.71776	0.14037
3448.43199	0.14103
3447.14622	0.14179
3445.86046	0.14252
3444.57469	0.14302
3443.28892	0.14322
3442.00315	0.14323
3440.71738	0.14333
3439.43161	0.14368
3438.14584	0.14421
3436.86007	0.14482
3435.57431	0.14542
3434.28854	0.14599
3433.00277	0.14656
3431.71700	0.14715
3430.43123	0.14781
3429.14546	0.14850
3427.85969	0.14908
3426.57392	0.14946
3425.28815	0.14964
3424.00239	0.14979
3422.71662	0.15011
3421.43085	0.15070
3420.14508	0.15143
3418.85931	0.15205
3417.57354	0.15237
3416.28777	0.15252
3415.00200	0.15276
3413.71624	0.15329
3412.43047	0.15406
3411.14470	0.15491
3409.85893	0.15573
3408.57316	0.15648
3407.28739	0.15712
3406.00162	0.15762
3404.71585	0.15804
3403.43008	0.15848
3402.14432	0.15894
3400.85855	0.15933
3399.57278	0.15960
3398.28701	0.15976
3397.00124	0.15994
3395.71547	0.16022
3394.42970	0.16059
3393.14393	0.16096
3391.85817	0.16131
3390.57240	0.16168
3389.28663	0.16211
3388.00086	0.16257
3386.71509	0.16299
3385.42932	0.16339
3384.14355	0.16381
3382.85778	0.16427
3381.57201	0.16480
3380.28625	0.16542
3379.00048	0.16611
3377.71471	0.16683
3376.42894	0.16758
3375.14317	0.16838
3373.85740	0.16925
3372.57163	0.17014
3371.28586	0.17093
3370.00010	0.17163
3368.71433	0.17246
3367.42856	0.17359
3366.14279	0.17496
3364.85702	0.17626
3363.57125	0.17718
3362.28548	0.17771
3360.99971	0.17815
3359.71394	0.17885
3358.42818	0.17988
3357.14241	0.18096
3355.85664	0.18176
3354.57087	0.18226
3353.28510	0.18270
3351.99933	0.18332
3350.71356	0.18415
3349.42779	0.18516
3348.14202	0.18627
3346.85626	0.18743
3345.57049	0.18852
3344.28472	0.18954
3342.99895	0.19055
3341.71318	0.19163
3340.42741	0.19273
3339.14164	0.19369
3337.85587	0.19435
3336.57011	0.19483
3335.28434	0.19546
3333.99857	0.19640
3332.71280	0.19750
3331.42703	0.19839
3330.14126	0.19890
3328.85549	0.19926
3327.56972	0.19975
3326.28395	0.20044
3324.99819	0.20118
3323.71242	0.20179
3322.42665	0.20229
3321.14088	0.20282
3319.85511	0.20351
3318.56934	0.20434
3317.28357	0.20511
3315.99780	0.20565
3314.71204	0.20600
3313.42627	0.20635
3312.14050	0.20690
3310.85473	0.20768
3309.56896	0.20851
3308.28319	0.20922
3306.99742	0.20972
3305.71165	0.21005
3304.42588	0.21030
3303.14012	0.21053
3301.85435	0.21076
3300.56858	0.21103
3299.28281	0.21139
3297.99704	0.21181
3296.71127	0.21215
3295.42550	0.21224
3294.13973	0.21207
3292.85397	0.21177
3291.56820	0.21149
3290.28243	0.21127
3288.99666	0.21103
3287.71089	0.21079
3286.42512	0.21063
3285.13935	0.21062
3283.85358	0.21071
3282.56781	0.21069
3281.28205	0.21039
3279.99628	0.20981
3278.71051	0.20917
3277.42474	0.20877
3276.13897	0.20873
3274.85320	0.20884
3273.56743	0.20879
3272.28166	0.20844
3270.99590	0.20784
3269.71013	0.20715
3268.42436	0.20651
3267.13859	0.20600
3265.85282	0.20550
3264.56705	0.20483
3263.28128	0.20398
3261.99551	0.20320
3260.70974	0.20270
3259.42398	0.20237
3258.13821	0.20190
3256.85244	0.20119
3255.56667	0.20039
3254.28090	0.19972
3252.99513	0.19915
3251.70936	0.19863
3250.42359	0.19823
3249.13783	0.19808
3247.85206	0.19809
3246.56629	0.19795
3245.28052	0.19738
3243.99475	0.19644
3242.70898	0.19543
3241.42321	0.19460
3240.13744	0.19407
3238.85167	0.19383
3237.56591	0.19377
3236.28014	0.19372
3234.99437	0.19351
3233.70860	0.19309
3232.42283	0.19254
3231.13706	0.19188
3229.85129	0.19103
3228.56552	0.18999
3227.27976	0.18884
3225.99399	0.18780
3224.70822	0.18707
3223.42245	0.18673
3222.13668	0.18668
3220.85091	0.18673
3219.56514	0.18669
3218.27937	0.18651
3216.99360	0.18614
3215.70784	0.18562
3214.42207	0.18507
3213.13630	0.18465
3211.85053	0.18435
3210.56476	0.18400
3209.27899	0.18347
3207.99322	0.18282
3206.70745	0.18218
3205.42169	0.18163
3204.13592	0.18119
3202.85015	0.18087
3201.56438	0.18055
3200.27861	0.17998
3198.99284	0.17901
3197.70707	0.17783
3196.42130	0.17691
3195.13553	0.17661
3193.84977	0.17676
3192.56400	0.17681
3191.27823	0.17629
3189.99246	0.17523
3188.70669	0.17405
3187.42092	0.17312
3186.13515	0.17248
3184.84938	0.17193
3183.56362	0.17134
3182.27785	0.17073
3180.99208	0.17009
3179.70631	0.16935
3178.42054	0.16845
3177.13477	0.16746
3175.84900	0.16650
3174.56323	0.16568
3173.27746	0.16506
3171.99170	0.16467
3170.70593	0.16442
3169.42016	0.16404
3168.13439	0.16321
3166.84862	0.16195
3165.56285	0.16061
3164.27708	0.15964
3162.99131	0.15916
3161.70555	0.15889
3160.41978	0.15844
3159.13401	0.15770
3157.84824	0.15680
3156.56247	0.15597
3155.27670	0.15527
3153.99093	0.15462
3152.70516	0.15386
3151.41939	0.15293
3150.13363	0.15192
3148.84786	0.15096
3147.56209	0.15012
3146.27632	0.14934
3144.99055	0.14859
3143.70478	0.14785
3142.41901	0.14711
3141.13324	0.14630
3139.84748	0.14539
3138.56171	0.14444
3137.27594	0.14359
3135.99017	0.14300
3134.70440	0.14273
3133.41863	0.14270
3132.13286	0.14268
3130.84709	0.14247
3129.56132	0.14204
3128.27556	0.14151
3126.98979	0.14096
3125.70402	0.14036
3124.41825	0.13978
3123.13248	0.13939
3121.84671	0.13927
3120.56094	0.13926
3119.27517	0.13913
3117.98940	0.13885
3116.70364	0.13857
3115.41787	0.13840
3114.13210	0.13833
3112.84633	0.13833
3111.56056	0.13841
3110.27479	0.13856
3108.98902	0.13868
3107.70325	0.13860
3106.41749	0.13832
3105.13172	0.13809
3103.84595	0.13819
3102.56018	0.13866
3101.27441	0.13926
3099.98864	0.13974
3098.70287	0.14002
3097.41710	0.14020
3096.13133	0.14036
3094.84557	0.14053
3093.55980	0.14073
3092.27403	0.14093
3090.98826	0.14104
3089.70249	0.14094
3088.41672	0.14065
3087.13095	0.14045
3085.84518	0.14059
3084.55942	0.14113
3083.27365	0.14180
3081.98788	0.14227
3080.70211	0.14238
3079.41634	0.14223
3078.13057	0.14200
3076.84480	0.14185
3075.55903	0.14182
3074.27326	0.14180
3072.98750	0.14165
3071.70173	0.14125
3070.41596	0.14068
3069.13019	0.14021
3067.84442	0.14009
3066.55865	0.14036
3065.27288	0.14075
3063.98711	0.14089
3062.70135	0.14056
3061.41558	0.13978
3060.12981	0.13873
3058.84404	0.13763
3057.55827	0.13665
3056.27250	0.13588
3054.98673	0.13537
3053.70096	0.13511
3052.41519	0.13501
3051.12943	0.13489
3049.84366	0.13454
3048.55789	0.13389
3047.27212	0.13302
3045.98635	0.13210
3044.70058	0.13125
3043.41481	0.13049
3042.12904	0.12981
3040.84328	0.12922
3039.55751	0.12866
3038.27174	0.12808
3036.98597	0.12742
3035.70020	0.12670
3034.41443	0.12598
3033.12866	0.12530
3031.84289	0.12467
3030.55712	0.12404
3029.27136	0.12342
3027.98559	0.12283
3026.69982	0.12228
3025.41405	0.12176
3024.12828	0.12120
3022.84251	0.12053
3021.55674	0.11975
3020.27097	0.11891
3018.98521	0.11812
3017.69944	0.11749
3016.41367	0.11707
3015.12790	0.11687
3013.84213	0.11684
3012.55636	0.11687
3011.27059	0.11681
3009.98482	0.11663
3008.69905	0.11632
3007.41329	0.11593
3006.12752	0.11545
3004.84175	0.11492
3003.55598	0.11442
3002.27021	0.11408
3000.98444	0.11401
2999.69867	0.11425
2998.41290	0.11475
2997.12714	0.11535
2995.84137	0.11589
2994.55560	0.11625
2993.26983	0.11644
2991.98406	0.11655
2990.69829	0.11672
2989.41252	0.11706
2988.12675	0.11761
2986.84098	0.11824
2985.55522	0.11881
2984.26945	0.11929
2982.98368	0.11974
2981.69791	0.12025
2980.41214	0.12079
2979.12637	0.12131
2977.84060	0.12181
2976.55483	0.12234
2975.26907	0.12292
2973.98330	0.12353
2972.69753	0.12416
2971.41176	0.12484
2970.12599	0.12563
2968.84022	0.12646
2967.55445	0.12723
2966.26868	0.12789
2964.98291	0.12848
2963.69715	0.12901
2962.41138	0.12941
2961.12561	0.12965
2959.83984	0.12971
2958.55407	0.12959
2957.26830	0.12925
2955.98253	0.12872
2954.69676	0.12820
2953.41100	0.12783
2952.12523	0.12763
2950.83946	0.12752
2949.55369	0.12750
2948.26792	0.12760
2946.98215	0.12775
2945.69638	0.12774
2944.41061	0.12749
2943.12484	0.12717
2941.83908	0.12703
2940.55331	0.12716
2939.26754	0.12750
2937.98177	0.12787
2936.69600	0.12805
2935.41023	0.12789
2934.12446	0.12748
2932.83869	0.12711
2931.55293	0.12696
2930.26716	0.12693
2928.98139	0.12678
2927.69562	0.12645
2926.40985	0.12606
2925.12408	0.12573
2923.83831	0.12535
2922.55254	0.12475
2921.26677	0.12393
2919.98101	0.12308
2918.69524	0.12237
2917.40947	0.12177
2916.12370	0.12120
2914.83793	0.12056
2913.55216	0.11985
2912.26639	0.11911
2910.98062	0.11842
2909.69486	0.11776
2908.40909	0.11708
2907.12332	0.11636
2905.83755	0.11567
2904.55178	0.11504
2903.26601	0.11442
2901.98024	0.11373
2900.69447	0.11302
2899.40870	0.11239
2898.12294	0.11194
2896.83717	0.11168
2895.55140	0.11151
2894.26563	0.11129
2892.97986	0.11095
2891.69409	0.11058
2890.40832	0.11033
2889.12255	0.11029
2887.83678	0.11039
2886.55102	0.11052
2885.26525	0.11059
2883.97948	0.11058
2882.69371	0.11052
2881.40794	0.11046
2880.12217	0.11044
2878.83640	0.11048
2877.55063	0.11057
2876.26487	0.11066
2874.97910	0.11059
2873.69333	0.11025
2872.40756	0.10960
2871.12179	0.10881
2869.83602	0.10799
2868.55025	0.10720
2867.26448	0.10637
2865.97871	0.10549
2864.69295	0.10457
2863.40718	0.10367
2862.12141	0.10286
2860.83564	0.10225
2859.54987	0.10183
2858.26410	0.10147
2856.97833	0.10106
2855.69256	0.10055
2854.40680	0.10005
2853.12103	0.09960
2851.83526	0.09921
2850.54949	0.09886
2849.26372	0.09855
2847.97795	0.09820
2846.69218	0.09771
2845.40641	0.09705
2844.12064	0.09634
2842.83488	0.09576
2841.54911	0.09538
2840.26334	0.09517
2838.97757	0.09503
2837.69180	0.09485
2836.40603	0.09456
2835.12026	0.09416
2833.83449	0.09371
2832.54873	0.09328
2831.26296	0.09288
2829.97719	0.09252
2828.69142	0.09220
2827.40565	0.09193
2826.11988	0.09169
2824.83411	0.09148
2823.54834	0.09129
2822.26257	0.09107
2820.97681	0.09076
2819.69104	0.09038
2818.40527	0.09001
2817.11950	0.08967
2815.83373	0.08931
2814.54796	0.08882
2813.26219	0.08825
2811.97642	0.08773
2810.69066	0.08735
2809.40489	0.08714
2808.11912	0.08706
2806.83335	0.08705
2805.54758	0.08700
2804.26181	0.08687
2802.97604	0.08671
2801.69027	0.08662
2800.40450	0.08659
2799.11874	0.08652
2797.83297	0.08632
2796.54720	0.08596
2795.26143	0.08550
2793.97566	0.08506
2792.68989	0.08472
2791.40412	0.08450
2790.11835	0.08436
2788.83259	0.08422
2787.54682	0.08400
2786.26105	0.08369
2784.97528	0.08332
2783.68951	0.08300
2782.40374	0.08282
2781.11797	0.08276
2779.83220	0.08270
2778.54643	0.08255
2777.26067	0.08235
2775.97490	0.08219
2774.68913	0.08210
2773.40336	0.08202
2772.11759	0.08184
2770.83182	0.08152
2769.54605	0.08110
2768.26028	0.08069
2766.97452	0.08037
2765.68875	0.08011
2764.40298	0.07984
2763.11721	0.07956
2761.83144	0.07938
2760.54567	0.07934
2759.25990	0.07932
2757.97413	0.07917
2756.68836	0.07887
2755.40260	0.07852
2754.11683	0.07820
2752.83106	0.07795
2751.54529	0.07775
2750.25952	0.07759
2748.97375	0.07746
2747.68798	0.07733
2746.40221	0.07721
2745.11645	0.07713
2743.83068	0.07711
2742.54491	0.07712
2741.25914	0.07706
2739.97337	0.07680
2738.68760	0.07632
2737.40183	0.07580
2736.11606	0.07545
2734.83029	0.07541
2733.54453	0.07557
2732.25876	0.07574
2730.97299	0.07571
2729.68722	0.07546
2728.40145	0.07507
2727.11568	0.07469
2725.82991	0.07437
2724.54414	0.07409
2723.25838	0.07379
2721.97261	0.07346
2720.68684	0.07316
2719.40107	0.07291
2718.11530	0.07268
2716.82953	0.07246
2715.54376	0.07225
2714.25799	0.07211
2712.97222	0.07205
2711.68646	0.07205
2710.40069	0.07201
2709.11492	0.07189
2707.82915	0.07169
2706.54338	0.07148
2705.25761	0.07129
2703.97184	0.07113
2702.68607	0.07099
2701.40031	0.07088
2700.11454	0.07079
2698.82877	0.07069
2697.54300	0.07057
2696.25723	0.07043
2694.97146	0.07027
2693.68569	0.07010
2692.39992	0.06992
2691.11415	0.06974
2689.82839	0.06956
2688.54262	0.06935
2687.25685	0.06914
2685.97108	0.06899
2684.68531	0.06894
2683.39954	0.06892
2682.11377	0.06884
2680.82800	0.06873
2679.54224	0.06866
2678.25647	0.06867
2676.97070	0.06869
2675.68493	0.06868
2674.39916	0.06867
2673.11339	0.06867
2671.82762	0.06865
2670.54185	0.06857
2669.25608	0.06843
2667.97032	0.06831
2666.68455	0.06824
2665.39878	0.06826
2664.11301	0.06836
2662.82724	0.06852
2661.54147	0.06866
2660.25570	0.06866
2658.96993	0.06847
2657.68417	0.06815
2656.39840	0.06780
2655.11263	0.06746
2653.82686	0.06712
2652.54109	0.06680
2651.25532	0.06655
2649.96955	0.06633
2648.68378	0.06602
2647.39801	0.06555
2646.11225	0.06502
2644.82648	0.06460
2643.54071	0.06437
2642.25494	0.06427
2640.96917	0.06415
2639.68340	0.06394
2638.39763	0.06361
2637.11186	0.06321
2635.82609	0.06286
2634.54033	0.06260
2633.25456	0.06244
2631.96879	0.06231
2630.68302	0.06218
2629.39725	0.06206
2628.11148	0.06200
2626.82571	0.06199
2625.53994	0.06191
2624.25418	0.06164
2622.96841	0.06119
2621.68264	0.06069
2620.39687	0.06029
2619.11110	0.06002
2617.82533	0.05984
2616.53956	0.05969
2615.25379	0.05953
2613.96802	0.05938
2612.68226	0.05923
2611.39649	0.05909
2610.11072	0.05897
2608.82495	0.05887
2607.53918	0.05876
2606.25341	0.05863
2604.96764	0.05843
2603.68187	0.05815
2602.39611	0.05787
2601.11034	0.05771
2599.82457	0.05767
2598.53880	0.05765
2597.25303	0.05753
2595.96726	0.05732
2594.68149	0.05703
2593.39572	0.05670
2592.10995	0.05640
2590.82419	0.05632
2589.53842	0.05641
2588.25265	0.05641
2586.96688	0.05613
2585.68111	0.05573
2584.39534	0.05546
2583.10957	0.05535
2581.82380	0.05523
2580.53804	0.05499
2579.25227	0.05473
2577.96650	0.05463
2576.68073	0.05480
2575.39496	0.05513
2574.10919	0.05537
2572.82342	0.05527
2571.53765	0.05481
2570.25188	0.05422
2568.96612	0.05369
2567.68035	0.05330
2566.39458	0.05313
2565.10881	0.05322
2563.82304	0.05344
2562.53727	0.05360
2561.25150	0.05354
2559.96573	0.05318
2558.67997	0.05254
2557.39420	0.05179
2556.10843	0.05127
2554.82266	0.05123
2553.53689	0.05161
2552.25112	0.05199
2550.96535	0.05198
2549.67958	0.05155
2548.39381	0.05099
2547.10805	0.05064
2545.82228	0.05062
2544.53651	0.05079
2543.25074	0.05089
2541.96497	0.05074
2540.67920	0.05042
2539.39343	0.05010
2538.10766	0.04988
2536.82190	0.04969
2535.53613	0.04943
2534.25036	0.04909
2532.96459	0.04875
2531.67882	0.04847
2530.39305	0.04831
2529.10728	0.04835
2527.82151	0.04858
2526.53574	0.04892
2525.24998	0.04923
2523.96421	0.04937
2522.67844	0.04926
2521.39267	0.04899
2520.10690	0.04878
2518.82113	0.04881
2517.53536	0.04906
2516.24959	0.04937
2514.96383	0.04959
2513.67806	0.04966
2512.39229	0.04959
2511.10652	0.04942
2509.82075	0.04920
2508.53498	0.04887
2507.24921	0.04842
2505.96344	0.04796
2504.67767	0.04757
2503.39191	0.04724
2502.10614	0.04690
2500.82037	0.04659
2499.53460	0.04642
2498.24883	0.04644
2496.96306	0.04648
2495.67729	0.04638
2494.39152	0.04617
2493.10576	0.04602
2491.81999	0.04602
2490.53422	0.04608
2489.24845	0.04609
2487.96268	0.04597
2486.67691	0.04569
2485.39114	0.04531
2484.10537	0.04494
2482.81960	0.04467
2481.53384	0.04458
2480.24807	0.04470
2478.96230	0.04505
2477.67653	0.04559
2476.39076	0.04611
2475.10499	0.04643
2473.81922	0.04651
2472.53345	0.04652
2471.24769	0.04655
2469.96192	0.04650
2468.67615	0.04623
2467.39038	0.04581
2466.10461	0.04546
2464.81884	0.04540
2463.53307	0.04561
2462.24730	0.04586
2460.96153	0.04588
2459.67577	0.04557
2458.39000	0.04513
2457.10423	0.04485
2455.81846	0.04488
2454.53269	0.04519
2453.24692	0.04559
2451.96115	0.04589
2450.67538	0.04594
2449.38962	0.04577
2448.10385	0.04556
2446.81808	0.04543
2445.53231	0.04532
2444.24654	0.04512
2442.96077	0.04488
2441.67500	0.04472
2440.38923	0.04472
2439.10346	0.04482
2437.81770	0.04494
2436.53193	0.04502
2435.24616	0.04504
2433.96039	0.04501
2432.67462	0.04492
2431.38885	0.04476
2430.10308	0.04454
2428.81731	0.04431
2427.53155	0.04416
2426.24578	0.04413
2424.96001	0.04417
2423.67424	0.04421
2422.38847	0.04422
2421.10270	0.04419
2419.81693	0.04414
2418.53116	0.04411
2417.24539	0.04415
2415.95963	0.04423
2414.67386	0.04432
2413.38809	0.04437
2412.10232	0.04440
2410.81655	0.04437
2409.53078	0.04424
2408.24501	0.04396
2406.95924	0.04364
2405.67347	0.04342
2404.38771	0.04339
2403.10194	0.04349
2401.81617	0.04361
2400.53040	0.04368
2399.24463	0.04364
2397.95886	0.04358
2396.67309	0.04346
2395.38732	0.04329
2394.10156	0.04313
2392.81579	0.04305
2391.53002	0.04307
2390.24425	0.04318
2388.95848	0.04328
2387.67271	0.04330
2386.38694	0.04324
2385.10117	0.04322
2383.81540	0.04333
2382.52964	0.04357
2381.24387	0.04378
2379.95810	0.04389
2378.67233	0.04372
2377.38656	0.04347
2376.10079	0.04350
2374.81502	0.04373
2373.52925	0.04357
2372.24349	0.04319
2370.95772	0.04306
2369.67195	0.04307
2368.38618	0.04308
2367.10041	0.04304
2365.81464	0.04313
2364.52887	0.04342
2363.24310	0.04379
2361.95733	0.04412
2360.67157	0.04433
2359.38580	0.04447
2358.10003	0.04446
2356.81426	0.04439
2355.52849	0.04459
2354.24272	0.04517
2352.95695	0.04575
2351.67118	0.04556
2350.38542	0.04506
2349.09965	0.04493
2347.81388	0.04493
2346.52811	0.04474
2345.24234	0.04461
2343.95657	0.04477
2342.67080	0.04545
2341.38503	0.04512
2340.09926	0.04417
2338.81350	0.04402
2337.52773	0.04443
2336.24196	0.04402
2334.95619	0.04367
2333.67042	0.04405
2332.38465	0.04486
2331.09888	0.04412
2329.81311	0.04391
2328.52735	0.04428
2327.24158	0.04434
2325.95581	0.04470
2324.67004	0.04513
2323.38427	0.04554
2322.09850	0.04508
2320.81273	0.04449
2319.52696	0.04409
2318.24119	0.04389
2316.95543	0.04360
2315.66966	0.04317
2314.38389	0.04282
2313.09812	0.04243
2311.81235	0.04199
2310.52658	0.04169
2309.24081	0.04148
2307.95504	0.04130
2306.66928	0.04125
2305.38351	0.04128
2304.09774	0.04138
2302.81197	0.04144
2301.52620	0.04128
2300.24043	0.04085
2298.95466	0.04023
2297.66889	0.03959
2296.38312	0.03912
2295.09736	0.03891
2293.81159	0.03894
2292.52582	0.03911
2291.24005	0.03927
2289.95428	0.03930
2288.66851	0.03915
2287.38274	0.03890
2286.09697	0.03858
2284.81121	0.03818
2283.52544	0.03763
2282.23967	0.03703
2280.95390	0.03658
2279.66813	0.03644
2278.38236	0.03660
2277.09659	0.03688
2275.81082	0.03697
2274.52505	0.03672
2273.23929	0.03615
2271.95352	0.03551
2270.66775	0.03497
2269.38198	0.03451
2268.09621	0.03399
2266.81044	0.03341
2265.52467	0.03296
2264.23890	0.03292
2262.95314	0.03333
2261.66737	0.03396
2260.38160	0.03447
2259.09583	0.03457
2257.81006	0.03417
2256.52429	0.03352
2255.23852	0.03294
2253.95275	0.03259
2252.66698	0.03243
2251.38122	0.03235
2250.09545	0.03241
2248.80968	0.03268
2247.52391	0.03289
2246.23814	0.03318
2244.95237	0.03334
2243.66660	0.03316
2242.38083	0.03258
2241.09507	0.03182
2239.80930	0.03128
2238.52353	0.03119
2237.23776	0.03143
2235.95199	0.03163
2234.66622	0.03160
2233.38045	0.03144
2232.09468	0.03126
2230.80891	0.03103
2229.52315	0.03072
2228.23738	0.03049
2226.95161	0.03041
2225.66584	0.03036
2224.38007	0.03019
2223.09430	0.03000
2221.80853	0.02998
2220.52276	0.03009
2219.23700	0.03004
2217.95123	0.02965
2216.66546	0.02903
2215.37969	0.02847
2214.09392	0.02816
2212.80815	0.02798
2211.52238	0.02772
2210.23661	0.02729
2208.95084	0.02688
2207.66508	0.02681
2206.37931	0.02717
2205.09354	0.02772
2203.80777	0.02797
2202.52200	0.02755
2201.23623	0.02645
2199.95046	0.02520
2198.66469	0.02453
2197.37893	0.02468
2196.09316	0.02522
2194.80739	0.02561
2193.52162	0.02580
2192.23585	0.02602
2190.95008	0.02611
2189.66431	0.02560
2188.37854	0.02444
2187.09277	0.02319
2185.80701	0.02249
2184.52124	0.02248
2183.23547	0.02292
2181.94970	0.02353
2180.66393	0.02404
2179.37816	0.02410
2178.09239	0.02359
2176.80662	0.02279
2175.52085	0.02214
2174.23509	0.02169
2172.94932	0.02119
2171.66355	0.02059
2170.37778	0.02012
2169.09201	0.01994
2167.80624	0.01985
2166.52047	0.01943
2165.23470	0.01851
2163.94894	0.01735
2162.66317	0.01645
2161.37740	0.01614
2160.09163	0.01639
2158.80586	0.01699
2157.52009	0.01773
2156.23432	0.01841
2154.94855	0.01908
2153.66278	0.01993
2152.37702	0.02091
2151.09125	0.02168
2149.80548	0.02205
2148.51971	0.02224
2147.23394	0.02250
2145.94817	0.02269
2144.66240	0.02254
2143.37663	0.02206
2142.09087	0.02152
2140.80510	0.02111
2139.51933	0.02085
2138.23356	0.02074
2136.94779	0.02089
2135.66202	0.02146
2134.37625	0.02248
2133.09048	0.02370
2131.80471	0.02482
2130.51895	0.02569
2129.23318	0.02639
2127.94741	0.02696
2126.66164	0.02743
2125.37587	0.02775
2124.09010	0.02787
2122.80433	0.02773
2121.51856	0.02753
2120.23280	0.02760
2118.94703	0.02804
2117.66126	0.02866
2116.37549	0.02915
2115.08972	0.02938
2113.80395	0.02931
2112.51818	0.02897
2111.23241	0.02843
2109.94664	0.02794
2108.66088	0.02774
2107.37511	0.02794
2106.08934	0.02840
2104.80357	0.02877
2103.51780	0.02881
2102.23203	0.02872
2100.94626	0.02879
2099.66049	0.02849
2098.37473	0.02816
2097.08896	0.02752
2095.80319	0.02659
2094.51742	0.02589
2093.23165	0.02579
2091.94588	0.02618
2090.66011	0.02656
2089.37434	0.02664
2088.08857	0.02653
2086.80281	0.02648
2085.51704	0.02642
2084.23127	0.02601
2082.94550	0.02526
2081.65973	0.02461
2080.37396	0.02443
2079.08819	0.02455
2077.80242	0.02455
2076.51666	0.02429
2075.23089	0.02401
2073.94512	0.02393
2072.65935	0.02395
2071.37358	0.02377
2070.08781	0.02321
2068.80204	0.02253
2067.51627	0.02223
2066.23050	0.02259
2064.94474	0.02330
2063.65897	0.02370
2062.37320	0.02340
2061.08743	0.02261
2059.80166	0.02191
2058.51589	0.02173
2057.23012	0.02209
2055.94435	0.02266
2054.65859	0.02296
2053.37282	0.02270
2052.08705	0.02196
2050.80128	0.02103
2049.51551	0.02015
2048.22974	0.01932
2046.94397	0.01841
2045.65820	0.01755
2044.37243	0.01714
2043.08667	0.01743
2041.80090	0.01815
2040.51513	0.01857
2039.22936	0.01811
2037.94359	0.01687
2036.65782	0.01557
2035.37205	0.01493
2034.08628	0.01500
2032.80052	0.01519
2031.51475	0.01498
2030.22898	0.01455
2028.94321	0.01457
2027.65744	0.01541
2026.37167	0.01680
2025.08590	0.01814
2023.80013	0.01899
2022.51436	0.01910
2021.22860	0.01828
2019.94283	0.01669
2018.65706	0.01493
2017.37129	0.01381
2016.08552	0.01382
2014.79975	0.01489
2013.51398	0.01653
2012.22821	0.01796
2010.94245	0.01846
2009.65668	0.01783
2008.37091	0.01658
2007.08514	0.01549
2005.79937	0.01501
2004.51360	0.01519
2003.22783	0.01579
2001.94206	0.01645
2000.65629	0.01692
1999.37053	0.01718
1998.08476	0.01737
1996.79899	0.01755
1995.51322	0.01771
1994.22745	0.01792
1992.94168	0.01839
1991.65591	0.01918
1990.37014	0.02001
1989.08438	0.02046
1987.79861	0.02026
1986.51284	0.01953
1985.22707	0.01864
1983.94130	0.01801
1982.65553	0.01778
1981.36976	0.01775
1980.08399	0.01744
1978.79822	0.01649
1977.51246	0.01506
1976.22669	0.01383
1974.94092	0.01346
1973.65515	0.01398
1972.36938	0.01487
1971.08361	0.01568
1969.79784	0.01629
1968.51207	0.01680
1967.22631	0.01725
1965.94054	0.01755
1964.65477	0.01764
1963.36900	0.01752
1962.08323	0.01723
1960.79746	0.01674
1959.51169	0.01620
1958.22592	0.01592
1956.94015	0.01623
1955.65439	0.01717
1954.36862	0.01840
1953.08285	0.01945
1951.79708	0.02003
1950.51131	0.02015
1949.22554	0.02003
1947.93977	0.01991
1946.65400	0.01993
1945.36823	0.02013
1944.08247	0.02051
1942.79670	0.02101
1941.51093	0.02148
1940.22516	0.02172
1938.93939	0.02170
1937.65362	0.02154
1936.36785	0.02142
1935.08208	0.02141
1933.79632	0.02146
1932.51055	0.02150
1931.22478	0.02158
1929.93901	0.02183
1928.65324	0.02226
1927.36747	0.02275
1926.08170	0.02310
1924.79593	0.02319
1923.51016	0.02310
1922.22440	0.02300
1920.93863	0.02295
1919.65286	0.02288
1918.36709	0.02267
1917.08132	0.02233
1915.79555	0.02196
1914.50978	0.02168
1913.22401	0.02154
1911.93825	0.02155
1910.65248	0.02169
1909.36671	0.02192
1908.08094	0.02214
1906.79517	0.02228
1905.50940	0.02236
1904.22363	0.02249
1902.93786	0.02265
1901.65209	0.02271
1900.36633	0.02258
1899.08056	0.02237
1897.79479	0.02231
1896.50902	0.02247
1895.22325	0.02271
1893.93748	0.02288
1892.65171	0.02290
1891.36594	0.02281
1890.08018	0.02266
1888.79441	0.02249
1887.50864	0.02236
1886.22287	0.02233
1884.93710	0.02238
1883.65133	0.02247
1882.36556	0.02254
1881.07979	0.02260
1879.79402	0.02264
1878.50826	0.02265
1877.22249	0.02264
1875.93672	0.02262
1874.65095	0.02265
1873.36518	0.02273
1872.07941	0.02281
1870.79364	0.02285
1869.50787	0.02284
1868.22211	0.02280
1866.93634	0.02276
1865.65057	0.02267
1864.36480	0.02250
1863.07903	0.02229
1861.79326	0.02214
1860.50749	0.02208
1859.22172	0.02206
1857.93595	0.02199
1856.65019	0.02188
1855.36442	0.02186
1854.07865	0.02197
1852.79288	0.02216
1851.50711	0.02232
1850.22134	0.02241
1848.93557	0.02242
1847.64980	0.02238
1846.36404	0.02230
1845.07827	0.02222
1843.79250	0.02213
1842.50673	0.02203
1841.22096	0.02194
1839.93519	0.02188
1838.64942	0.02187
1837.36365	0.02187
1836.07788	0.02184
1834.79212	0.02179
1833.50635	0.02177
1832.22058	0.02181
1830.93481	0.02186
1829.64904	0.02191
1828.36327	0.02198
1827.07750	0.02209
1825.79173	0.02220
1824.50597	0.02221
1823.22020	0.02204
1821.93443	0.02172
1820.64866	0.02135
1819.36289	0.02108
1818.07712	0.02097
1816.79135	0.02106
1815.50558	0.02131
1814.21981	0.02161
1812.93405	0.02182
1811.64828	0.02185
1810.36251	0.02174
1809.07674	0.02160
1807.79097	0.02154
1806.50520	0.02158
1805.21943	0.02164
1803.93366	0.02167
1802.64790	0.02167
1801.36213	0.02169
1800.07636	0.02175
1798.79059	0.02182
1797.50482	0.02185
1796.21905	0.02185
1794.93328	0.02183
1793.64751	0.02181
1792.36174	0.02181
1791.07598	0.02180
1789.79021	0.02170
1788.50444	0.02151
1787.21867	0.02131
1785.93290	0.02120
1784.64713	0.02121
1783.36136	0.02129
1782.07559	0.02136
1780.78983	0.02137
1779.50406	0.02131
1778.21829	0.02122
1776.93252	0.02114
1775.64675	0.02111
1774.36098	0.02115
1773.07521	0.02124
1771.78944	0.02135
1770.50367	0.02148
1769.21791	0.02160
1767.93214	0.02163
1766.64637	0.02155
1765.36060	0.02141
1764.07483	0.02128
1762.78906	0.02125
1761.50329	0.02131
1760.21752	0.02143
1758.93176	0.02156
1757.64599	0.02170
1756.36022	0.02185
1755.07445	0.02201
1753.78868	0.02217
1752.50291	0.02233
1751.21714	0.02246
1749.93137	0.02257
1748.64560	0.02269
1747.35984	0.02284
1746.07407	0.02304
1744.78830	0.02327
1743.50253	0.02351
1742.21676	0.02376
1740.93099	0.02403
1739.64522	0.02434
1738.35945	0.02472
1737.07369	0.02517
1735.78792	0.02560
1734.50215	0.02598
1733.21638	0.02630
1731.93061	0.02662
1730.64484	0.02695
1729.35907	0.02729
1728.07330	0.02761
1726.78753	0.02793
1725.50177	0.02831
1724.21600	0.02871
1722.93023	0.02910
1721.64446	0.02948
1720.35869	0.02989
1719.07292	0.03041
1717.78715	0.03102
1716.50138	0.03168
1715.21561	0.03237
1713.92985	0.03318
1712.64408	0.03422
1711.35831	0.03553
1710.07254	0.03707
1708.78677	0.03880
1707.50100	0.04069
1706.21523	0.04274
1704.92946	0.04495
1703.64370	0.04731
1702.35793	0.04986
1701.07216	0.05257
1699.78639	0.05540
1698.50062	0.05835
1697.21485	0.06142
1695.92908	0.06459
1694.64331	0.06774
1693.35754	0.07078
1692.07178	0.07368
1690.78601	0.07655
1689.50024	0.07950
1688.21447	0.08261
1686.92870	0.08594
1685.64293	0.08950
1684.35716	0.09316
1683.07139	0.09675
1681.78563	0.10023
1680.49986	0.10373
1679.21409	0.10741
1677.92832	0.11135
1676.64255	0.11555
1675.35678	0.11991
1674.07101	0.12434
1672.78524	0.12879
1671.49947	0.13334
1670.21371	0.13802
1668.92794	0.14282
1667.64217	0.14758
1666.35640	0.15218
1665.07063	0.15661
1663.78486	0.16093
1662.49909	0.16516
1661.21332	0.16925
1659.92756	0.17314
1658.64179	0.17676
1657.35602	0.18014
1656.07025	0.18338
1654.78448	0.18661
1653.49871	0.18983
1652.21294	0.19286
1650.92717	0.19552
1649.64140	0.19783
1648.35564	0.19994
1647.06987	0.20201
1645.78410	0.20406
1644.49833	0.20605
1643.21256	0.20794
1641.92679	0.20973
1640.64102	0.21147
1639.35525	0.21317
1638.06949	0.21485
1636.78372	0.21647
1635.49795	0.21792
1634.21218	0.21909
1632.92641	0.21989
1631.64064	0.22033
1630.35487	0.22040
1629.06910	0.22009
1627.78333	0.21934
1626.49757	0.21811
1625.21180	0.21639
1623.92603	0.21417
1622.64026	0.21143
1621.35449	0.20821
1620.06872	0.20460
1618.78295	0.20071
1617.49718	0.19664
1616.21142	0.19244
1614.92565	0.18812
1613.63988	0.18372
1612.35411	0.17924
1611.06834	0.17472
1609.78257	0.17021
1608.49680	0.16578
1607.21103	0.16148
1605.92526	0.15736
1604.63950	0.15340
1603.35373	0.14959
1602.06796	0.14594
1600.78219	0.14249
1599.49642	0.13929
1598.21065	0.13638
1596.92488	0.13372
1595.63911	0.13130
1594.35335	0.12905
1593.06758	0.12699
1591.78181	0.12514
1590.49604	0.12356
1589.21027	0.12230
1587.92450	0.12133
1586.63873	0.12064
1585.35296	0.12017
1584.06719	0.11992
1582.78143	0.11987
1581.49566	0.12004
1580.20989	0.12046
1578.92412	0.12118
1577.63835	0.12223
1576.35258	0.12358
1575.06681	0.12518
1573.78104	0.12695
1572.49528	0.12886
1571.20951	0.13094
1569.92374	0.13322
1568.63797	0.13573
1567.35220	0.13841
1566.06643	0.14120
1564.78066	0.14406
1563.49489	0.14696
1562.20912	0.14992
1560.92336	0.15297
1559.63759	0.15605
1558.35182	0.15902
1557.06605	0.16174
1555.78028	0.16417
1554.49451	0.16639
1553.20874	0.16847
1551.92297	0.17039
1550.63721	0.17215
1549.35144	0.17372
1548.06567	0.17509
1546.77990	0.17626
1545.49413	0.17725
1544.20836	0.17809
1542.92259	0.17881
1541.63682	0.17941
1540.35105	0.17989
1539.06529	0.18022
1537.77952	0.18035
1536.49375	0.18029
1535.20798	0.18011
1533.92221	0.17985
1532.63644	0.17953
1531.35067	0.17910
1530.06490	0.17855
1528.77914	0.17790
1527.49337	0.17716
1526.20760	0.17632
1524.92183	0.17540
1523.63606	0.17443
1522.35029	0.17344
1521.06452	0.17238
1519.77875	0.17125
1518.49298	0.17001
1517.20722	0.16864
1515.92145	0.16706
1514.63568	0.16521
1513.34991	0.16311
1512.06414	0.16084
1510.77837	0.15845
1509.49260	0.15593
1508.20683	0.15325
1506.92107	0.15037
1505.63530	0.14731
1504.34953	0.14416
1503.06376	0.14099
1501.77799	0.13789
1500.49222	0.13487
1499.20645	0.13187
1497.92068	0.12882
1496.63491	0.12572
1495.34915	0.12261
1494.06338	0.11954
1492.77761	0.11658
1491.49184	0.11376
1490.20607	0.11109
1488.92030	0.10865
1487.63453	0.10648
1486.34876	0.10459
1485.06299	0.10298
1483.77723	0.10166
1482.49146	0.10065
1481.20569	0.09999
1479.91992	0.09968
1478.63415	0.09966
1477.34838	0.09990
1476.06261	0.10038
1474.77684	0.10114
1473.49108	0.10218
1472.20531	0.10346
1470.91954	0.10486
1469.63377	0.10629
1468.34800	0.10771
1467.06223	0.10914
1465.77646	0.11065
1464.49069	0.11229
1463.20492	0.11411
1461.91916	0.11605
1460.63339	0.11805
1459.34762	0.12006
1458.06185	0.12207
1456.77608	0.12400
1455.49031	0.12577
1454.20454	0.12724
1452.91877	0.12834
1451.63301	0.12909
1450.34724	0.12954
1449.06147	0.12975
1447.77570	0.12975
1446.48993	0.12952
1445.20416	0.12906
1443.91839	0.12840
1442.63262	0.12758
1441.34685	0.12664
1440.06109	0.12560
1438.77532	0.12441
1437.48955	0.12306
1436.20378	0.12152
1434.91801	0.11985
1433.63224	0.11815
1432.34647	0.11653
1431.06070	0.11505
1429.77494	0.11374
1428.48917	0.11261
1427.20340	0.11166
1425.91763	0.11090
1424.63186	0.11035
1423.34609	0.10997
1422.06032	0.10977
1420.77455	0.10970
1419.48878	0.10973
1418.20302	0.10977
1416.91725	0.10978
1415.63148	0.10980
1414.34571	0.10990
1413.05994	0.11014
1411.77417	0.11051
1410.48840	0.11098
1409.20263	0.11151
1407.91687	0.11204
1406.63110	0.11255
1405.34533	0.11301
1404.05956	0.11340
1402.77379	0.11372
1401.48802	0.11391
1400.20225	0.11395
1398.91648	0.11387
1397.63071	0.11370
1396.34495	0.11352
1395.05918	0.11332
1393.77341	0.11309
1392.48764	0.11282
1391.20187	0.11250
1389.91610	0.11216
1388.63033	0.11179
1387.34456	0.11136
1386.05880	0.11088
1384.77303	0.11035
1383.48726	0.10984
1382.20149	0.10936
1380.91572	0.10891
1379.62995	0.10847
1378.34418	0.10796
1377.05841	0.10734
1375.77264	0.10659
1374.48688	0.10573
1373.20111	0.10481
1371.91534	0.10383
1370.62957	0.10278
1369.34380	0.10161
1368.05803	0.10035
1366.77226	0.09904
1365.48649	0.09778
1364.20073	0.09663
1362.91496	0.09562
1361.62919	0.09473
1360.34342	0.09397
1359.05765	0.09337
1357.77188	0.09296
1356.48611	0.09274
1355.20034	0.09270
1353.91457	0.09284
1352.62881	0.09317
1351.34304	0.09367
1350.05727	0.09432
1348.77150	0.09511
1347.48573	0.09603
1346.19996	0.09704
1344.91419	0.09808
1343.62842	0.09909
1342.34266	0.10003
1341.05689	0.10086
1339.77112	0.10155
1338.48535	0.10208
1337.19958	0.10242
1335.91381	0.10251
1334.62804	0.10233
1333.34227	0.10189
1332.05650	0.10125
1330.77074	0.10051
1329.48497	0.09971
1328.19920	0.09889
1326.91343	0.09806
1325.62766	0.09726
1324.34189	0.09653
1323.05612	0.09588
1321.77035	0.09534
1320.48459	0.09491
1319.19882	0.09455
1317.91305	0.09424
1316.62728	0.09395
1315.34151	0.09365
1314.05574	0.09332
1312.76997	0.09293
1311.48420	0.09245
1310.19843	0.09189
1308.91267	0.09128
1307.62690	0.09067
1306.34113	0.09013
1305.05536	0.08968
1303.76959	0.08930
1302.48382	0.08895
1301.19805	0.08861
1299.91228	0.08828
1298.62652	0.08801
1297.34075	0.08785
1296.05498	0.08780
1294.76921	0.08786
1293.48344	0.08800
1292.19767	0.08819
1290.91190	0.08843
1289.62613	0.08878
1288.34036	0.08928
1287.05460	0.08993
1285.76883	0.09067
1284.48306	0.09142
1283.19729	0.09210
1281.91152	0.09263
1280.62575	0.09299
1279.33998	0.09318
1278.05421	0.09328
1276.76845	0.09336
1275.48268	0.09347
1274.19691	0.09362
1272.91114	0.09382
1271.62537	0.09411
1270.33960	0.09455
1269.05383	0.09520
1267.76806	0.09607
1266.48229	0.09715
1265.19653	0.09834
1263.91076	0.09955
1262.62499	0.10068
1261.33922	0.10168
1260.05345	0.10249
1258.76768	0.10310
1257.48191	0.10351
1256.19614	0.10383
1254.91037	0.10415
1253.62461	0.10454
1252.33884	0.10502
1251.05307	0.10561
1249.76730	0.10635
1248.48153	0.10724
1247.19576	0.10825
1245.90999	0.10936
1244.62422	0.11048
1243.33846	0.11157
1242.05269	0.11258
1240.76692	0.11349
1239.48115	0.11426
1238.19538	0.11486
1236.90961	0.11528
1235.62384	0.11553
1234.33807	0.11563
1233.05230	0.11556
1231.76654	0.11529
1230.48077	0.11476
1229.19500	0.11398
1227.90923	0.11295
1226.62346	0.11167
1225.33769	0.11020
1224.05192	0.10863
1222.76615	0.10706
1221.48039	0.10552
1220.19462	0.10402
1218.90885	0.10257
1217.62308	0.10121
1216.33731	0.10001
1215.05154	0.09906
1213.76577	0.09837
1212.48000	0.09797
1211.19423	0.09782
1209.90847	0.09787
1208.62270	0.09809
1207.33693	0.09843
1206.05116	0.09882
1204.76539	0.09916
1203.47962	0.09933
1202.19385	0.09925
1200.90808	0.09891
1199.62232	0.09836
1198.33655	0.09751
1197.05078	0.09649
1195.76501	0.09536
1194.47924	0.09417
1193.19347	0.09297
1191.90770	0.09179
1190.62193	0.09064
1189.33616	0.08950
1188.05040	0.08837
1186.76463	0.08731
1185.47886	0.08638
1184.19309	0.08560
1182.90732	0.08492
1181.62155	0.08429
1180.33578	0.08371
1179.05001	0.08321
1177.76425	0.08279
1176.47848	0.08243
1175.19271	0.08213
1173.90694	0.08189
1172.62117	0.08171
1171.33540	0.08162
1170.04963	0.08158
1168.76386	0.08158
1167.47809	0.08158
1166.19233	0.08160
1164.90656	0.08165
1163.62079	0.08172
1162.33502	0.08178
1161.04925	0.08175
1159.76348	0.08160
1158.47771	0.08126
1157.19194	0.08070
1155.90618	0.07994
1154.62041	0.07905
1153.33464	0.07813
1152.04887	0.07723
1150.76310	0.07637
1149.47733	0.07554
1148.19156	0.07472
1146.90579	0.07392
1145.62002	0.07315
1144.33426	0.07246
1143.04849	0.07186
1141.76272	0.07132
1140.47695	0.07078
1139.19118	0.07022
1137.90541	0.06963
1136.61964	0.06911
1135.33387	0.06878
1134.04811	0.06865
1132.76234	0.06864
1131.47657	0.06862
1130.19080	0.06851
1128.90503	0.06835
1127.61926	0.06821
1126.33349	0.06812
1125.04772	0.06806
1123.76195	0.06805
1122.47619	0.06807
1121.19042	0.06812
1119.90465	0.06816
1118.61888	0.06822
1117.33311	0.06837
1116.04734	0.06864
1114.76157	0.06900
1113.47580	0.06938
1112.19004	0.06975
1110.90427	0.07010
1109.61850	0.07047
1108.33273	0.07086
1107.04696	0.07125
1105.76119	0.07161
1104.47542	0.07197
1103.18965	0.07236
1101.90388	0.07284
1100.61812	0.07338
1099.33235	0.07395
1098.04658	0.07452
1096.76081	0.07508
1095.47504	0.07563
1094.18927	0.07622
1092.90350	0.07689
1091.61773	0.07767
1090.33197	0.07858
1089.04620	0.07960
1087.76043	0.08072
1086.47466	0.08190
1085.18889	0.08307
1083.90312	0.08408
1082.61735	0.08480
1081.33158	0.08521
1080.04581	0.08533
1078.76005	0.08522
1077.47428	0.08496
1076.18851	0.08457
1074.90274	0.08408
1073.61697	0.08355
1072.33120	0.08303
1071.04543	0.08258
1069.75966	0.08226
1068.47390	0.08207
1067.18813	0.08199
1065.90236	0.08194
1064.61659	0.08186
1063.33082	0.08173
1062.04505	0.08152
1060.75928	0.08120
1059.47351	0.08081
1058.18774	0.08039
1056.90198	0.07998
1055.61621	0.07962
1054.33044	0.07929
1053.04467	0.07898
1051.75890	0.07867
1050.47313	0.07832
1049.18736	0.07795
1047.90159	0.07763
1046.61583	0.07741
1045.33006	0.07728
1044.04429	0.07722
1042.75852	0.07719
1041.47275	0.07723
1040.18698	0.07740
1038.90121	0.07773
1037.61544	0.07822
1036.32967	0.07877
1035.04391	0.07929
1033.75814	0.07970
1032.47237	0.07999
1031.18660	0.08017
1029.90083	0.08020
1028.61506	0.08001
1027.32929	0.07955
1026.04352	0.07886
1024.75775	0.07804
1023.47199	0.07721
1022.18622	0.07642
1020.90045	0.07568
1019.61468	0.07497
1018.32891	0.07432
1017.04314	0.07377
1015.75737	0.07327
1014.47160	0.07274
1013.18584	0.07212
1011.90007	0.07140
1010.61430	0.07059
1009.32853	0.06971
1008.04276	0.06880
1006.75699	0.06791
1005.47122	0.06702
1004.18545	0.06609
1002.89968	0.06511
1001.61392	0.06416
1000.32815	0.06332
999.04238	0.06259
997.75661	0.06192
996.47084	0.06128
995.18507	0.06067
993.89930	0.06006
992.61353	0.05945
991.32777	0.05885
990.04200	0.05826
988.75623	0.05774
987.47046	0.05731
986.18469	0.05698
984.89892	0.05670
983.61315	0.05641
982.32738	0.05611
981.04161	0.05590
979.75585	0.05588
978.47008	0.05606
977.18431	0.05631
975.89854	0.05648
974.61277	0.05653
973.32700	0.05646
972.04123	0.05630
970.75546	0.05602
969.46970	0.05561
968.18393	0.05509
966.89816	0.05455
965.61239	0.05407
964.32662	0.05368
963.04085	0.05342
961.75508	0.05323
960.46931	0.05303
959.18354	0.05273
957.89778	0.05230
956.61201	0.05185
955.32624	0.05147
954.04047	0.05117
952.75470	0.05090
951.46893	0.05065
950.18316	0.05047
948.89739	0.05041
947.61163	0.05041
946.32586	0.05039
945.04009	0.05034
943.75432	0.05033
942.46855	0.05037
941.18278	0.05042
939.89701	0.05041
938.61124	0.05033
937.32547	0.05019
936.03971	0.05003
934.75394	0.04989
933.46817	0.04978
932.18240	0.04970
930.89663	0.04957
929.61086	0.04939
928.32509	0.04924
927.03932	0.04918
925.75356	0.04923
924.46779	0.04930
923.18202	0.04930
921.89625	0.04919
920.61048	0.04899
919.32471	0.04875
918.03894	0.04849
916.75317	0.04820
915.46740	0.04786
914.18164	0.04750
912.89587	0.04720
911.61010	0.04697
910.32433	0.04682
909.03856	0.04674
907.75279	0.04671
906.46702	0.04667
905.18125	0.04656
903.89549	0.04637
902.60972	0.04617
901.32395	0.04600
900.03818	0.04590
898.75241	0.04583
897.46664	0.04571
896.18087	0.04550
894.89510	0.04524
893.60933	0.04507
892.32357	0.04508
891.03780	0.04522
889.75203	0.04535
888.46626	0.04538
887.18049	0.04533
885.89472	0.04530
884.60895	0.04537
883.32318	0.04551
882.03742	0.04562
880.75165	0.04563
879.46588	0.04555
878.18011	0.04552
876.89434	0.04559
875.60857	0.04572
874.32280	0.04580
873.03703	0.04576
871.75126	0.04567
870.46550	0.04562
869.17973	0.04563
867.89396	0.04566
866.60819	0.04563
865.32242	0.04553
864.03665	0.04541
862.75088	0.04531
861.46511	0.04525
860.17935	0.04520
858.89358	0.04514
857.60781	0.04503
856.32204	0.04493
855.03627	0.04490
853.75050	0.04498
852.46473	0.04512
851.17896	0.04522
849.89319	0.04523
848.60743	0.04515
847.32166	0.04502
846.03589	0.04489
844.75012	0.04481
843.46435	0.04479
842.17858	0.04478
840.89281	0.04475
839.60704	0.04466
838.32128	0.04456
837.03551	0.04451
835.74974	0.04453
834.46397	0.04461
833.17820	0.04476
831.89243	0.04494
830.60666	0.04517
829.32089	0.04544
828.03512	0.04578
826.74936	0.04617
825.46359	0.04655
824.17782	0.04691
822.89205	0.04724
821.60628	0.04761
820.32051	0.04803
819.03474	0.04850
817.74897	0.04899
816.46321	0.04943
815.17744	0.04976
813.89167	0.04999
812.60590	0.05018
811.32013	0.05041
810.03436	0.05072
808.74859	0.05114
807.46282	0.05163
806.17705	0.05210
804.89129	0.05249
803.60552	0.05273
802.31975	0.05289
801.03398	0.05301
799.74821	0.05311
798.46244	0.05318
797.17667	0.05325
795.89090	0.05333
794.60513	0.05341
793.31937	0.05348
792.03360	0.05358
790.74783	0.05370
789.46206	0.05374
788.17629	0.05364
786.89052	0.05340
785.60475	0.05309
784.31898	0.05282
783.03322	0.05259
781.74745	0.05245
780.46168	0.05241
779.17591	0.05251
777.89014	0.05272
776.60437	0.05297
775.31860	0.05318
774.03283	0.05331
772.74706	0.05337
771.46130	0.05340
770.17553	0.05347
768.88976	0.05366
767.60399	0.05396
766.31822	0.05430
765.03245	0.05458
763.74668	0.05476
762.46091	0.05490
761.17515	0.05503
759.88938	0.05516
758.60361	0.05528
757.31784	0.05544
756.03207	0.05565
754.74630	0.05590
753.46053	0.05610
752.17476	0.05624
750.88899	0.05637
749.60323	0.05654
748.31746	0.05681
747.03169	0.05718
745.74592	0.05756
744.46015	0.05786
743.17438	0.05804
741.88861	0.05813
740.60284	0.05819
739.31708	0.05832
738.03131	0.05855
736.74554	0.05885
735.45977	0.05912
734.17400	0.05931
732.88823	0.05946
731.60246	0.05969
730.31669	0.06009
729.03092	0.06060
727.74516	0.06108
726.45939	0.06144
725.17362	0.06169
723.88785	0.06183
722.60208	0.06205
721.31631	0.06231
720.03054	0.06263
718.74477	0.06305
717.45901	0.06357
716.17324	0.06407
714.88747	0.06442
713.60170	0.06461
712.31593	0.06472
711.03016	0.06488
709.74439	0.06513
708.45862	0.06548
707.17285	0.06588
705.88709	0.06630
704.60132	0.06670
703.31555	0.06707
702.02978	0.06738
700.74401	0.06764
699.45824	0.06785
698.17247	0.06797
696.88670	0.06803
695.60094	0.06805
694.31517	0.06812
693.02940	0.06823
691.74363	0.06838
690.45786	0.06851
689.17209	0.06864
687.88632	0.06878
686.60055	0.06897
685.31478	0.06919
684.02902	0.06941
682.74325	0.06957
681.45748	0.06969
680.17171	0.06982
678.88594	0.06999
677.60017	0.07022
676.31440	0.07045
675.02863	0.07068
673.74287	0.07090
672.45710	0.07110
671.17133	0.07128
669.88556	0.07144
668.59979	0.07161
667.31402	0.07180
666.02825	0.07197
664.74248	0.07211
663.45671	0.07224
662.17095	0.07237
660.88518	0.07253
659.59941	0.07271
658.31364	0.07285
657.02787	0.07291
655.74210	0.07293
654.45633	0.07296
653.17056	0.07305
651.88480	0.07322
650.59903	0.07341
649.31326	0.07354
648.02749	0.07356
646.74172	0.07347
645.45595	0.07338
644.17018	0.07338
642.88441	0.07346
641.59864	0.07355
640.31288	0.07357
639.02711	0.07355
637.74134	0.07356
636.45557	0.07363
635.16980	0.07375
633.88403	0.07388
632.59826	0.07397
631.31249	0.07392
630.02673	0.07344
628.74096	0.07262
627.45519	0.07252
626.16942	0.07095
624.88365	0.06815
623.59788	0.06511
622.31211	0.06275
621.02634	0.06186
619.74057	0.06273
618.45481	0.06497
617.16904	0.06761
615.88327	0.06937
614.59750	0.06949
613.31173	0.06825
612.02596	0.06678
610.74019	0.06621
609.45442	0.06694
608.16866	0.06845
606.88289	0.06978
605.59712	0.07036
604.31135	0.07033
603.02558	0.07030
601.73981	0.07071
600.45404	0.07155
599.16827	0.07255
597.88250	0.07344
596.59674	0.07416
595.31097	0.07469
594.02520	0.07504
592.73943	0.07518
591.45366	0.07515
590.16789	0.07508
588.88212	0.07504
587.59635	0.07505
586.31059	0.07511
585.02482	0.07519
583.73905	0.07523
582.45328	0.07521
581.16751	0.07512
579.88174	0.07502
578.59597	0.07492
577.31020	0.07487
576.02443	0.07493
574.73867	0.07512
573.45290	0.07533
572.16713	0.07542
570.88136	0.07533
569.59559	0.07521
568.30982	0.07528
567.02405	0.07560
565.73828	0.07604
564.45251	0.07639
563.16675	0.07661
561.88098	0.07674
560.59521	0.07689
559.30944	0.07708
558.02367	0.07727
556.73790	0.07739
555.45213	0.07737
554.16636	0.07724
552.88060	0.07712
551.59483	0.07710
550.30906	0.07715
549.02329	0.07718
547.73752	0.07712
546.45175	0.07696
545.16598	0.07675
543.88021	0.07654
542.59444	0.07635
541.30868	0.07618
540.02291	0.07602
538.73714	0.07590
537.45137	0.07588
536.16560	0.07600
534.87983	0.07624
533.59406	0.07652
532.30829	0.07671
531.02253	0.07678
529.73676	0.07673
528.45099	0.07662
527.16522	0.07655
525.87945	0.07652
524.59368	0.07647
523.30791	0.07631
522.02214	0.07603
520.73637	0.07571
519.45061	0.07543
518.16484	0.07515
516.87907	0.07482
515.59330	0.07448
514.30753	0.07425
513.02176	0.07417
511.73599	0.07415
510.45022	0.07409
509.16446	0.07394
507.87869	0.07371
506.59292	0.07344
505.30715	0.07319
504.02138	0.07299
502.73561	0.07280
501.44984	0.07261
500.16407	0.07239
498.87830	0.07215
497.59254	0.07189
496.30677	0.07159
495.02100	0.07124
493.73523	0.07087
492.44946	0.07055
491.16369	0.07029
489.87792	0.07009
488.59215	0.06992
487.30639	0.06977
486.02062	0.06964
484.73485	0.06954
483.44908	0.06945
482.16331	0.06934
480.87754	0.06920
479.59177	0.06906
478.30600	0.06893
477.02023	0.06879
475.73447	0.06861
474.44870	0.06838
473.16293	0.06810
471.87716	0.06774
470.59139	0.06727
469.30562	0.06679
468.01985	0.06645
466.73408	0.06634
465.44832	0.06637
464.16255	0.06636
462.87678	0.06615
461.59101	0.06578
460.30524	0.06536
459.01947	0.06499
457.73370	0.06464
456.44793	0.06430
455.16216	0.06399
453.87640	0.06376
452.59063	0.06356
451.30486	0.06332
450.01909	0.06300
448.73332	0.06265
447.44755	0.06232
446.16178	0.06201
444.87601	0.06167
443.59025	0.06129
442.30448	0.06090
441.01871	0.06054
439.73294	0.06023
438.44717	0.05995
437.16140	0.05968
435.87563	0.05945
434.58986	0.05927
433.30409	0.05910
432.01833	0.05891
430.73256	0.05867
429.44679	0.05843
428.16102	0.05820
426.87525	0.05796
425.58948	0.05770
424.30371	0.05740
423.01794	0.05710
421.73218	0.05681
420.44641	0.05658
419.16064	0.05639
417.87487	0.05623
416.58910	0.05605
415.30333	0.05587
414.01756	0.05572
412.73179	0.05563
411.44602	0.05557
410.16026	0.05543
408.87449	0.05516
407.58872	0.05482
406.30295	0.05451
405.01718	0.05427
403.73141	0.05413
402.44564	0.05406
401.15987	0.05401
399.87411	0.05393
