3997.45528	0.05718
3996.16951	0.05665
3994.88374	0.05655
3993.59798	0.05695
3992.31221	0.05748
3991.02644	0.05773
3989.74067	0.05754
3988.45490	0.05711
3987.16913	0.05670
3985.88336	0.05632
3984.59759	0.05592
3983.31183	0.05558
3982.02606	0.05544
3980.74029	0.05547
3979.45452	0.05547
3978.16875	0.05543
3976.88298	0.05555
3975.59721	0.05595
3974.31144	0.05647
3973.02567	0.05676
3971.73991	0.05668
3970.45414	0.05642
3969.16837	0.05624
3967.88260	0.05626
3966.59683	0.05633
3965.31106	0.05617
3964.02529	0.05571
3962.73952	0.05517
3961.45376	0.05481
3960.16799	0.05477
3958.88222	0.05498
3957.59645	0.05542
3956.31068	0.05604
3955.02491	0.05659
3953.73914	0.05673
3952.45337	0.05634
3951.16760	0.05566
3949.88184	0.05497
3948.59607	0.05430
3947.31030	0.05360
3946.02453	0.05299
3944.73876	0.05273
3943.45299	0.05278
3942.16722	0.05283
3940.88145	0.05278
3939.59569	0.05293
3938.30992	0.05353
3937.02415	0.05433
3935.73838	0.05477
3934.45261	0.05456
3933.16684	0.05390
3931.88107	0.05327
3930.59530	0.05303
3929.30953	0.05322
3928.02377	0.05369
3926.73800	0.05420
3925.45223	0.05454
3924.16646	0.05460
3922.88069	0.05450
3921.59492	0.05450
3920.30915	0.05469
3919.02338	0.05478
3917.73762	0.05430
3916.45185	0.05319
3915.16608	0.05198
3913.88031	0.05140
3912.59454	0.05168
3911.30877	0.05248
3910.02300	0.05318
3908.73723	0.05332
3907.45146	0.05289
3906.16570	0.05227
3904.87993	0.05198
3903.59416	0.05217
3902.30839	0.05263
3901.02262	0.05296
3899.73685	0.05294
3898.45108	0.05259
3897.16531	0.05210
3895.87955	0.05163
3894.59378	0.05121
3893.30801	0.05092
3892.02224	0.05083
3890.73647	0.05093
3889.45070	0.05113
3888.16493	0.05130
3886.87916	0.05132
3885.59339	0.05116
3884.30763	0.05113
3883.02186	0.05163
3881.73609	0.05256
3880.45032	0.05332
3879.16455	0.05339
3877.87878	0.05278
3876.59301	0.05193
3875.30724	0.05124
3874.02148	0.05088
3872.73571	0.05092
3871.44994	0.05131
3870.16417	0.05181
3868.87840	0.05223
3867.59263	0.05266
3866.30686	0.05318
3865.02109	0.05360
3863.73532	0.05385
3862.44956	0.05402
3861.16379	0.05403
3859.87802	0.05350
3858.59225	0.05237
3857.30648	0.05121
3856.02071	0.05077
3854.73494	0.05109
3853.44917	0.05148
3852.16341	0.05144
3850.87764	0.05116
3849.59187	0.05101
3848.30610	0.05104
3847.02033	0.05109
3845.73456	0.05097
3844.44879	0.05057
3843.16302	0.04999
3841.87725	0.04948
3840.59149	0.04934
3839.30572	0.04962
3838.01995	0.04998
3836.73418	0.05010
3835.44841	0.05002
3834.16264	0.05004
3832.87687	0.05024
3831.59110	0.05036
3830.30534	0.05015
3829.01957	0.04962
3827.73380	0.04914
3826.44803	0.04904
3825.16226	0.04947
3823.87649	0.05035
3822.59072	0.05130
3821.30495	0.05177
3820.01918	0.05162
3818.73342	0.05127
3817.44765	0.05112
3816.16188	0.05098
3814.87611	0.05049
3813.59034	0.04969
3812.30457	0.04890
3811.01880	0.04838
3809.73303	0.04833
3808.44726	0.04873
3807.16150	0.04909
3805.87573	0.04903
3804.58996	0.04888
3803.30419	0.04914
3802.01842	0.04968
3800.73265	0.04978
3799.44688	0.04918
3798.16111	0.04831
3796.87535	0.04764
3795.58958	0.04733
3794.30381	0.04732
3793.01804	0.04742
3791.73227	0.04737
3790.44650	0.04710
3789.16073	0.04680
3787.87496	0.04681
3786.58919	0.04722
3785.30343	0.04782
3784.01766	0.04829
3782.73189	0.04856
3781.44612	0.04881
3780.16035	0.04905
3778.87458	0.04905
3777.58881	0.04867
3776.30304	0.04806
3775.01728	0.04751
3773.73151	0.04715
3772.44574	0.04697
3771.15997	0.04695
3769.87420	0.04708
3768.58843	0.04738
3767.30266	0.04776
3766.01689	0.04798
3764.73112	0.04784
3763.44536	0.04738
3762.15959	0.04679
3760.87382	0.04619
3759.58805	0.04562
3758.30228	0.04520
3757.01651	0.04508
3755.73074	0.04522
3754.44497	0.04546
3753.15921	0.04550
3751.87344	0.04531
3750.58767	0.04523
3749.30190	0.04554
3748.01613	0.04625
3746.73036	0.04718
3745.44459	0.04789
3744.15882	0.04783
3742.87305	0.04717
3741.58729	0.04671
3740.30152	0.04680
3739.01575	0.04703
3737.72998	0.04685
3736.44421	0.04600
3735.15844	0.04466
3733.87267	0.04338
3732.58690	0.04271
3731.30114	0.04286
3730.01537	0.04369
3728.72960	0.04479
3727.44383	0.04556
3726.15806	0.04556
3724.87229	0.04493
3723.58652	0.04414
3722.30075	0.04364
3721.01498	0.04361
3719.72922	0.04413
3718.44345	0.04508
3717.15768	0.04604
3715.87191	0.04645
3714.58614	0.04594
3713.30037	0.04459
3712.01460	0.04302
3710.72883	0.04202
3709.44307	0.04198
3708.15730	0.04265
3706.87153	0.04347
3705.58576	0.04416
3704.29999	0.04480
3703.01422	0.04540
3701.72845	0.04580
3700.44268	0.04573
3699.15691	0.04513
3697.87115	0.04438
3696.58538	0.04398
3695.29961	0.04407
3694.01384	0.04435
3692.72807	0.04449
3691.44230	0.04434
3690.15653	0.04412
3688.87076	0.04408
3687.58500	0.04415
3686.29923	0.04413
3685.01346	0.04403
3683.72769	0.04400
3682.44192	0.04415
3681.15615	0.04441
3679.87038	0.04463
3678.58461	0.04476
3677.29884	0.04491
3676.01308	0.04498
3674.72731	0.04477
3673.44154	0.04456
3672.15577	0.04491
3670.87000	0.04584
3669.58423	0.04677
3668.29846	0.04718
3667.01269	0.04703
3665.72693	0.04655
3664.44116	0.04605
3663.15539	0.04583
3661.86962	0.04594
3660.58385	0.04623
3659.29808	0.04655
3658.01231	0.04680
3656.72654	0.04686
3655.44077	0.04672
3654.15501	0.04665
3652.86924	0.04701
3651.58347	0.04775
3650.29770	0.04839
3649.01193	0.04863
3647.72616	0.04866
3646.44039	0.04887
3645.15462	0.04933
3643.86886	0.04978
3642.58309	0.05002
3641.29732	0.05014
3640.01155	0.05042
3638.72578	0.05097
3637.44001	0.05174
3636.15424	0.05254
3634.86847	0.05314
3633.58270	0.05323
3632.29694	0.05283
3631.01117	0.05235
3629.72540	0.05232
3628.43963	0.05293
3627.15386	0.05403
3625.86809	0.05525
3624.58232	0.05612
3623.29655	0.05639
3622.01079	0.05631
3620.72502	0.05627
3619.43925	0.05647
3618.15348	0.05685
3616.86771	0.05733
3615.58194	0.05792
3614.29617	0.05864
3613.01040	0.05951
3611.72463	0.06049
3610.43887	0.06143
3609.15310	0.06216
3607.86733	0.06272
3606.58156	0.06337
3605.29579	0.06426
3604.01002	0.06524
3602.72425	0.06598
3601.43848	0.06637
3600.15272	0.06647
3598.86695	0.06647
3597.58118	0.06658
3596.29541	0.06699
3595.00964	0.06766
3593.72387	0.06833
3592.43810	0.06895
3591.15233	0.06968
3589.86656	0.07048
3588.58080	0.07113
3587.29503	0.07149
3586.00926	0.07168
3584.72349	0.07195
3583.43772	0.07256
3582.15195	0.07356
3580.86618	0.07480
3579.58041	0.07600
3578.29464	0.07679
3577.00888	0.07707
3575.72311	0.07708
3574.43734	0.07724
3573.15157	0.07783
3571.86580	0.07882
3570.58003	0.07985
3569.29426	0.08057
3568.00849	0.08092
3566.72273	0.08126
3565.43696	0.08198
3564.15119	0.08306
3562.86542	0.08400
3561.57965	0.08437
3560.29388	0.08427
3559.00811	0.08427
3557.72234	0.08480
3556.43657	0.08577
3555.15081	0.08667
3553.86504	0.08718
3552.57927	0.08749
3551.29350	0.08805
3550.00773	0.08909
3548.72196	0.09036
3547.43619	0.09148
3546.15042	0.09229
3544.86466	0.09290
3543.57889	0.09341
3542.29312	0.09380
3541.00735	0.09409
3539.72158	0.09444
3538.43581	0.09502
3537.15004	0.09580
3535.86427	0.09671
3534.57850	0.09766
3533.29274	0.09862
3532.00697	0.09954
3530.72120	0.10037
3529.43543	0.10115
3528.14966	0.10194
3526.86389	0.10270
3525.57812	0.10337
3524.29235	0.10386
3523.00659	0.10419
3521.72082	0.10443
3520.43505	0.10471
3519.14928	0.10515
3517.86351	0.10584
3516.57774	0.10675
3515.29197	0.10767
3514.00620	0.10831
3512.72043	0.10854
3511.43467	0.10851
3510.14890	0.10849
3508.86313	0.10872
3507.57736	0.10937
3506.29159	0.11052
3505.00582	0.11209
3503.72005	0.11371
3502.43428	0.11489
3501.14852	0.11543
3499.86275	0.11551
3498.57698	0.11550
3497.29121	0.11559
3496.00544	0.11577
3494.71967	0.11596
3493.43390	0.11616
3492.14813	0.11641
3490.86236	0.11681
3489.57660	0.11738
3488.29083	0.11802
3487.00506	0.11858
3485.71929	0.11903
3484.43352	0.11955
3483.14775	0.12029
3481.86198	0.12113
3480.57621	0.12173
3479.29045	0.12189
3478.00468	0.12179
3476.71891	0.12186
3475.43314	0.12239
3474.14737	0.12318
3472.86160	0.12388
3471.57583	0.12434
3470.29006	0.12474
3469.00429	0.12529
3467.71853	0.12601
3466.43276	0.12675
3465.14699	0.12738
3463.86122	0.12789
3462.57545	0.12834
3461.28968	0.12874
3460.00391	0.12906
3458.71814	0.12936
3457.43238	0.12974
3456.14661	0.13023
3454.86084	0.13076
3453.57507	0.13127
3452.28930	0.13178
3451.00353	0.13227
3449.71776	0.13263
3448.43199	0.13287
3447.14622	0.13310
3445.86046	0.13346
3444.57469	0.13400
3443.28892	0.13465
3442.00315	0.13526
3440.71738	0.13567
3439.43161	0.13579
3438.14584	0.13574
3436.86007	0.13590
3435.57431	0.13658
3434.28854	0.13768
3433.00277	0.13878
3431.71700	0.13947
3430.43123	0.13975
3429.14546	0.13999
3427.85969	0.14056
3426.57392	0.14138
3425.28815	0.14208
3424.00239	0.14237
3422.71662	0.14243
3421.43085	0.14267
3420.14508	0.14322
3418.85931	0.14386
3417.57354	0.14431
3416.28777	0.14460
3415.00200	0.14494
3413.71624	0.14546
3412.43047	0.14614
3411.14470	0.14691
3409.85893	0.14770
3408.57316	0.14839
3407.28739	0.14890
3406.00162	0.14933
3404.71585	0.14988
3403.43008	0.15060
3402.14432	0.15125
3400.85855	0.15149
3399.57278	0.15126
3398.28701	0.15071
3397.00124	0.15031
3395.71547	0.15041
3394.42970	0.15104
3393.14393	0.15200
3391.85817	0.15297
3390.57240	0.15369
3389.28663	0.15404
3388.00086	0.15404
3386.71509	0.15384
3385.42932	0.15369
3384.14355	0.15387
3382.85778	0.15456
3381.57201	0.15565
3380.28625	0.15690
3379.00048	0.15808
3377.71471	0.15903
3376.42894	0.15971
3375.14317	0.16012
3373.85740	0.16041
3372.57163	0.16078
3371.28586	0.16144
3370.00010	0.16242
3368.71433	0.16360
3367.42856	0.16484
3366.14279	0.16604
3364.85702	0.16709
3363.57125	0.16791
3362.28548	0.16858
3360.99971	0.16930
3359.71394	0.17031
3358.42818	0.17163
3357.14241	0.17300
3355.85664	0.17419
3354.57087	0.17521
3353.28510	0.17613
3351.99933	0.17694
3350.71356	0.17759
3349.42779	0.17820
3348.14202	0.17891
3346.85626	0.17969
3345.57049	0.18032
3344.28472	0.18075
3342.99895	0.18120
3341.71318	0.18192
3340.42741	0.18296
3339.14164	0.18414
3337.85587	0.18529
3336.57011	0.18626
3335.28434	0.18704
3333.99857	0.18770
3332.71280	0.18834
3331.42703	0.18894
3330.14126	0.18948
3328.85549	0.19006
3327.56972	0.19086
3326.28395	0.19182
3324.99819	0.19269
3323.71242	0.19325
3322.42665	0.19357
3321.14088	0.19382
3319.85511	0.19412
3318.56934	0.19446
3317.28357	0.19480
3315.99780	0.19517
3314.71204	0.19559
3313.42627	0.19612
3312.14050	0.19680
3310.85473	0.19763
3309.56896	0.19847
3308.28319	0.19920
3306.99742	0.19982
3305.71165	0.20041
3304.42588	0.20096
3303.14012	0.20132
3301.85435	0.20138
3300.56858	0.20116
3299.28281	0.20081
3297.99704	0.20047
3296.71127	0.20027
3295.42550	0.20028
3294.13973	0.20052
3292.85397	0.20093
3291.56820	0.20140
3290.28243	0.20175
3288.99666	0.20188
3287.71089	0.20187
3286.42512	0.20182
3285.13935	0.20178
3283.85358	0.20170
3282.56781	0.20153
3281.28205	0.20120
3279.99628	0.20066
3278.71051	0.19996
3277.42474	0.19935
3276.13897	0.19904
3274.85320	0.19899
3273.56743	0.19896
3272.28166	0.19876
3270.99590	0.19831
3269.71013	0.19768
3268.42436	0.19698
3267.13859	0.19631
3265.85282	0.19574
3264.56705	0.19525
3263.28128	0.19475
3261.99551	0.19423
3260.70974	0.19370
3259.42398	0.19311
3258.13821	0.19234
3256.85244	0.19140
3255.56667	0.19047
3254.28090	0.18979
3252.99513	0.18931
3251.70936	0.18887
3250.42359	0.18847
3249.13783	0.18824
3247.85206	0.18825
3246.56629	0.18832
3245.28052	0.18819
3243.99475	0.18774
3242.70898	0.18707
3241.42321	0.18634
3240.13744	0.18569
3238.85167	0.18514
3237.56591	0.18463
3236.28014	0.18408
3234.99437	0.18350
3233.70860	0.18297
3232.42283	0.18254
3231.13706	0.18215
3229.85129	0.18166
3228.56552	0.18102
3227.27976	0.18029
3225.99399	0.17954
3224.70822	0.17883
3223.42245	0.17828
3222.13668	0.17799
3220.85091	0.17789
3219.56514	0.17779
3218.27937	0.17761
3216.99360	0.17740
3215.70784	0.17718
3214.42207	0.17686
3213.13630	0.17635
3211.85053	0.17561
3210.56476	0.17477
3209.27899	0.17409
3207.99322	0.17385
3206.70745	0.17407
3205.42169	0.17443
3204.13592	0.17449
3202.85015	0.17406
3201.56438	0.17321
3200.27861	0.17210
3198.99284	0.17092
3197.70707	0.16987
3196.42130	0.16914
3195.13553	0.16882
3193.84977	0.16873
3192.56400	0.16858
3191.27823	0.16817
3189.99246	0.16752
3188.70669	0.16676
3187.42092	0.16603
3186.13515	0.16538
3184.84938	0.16479
3183.56362	0.16417
3182.27785	0.16341
3180.99208	0.16248
3179.70631	0.16143
3178.42054	0.16040
3177.13477	0.15953
3175.84900	0.15892
3174.56323	0.15852
3173.27746	0.15820
3171.99170	0.15783
3170.70593	0.15737
3169.42016	0.15684
3168.13439	0.15619
3166.84862	0.15535
3165.56285	0.15438
3164.27708	0.15344
3162.99131	0.15271
3161.70555	0.15223
3160.41978	0.15190
3159.13401	0.15151
3157.84824	0.15086
3156.56247	0.14990
3155.27670	0.14874
3153.99093	0.14762
3152.70516	0.14668
3151.41939	0.14595
3150.13363	0.14529
3148.84786	0.14452
3147.56209	0.14360
3146.27632	0.14264
3144.99055	0.14180
3143.70478	0.14113
3142.41901	0.14052
3141.13324	0.13989
3139.84748	0.13922
3138.56171	0.13861
3137.27594	0.13815
3135.99017	0.13783
3134.70440	0.13761
3133.41863	0.13745
3132.13286	0.13728
3130.84709	0.13700
3129.56132	0.13653
3128.27556	0.13587
3126.98979	0.13514
3125.70402	0.13447
3124.41825	0.13404
3123.13248	0.13402
3121.84671	0.13434
3120.56094	0.13468
3119.27517	0.13468
3117.98940	0.13431
3116.70364	0.13382
3115.41787	0.13341
3114.13210	0.13310
3112.84633	0.13282
3111.56056	0.13259
3110.27479	0.13250
3108.98902	0.13252
3107.70325	0.13252
3106.41749	0.13244
3105.13172	0.13243
3103.84595	0.13270
3102.56018	0.13324
3101.27441	0.13384
3099.98864	0.13426
3098.70287	0.13442
3097.41710	0.13442
3096.13133	0.13440
3094.84557	0.13444
3093.55980	0.13456
3092.27403	0.13474
3090.98826	0.13487
3089.70249	0.13487
3088.41672	0.13478
3087.13095	0.13471
3085.84518	0.13479
3084.55942	0.13506
3083.27365	0.13553
3081.98788	0.13608
3080.70211	0.13658
3079.41634	0.13688
3078.13057	0.13692
3076.84480	0.13673
3075.55903	0.13640
3074.27326	0.13604
3072.98750	0.13573
3071.70173	0.13547
3070.41596	0.13523
3069.13019	0.13512
3067.84442	0.13524
3066.55865	0.13557
3065.27288	0.13590
3063.98711	0.13595
3062.70135	0.13560
3061.41558	0.13490
3060.12981	0.13397
3058.84404	0.13292
3057.55827	0.13183
3056.27250	0.13087
3054.98673	0.13022
3053.70096	0.13003
3052.41519	0.13016
3051.12943	0.13027
3049.84366	0.12995
3048.55789	0.12914
3047.27212	0.12807
3045.98635	0.12715
3044.70058	0.12658
3043.41481	0.12627
3042.12904	0.12599
3040.84328	0.12553
3039.55751	0.12484
3038.27174	0.12394
3036.98597	0.12295
3035.70020	0.12196
3034.41443	0.12106
3033.12866	0.12031
3031.84289	0.11974
3030.55712	0.11931
3029.27136	0.11889
3027.98559	0.11841
3026.69982	0.11785
3025.41405	0.11730
3024.12828	0.11678
3022.84251	0.11623
3021.55674	0.11564
3020.27097	0.11503
3018.98521	0.11443
3017.69944	0.11386
3016.41367	0.11332
3015.12790	0.11285
3013.84213	0.11255
3012.55636	0.11240
3011.27059	0.11233
3009.98482	0.11222
3008.69905	0.11206
3007.41329	0.11188
3006.12752	0.11169
3004.84175	0.11148
3003.55598	0.11128
3002.27021	0.11114
3000.98444	0.11113
2999.69867	0.11128
2998.41290	0.11152
2997.12714	0.11176
2995.84137	0.11197
2994.55560	0.11219
2993.26983	0.11245
2991.98406	0.11272
2990.69829	0.11299
2989.41252	0.11335
2988.12675	0.11392
2986.84098	0.11465
2985.55522	0.11533
2984.26945	0.11583
2982.98368	0.11621
2981.69791	0.11665
2980.41214	0.11722
2979.12637	0.11782
2977.84060	0.11831
2976.55483	0.11868
2975.26907	0.11895
2973.98330	0.11915
2972.69753	0.11932
2971.41176	0.11960
2970.12599	0.12007
2968.84022	0.12062
2967.55445	0.12110
2966.26868	0.12152
2964.98291	0.12196
2963.69715	0.12239
2962.41138	0.12269
2961.12561	0.12281
2959.83984	0.12284
2958.55407	0.12287
2957.26830	0.12289
2955.98253	0.12284
2954.69676	0.12275
2953.41100	0.12268
2952.12523	0.12263
2950.83946	0.12254
2949.55369	0.12247
2948.26792	0.12259
2946.98215	0.12302
2945.69638	0.12363
2944.41061	0.12406
2943.12484	0.12410
2941.83908	0.12380
2940.55331	0.12343
2939.26754	0.12331
2937.98177	0.12355
2936.69600	0.12394
2935.41023	0.12415
2934.12446	0.12406
2932.83869	0.12380
2931.55293	0.12357
2930.26716	0.12346
2928.98139	0.12340
2927.69562	0.12329
2926.40985	0.12299
2925.12408	0.12247
2923.83831	0.12171
2922.55254	0.12074
2921.26677	0.11964
2919.98101	0.11861
2918.69524	0.11786
2917.40947	0.11738
2916.12370	0.11696
2914.83793	0.11643
2913.55216	0.11581
2912.26639	0.11522
2910.98062	0.11473
2909.69486	0.11424
2908.40909	0.11362
2907.12332	0.11285
2905.83755	0.11198
2904.55178	0.11111
2903.26601	0.11034
2901.98024	0.10983
2900.69447	0.10952
2899.40870	0.10919
2898.12294	0.10869
2896.83717	0.10810
2895.55140	0.10761
2894.26563	0.10727
2892.97986	0.10703
2891.69409	0.10685
2890.40832	0.10678
2889.12255	0.10678
2887.83678	0.10675
2886.55102	0.10665
2885.26525	0.10658
2883.97948	0.10667
2882.69371	0.10693
2881.40794	0.10722
2880.12217	0.10739
2878.83640	0.10739
2877.55063	0.10732
2876.26487	0.10728
2874.97910	0.10722
2873.69333	0.10702
2872.40756	0.10661
2871.12179	0.10605
2869.83602	0.10550
2868.55025	0.10496
2867.26448	0.10428
2865.97871	0.10337
2864.69295	0.10233
2863.40718	0.10141
2862.12141	0.10075
2860.83564	0.10025
2859.54987	0.09972
2858.26410	0.09908
2856.97833	0.09848
2855.69256	0.09807
2854.40680	0.09779
2853.12103	0.09748
2851.83526	0.09702
2850.54949	0.09645
2849.26372	0.09587
2847.97795	0.09529
2846.69218	0.09467
2845.40641	0.09401
2844.12064	0.09344
2842.83488	0.09304
2841.54911	0.09279
2840.26334	0.09258
2838.97757	0.09233
2837.69180	0.09197
2836.40603	0.09147
2835.12026	0.09090
2833.83449	0.09040
2832.54873	0.09002
2831.26296	0.08965
2829.97719	0.08927
2828.69142	0.08899
2827.40565	0.08891
2826.11988	0.08898
2824.83411	0.08903
2823.54834	0.08893
2822.26257	0.08864
2820.97681	0.08822
2819.69104	0.08777
2818.40527	0.08738
2817.11950	0.08710
2815.83373	0.08684
2814.54796	0.08647
2813.26219	0.08601
2811.97642	0.08560
2810.69066	0.08538
2809.40489	0.08533
2808.11912	0.08533
2806.83335	0.08527
2805.54758	0.08513
2804.26181	0.08495
2802.97604	0.08474
2801.69027	0.08453
2800.40450	0.08430
2799.11874	0.08401
2797.83297	0.08356
2796.54720	0.08297
2795.26143	0.08240
2793.97566	0.08204
2792.68989	0.08197
2791.40412	0.08205
2790.11835	0.08208
2788.83259	0.08186
2787.54682	0.08140
2786.26105	0.08091
2784.97528	0.08063
2783.68951	0.08064
2782.40374	0.08078
2781.11797	0.08081
2779.83220	0.08061
2778.54643	0.08024
2777.26067	0.07991
2775.97490	0.07977
2774.68913	0.07982
2773.40336	0.07991
2772.11759	0.07984
2770.83182	0.07954
2769.54605	0.07913
2768.26028	0.07877
2766.97452	0.07849
2765.68875	0.07815
2764.40298	0.07766
2763.11721	0.07714
2761.83144	0.07681
2760.54567	0.07685
2759.25990	0.07712
2757.97413	0.07735
2756.68836	0.07733
2755.40260	0.07711
2754.11683	0.07686
2752.83106	0.07667
2751.54529	0.07650
2750.25952	0.07628
2748.97375	0.07600
2747.68798	0.07570
2746.40221	0.07542
2745.11645	0.07519
2743.83068	0.07506
2742.54491	0.07506
2741.25914	0.07509
2739.97337	0.07499
2738.68760	0.07460
2737.40183	0.07398
2736.11606	0.07333
2734.83029	0.07287
2733.54453	0.07269
2732.25876	0.07271
2730.97299	0.07277
2729.68722	0.07271
2728.40145	0.07253
2727.11568	0.07227
2725.82991	0.07202
2724.54414	0.07176
2723.25838	0.07148
2721.97261	0.07121
2720.68684	0.07098
2719.40107	0.07078
2718.11530	0.07061
2716.82953	0.07049
2715.54376	0.07043
2714.25799	0.07037
2712.97222	0.07022
2711.68646	0.06997
2710.40069	0.06969
2709.11492	0.06948
2707.82915	0.06940
2706.54338	0.06942
2705.25761	0.06947
2703.97184	0.06947
2702.68607	0.06936
2701.40031	0.06916
2700.11454	0.06889
2698.82877	0.06857
2697.54300	0.06827
2696.25723	0.06806
2694.97146	0.06798
2693.68569	0.06801
2692.39992	0.06805
2691.11415	0.06801
2689.82839	0.06788
2688.54262	0.06769
2687.25685	0.06752
2685.97108	0.06740
2684.68531	0.06734
2683.39954	0.06728
2682.11377	0.06720
2680.82800	0.06709
2679.54224	0.06702
2678.25647	0.06701
2676.97070	0.06705
2675.68493	0.06708
2674.39916	0.06706
2673.11339	0.06698
2671.82762	0.06685
2670.54185	0.06668
2669.25608	0.06651
2667.97032	0.06639
2666.68455	0.06631
2665.39878	0.06626
2664.11301	0.06623
2662.82724	0.06623
2661.54147	0.06624
2660.25570	0.06619
2658.96993	0.06606
2657.68417	0.06591
2656.39840	0.06582
2655.11263	0.06574
2653.82686	0.06553
2652.54109	0.06517
2651.25532	0.06478
2649.96955	0.06453
2648.68378	0.06434
2647.39801	0.06404
2646.11225	0.06360
2644.82648	0.06319
2643.54071	0.06293
2642.25494	0.06272
2640.96917	0.06241
2639.68340	0.06204
2638.39763	0.06177
2637.11186	0.06170
2635.82609	0.06173
2634.54033	0.06168
2633.25456	0.06152
2631.96879	0.06132
2630.68302	0.06114
2629.39725	0.06098
2628.11148	0.06083
2626.82571	0.06066
2625.53994	0.06042
2624.25418	0.06009
2622.96841	0.05970
2621.68264	0.05937
2620.39687	0.05922
2619.11110	0.05922
2617.82533	0.05923
2616.53956	0.05905
2615.25379	0.05859
2613.96802	0.05799
2612.68226	0.05751
2611.39649	0.05732
2610.11072	0.05734
2608.82495	0.05730
2607.53918	0.05709
2606.25341	0.05677
2604.96764	0.05644
2603.68187	0.05615
2602.39611	0.05597
2601.11034	0.05598
2599.82457	0.05613
2598.53880	0.05623
2597.25303	0.05617
2595.96726	0.05596
2594.68149	0.05569
2593.39572	0.05539
2592.10995	0.05512
2590.82419	0.05497
2589.53842	0.05488
2588.25265	0.05467
2586.96688	0.05425
2585.68111	0.05375
2584.39534	0.05342
2583.10957	0.05332
2581.82380	0.05333
2580.53804	0.05328
2579.25227	0.05316
2577.96650	0.05306
2576.68073	0.05305
2575.39496	0.05305
2574.10919	0.05293
2572.82342	0.05266
2571.53765	0.05238
2570.25188	0.05224
2568.96612	0.05225
2567.68035	0.05226
2566.39458	0.05218
2565.10881	0.05207
2563.82304	0.05199
2562.53727	0.05189
2561.25150	0.05174
2559.96573	0.05148
2558.67997	0.05106
2557.39420	0.05055
2556.10843	0.05017
2554.82266	0.05012
2553.53689	0.05033
2552.25112	0.05050
2550.96535	0.05047
2549.67958	0.05032
2548.39381	0.05022
2547.10805	0.05019
2545.82228	0.05014
2544.53651	0.05000
2543.25074	0.04979
2541.96497	0.04955
2540.67920	0.04932
2539.39343	0.04916
2538.10766	0.04908
2536.82190	0.04896
2535.53613	0.04872
2534.25036	0.04842
2532.96459	0.04818
2531.67882	0.04799
2530.39305	0.04773
2529.10728	0.04736
2527.82151	0.04707
2526.53574	0.04711
2525.24998	0.04748
2523.96421	0.04787
2522.67844	0.04800
2521.39267	0.04787
2520.10690	0.04770
2518.82113	0.04770
2517.53536	0.04792
2516.24959	0.04820
2514.96383	0.04837
2513.67806	0.04827
2512.39229	0.04792
2511.10652	0.04743
2509.82075	0.04693
2508.53498	0.04656
2507.24921	0.04643
2505.96344	0.04655
2504.67767	0.04679
2503.39191	0.04692
2502.10614	0.04684
2500.82037	0.04664
2499.53460	0.04644
2498.24883	0.04626
2496.96306	0.04600
2495.67729	0.04562
2494.39152	0.04527
2493.10576	0.04516
2491.81999	0.04533
2490.53422	0.04563
2489.24845	0.04579
2487.96268	0.04564
2486.67691	0.04523
2485.39114	0.04473
2484.10537	0.04433
2482.81960	0.04411
2481.53384	0.04404
2480.24807	0.04412
2478.96230	0.04440
2477.67653	0.04480
2476.39076	0.04511
2475.10499	0.04512
2473.81922	0.04495
2472.53345	0.04489
2471.24769	0.04504
2469.96192	0.04522
2468.67615	0.04521
2467.39038	0.04500
2466.10461	0.04477
2464.81884	0.04465
2463.53307	0.04463
2462.24730	0.04461
2460.96153	0.04454
2459.67577	0.04444
2458.39000	0.04438
2457.10423	0.04441
2455.81846	0.04453
2454.53269	0.04470
2453.24692	0.04487
2451.96115	0.04499
2450.67538	0.04506
2449.38962	0.04503
2448.10385	0.04486
2446.81808	0.04459
2445.53231	0.04434
2444.24654	0.04420
2442.96077	0.04415
2441.67500	0.04412
2440.38923	0.04408
2439.10346	0.04406
2437.81770	0.04412
2436.53193	0.04423
2435.24616	0.04430
2433.96039	0.04423
2432.67462	0.04399
2431.38885	0.04366
2430.10308	0.04337
2428.81731	0.04319
2427.53155	0.04308
2426.24578	0.04304
2424.96001	0.04308
2423.67424	0.04319
2422.38847	0.04326
2421.10270	0.04326
2419.81693	0.04328
2418.53116	0.04337
2417.24539	0.04345
2415.95963	0.04340
2414.67386	0.04322
2413.38809	0.04298
2412.10232	0.04277
2410.81655	0.04261
2409.53078	0.04245
2408.24501	0.04221
2406.95924	0.04190
2405.67347	0.04167
2404.38771	0.04165
2403.10194	0.04183
2401.81617	0.04210
2400.53040	0.04235
2399.24463	0.04243
2397.95886	0.04241
2396.67309	0.04233
2395.38732	0.04222
2394.10156	0.04211
2392.81579	0.04199
2391.53002	0.04192
2390.24425	0.04195
2388.95848	0.04206
2387.67271	0.04213
2386.38694	0.04211
2385.10117	0.04208
2383.81540	0.04220
2382.52964	0.04246
2381.24387	0.04263
2379.95810	0.04257
2378.67233	0.04239
2377.38656	0.04230
2376.10079	0.04238
2374.81502	0.04255
2373.52925	0.04282
2372.24349	0.04317
2370.95772	0.04348
2369.67195	0.04363
2368.38618	0.04368
2367.10041	0.04378
2365.81464	0.04390
2364.52887	0.04403
2363.24310	0.04418
2361.95733	0.04441
2360.67157	0.04486
2359.38580	0.04518
2358.10003	0.04511
2356.81426	0.04477
2355.52849	0.04435
2354.24272	0.04389
2352.95695	0.04349
2351.67118	0.04336
2350.38542	0.04334
2349.09965	0.04317
2347.81388	0.04310
2346.52811	0.04368
2345.24234	0.04439
2343.95657	0.04423
2342.67080	0.04343
2341.38503	0.04356
2340.09926	0.04449
2338.81350	0.04413
2337.52773	0.04263
2336.24196	0.04273
2334.95619	0.04401
2333.67042	0.04383
2332.38465	0.04273
2331.09888	0.04321
2329.81311	0.04367
2328.52735	0.04289
2327.24158	0.04340
2325.95581	0.04466
2324.67004	0.04464
2323.38427	0.04440
2322.09850	0.04453
2320.81273	0.04383
2319.52696	0.04339
2318.24119	0.04326
2316.95543	0.04267
2315.66966	0.04237
2314.38389	0.04226
2313.09812	0.04191
2311.81235	0.04167
2310.52658	0.04119
2309.24081	0.04059
2307.95504	0.04026
2306.66928	0.04004
2305.38351	0.04000
2304.09774	0.03998
2302.81197	0.03993
2301.52620	0.03992
2300.24043	0.03980
2298.95466	0.03958
2297.66889	0.03922
2296.38312	0.03880
2295.09736	0.03841
2293.81159	0.03808
2292.52582	0.03788
2291.24005	0.03776
2289.95428	0.03764
2288.66851	0.03749
2287.38274	0.03734
2286.09697	0.03720
2284.81121	0.03701
2283.52544	0.03665
2282.23967	0.03613
2280.95390	0.03560
2279.66813	0.03531
2278.38236	0.03537
2277.09659	0.03567
2275.81082	0.03595
2274.52505	0.03600
2273.23929	0.03580
2271.95352	0.03543
2270.66775	0.03497
2269.38198	0.03439
2268.09621	0.03378
2266.81044	0.03330
2265.52467	0.03311
2264.23890	0.03314
2262.95314	0.03325
2261.66737	0.03340
2260.38160	0.03361
2259.09583	0.03380
2257.81006	0.03379
2256.52429	0.03341
2255.23852	0.03269
2253.95275	0.03192
2252.66698	0.03142
2251.38122	0.03136
2250.09545	0.03169
2248.80968	0.03212
2247.52391	0.03220
2246.23814	0.03213
2244.95237	0.03205
2243.66660	0.03189
2242.38083	0.03155
2241.09507	0.03123
2239.80930	0.03126
2238.52353	0.03176
2237.23776	0.03232
2235.95199	0.03242
2234.66622	0.03196
2233.38045	0.03133
2232.09468	0.03085
2230.80891	0.03054
2229.52315	0.03029
2228.23738	0.03010
2226.95161	0.02996
2225.66584	0.02975
2224.38007	0.02949
2223.09430	0.02940
2221.80853	0.02958
2220.52276	0.02976
2219.23700	0.02953
2217.95123	0.02877
2216.66546	0.02776
2215.37969	0.02699
2214.09392	0.02674
2212.80815	0.02698
2211.52238	0.02749
2210.23661	0.02803
2208.95084	0.02849
2207.66508	0.02883
2206.37931	0.02904
2205.09354	0.02917
2203.80777	0.02920
2202.52200	0.02889
2201.23623	0.02797
2199.95046	0.02661
2198.66469	0.02546
2197.37893	0.02505
2196.09316	0.02537
2194.80739	0.02606
2193.52162	0.02679
2192.23585	0.02725
2190.95008	0.02708
2189.66431	0.02608
2188.37854	0.02450
2187.09277	0.02291
2185.80701	0.02170
2184.52124	0.02091
2183.23547	0.02064
2181.94970	0.02117
2180.66393	0.02256
2179.37816	0.02422
2178.09239	0.02515
2176.80662	0.02479
2175.52085	0.02358
2174.23509	0.02251
2172.94932	0.02215
2171.66355	0.02216
2170.37778	0.02180
2169.09201	0.02071
2167.80624	0.01924
2166.52047	0.01796
2165.23470	0.01714
2163.94894	0.01676
2162.66317	0.01679
2161.37740	0.01711
2160.09163	0.01737
2158.80586	0.01728
2157.52009	0.01708
2156.23432	0.01728
2154.94855	0.01810
2153.66278	0.01938
2152.37702	0.02075
2151.09125	0.02180
2149.80548	0.02233
2148.51971	0.02246
2147.23394	0.02247
2145.94817	0.02247
2144.66240	0.02245
2143.37663	0.02249
2142.09087	0.02263
2140.80510	0.02282
2139.51933	0.02290
2138.23356	0.02279
2136.94779	0.02252
2135.66202	0.02222
2134.37625	0.02218
2133.09048	0.02269
2131.80471	0.02377
2130.51895	0.02507
2129.23318	0.02620
2127.94741	0.02693
2126.66164	0.02736
2125.37587	0.02769
2124.09010	0.02798
2122.80433	0.02813
2121.51856	0.02803
2120.23280	0.02782
2118.94703	0.02776
2117.66126	0.02800
2116.37549	0.02843
2115.08972	0.02877
2113.80395	0.02876
2112.51818	0.02837
2111.23241	0.02784
2109.94664	0.02744
2108.66088	0.02735
2107.37511	0.02765
2106.08934	0.02826
2104.80357	0.02886
2103.51780	0.02904
2102.23203	0.02870
2100.94626	0.02802
2099.66049	0.02619
2098.37473	0.02498
2097.08896	0.02445
2095.80319	0.02428
2094.51742	0.02444
2093.23165	0.02486
2091.94588	0.02540
2090.66011	0.02588
2089.37434	0.02621
2088.08857	0.02640
2086.80281	0.02649
2085.51704	0.02645
2084.23127	0.02623
2082.94550	0.02583
2081.65973	0.02538
2080.37396	0.02501
2079.08819	0.02475
2077.80242	0.02453
2076.51666	0.02429
2075.23089	0.02400
2073.94512	0.02369
2072.65935	0.02345
2071.37358	0.02326
2070.08781	0.02306
2068.80204	0.02275
2067.51627	0.02237
2066.23050	0.02212
2064.94474	0.02211
2063.65897	0.02215
2062.37320	0.02197
2061.08743	0.02144
2059.80166	0.02079
2058.51589	0.02037
2057.23012	0.02035
2055.94435	0.02053
2054.65859	0.02056
2053.37282	0.02027
2052.08705	0.01971
2050.80128	0.01907
2049.51551	0.01842
2048.22974	0.01775
2046.94397	0.01710
2045.65820	0.01674
2044.37243	0.01692
2043.08667	0.01755
2041.80090	0.01800
2040.51513	0.01754
2039.22936	0.01606
2037.94359	0.01433
2036.65782	0.01345
2035.37205	0.01399
2034.08628	0.01540
2032.80052	0.01654
2031.51475	0.01662
2030.22898	0.01583
2028.94321	0.01506
2027.65744	0.01499
2026.37167	0.01574
2025.08590	0.01699
2023.80013	0.01821
2022.51436	0.01882
2021.22860	0.01850
2019.94283	0.01753
2018.65706	0.01649
2017.37129	0.01568
2016.08552	0.01501
2014.79975	0.01451
2013.51398	0.01447
2012.22821	0.01490
2010.94245	0.01530
2009.65668	0.01523
2008.37091	0.01486
2007.08514	0.01468
2005.79937	0.01497
2004.51360	0.01566
2003.22783	0.01656
2001.94206	0.01742
2000.65629	0.01796
1999.37053	0.01804
1998.08476	0.01784
1996.79899	0.01770
1995.51322	0.01781
1994.22745	0.01810
1992.94168	0.01840
1991.65591	0.01853
1990.37014	0.01844
1989.08438	0.01825
1987.79861	0.01818
1986.51284	0.01840
1985.22707	0.01879
1983.94130	0.01904
1982.65553	0.01879
1981.36976	0.01782
1980.08399	0.01616
1978.79822	0.01417
1977.51246	0.01237
1976.22669	0.01130
1974.94092	0.01129
1973.65515	0.01238
1972.36938	0.01417
1971.08361	0.01596
1969.79784	0.01710
1968.51207	0.01734
1967.22631	0.01691
1965.94054	0.01623
1964.65477	0.01567
1963.36900	0.01545
1962.08323	0.01563
1960.79746	0.01614
1959.51169	0.01680
1958.22592	0.01748
1956.94015	0.01812
1955.65439	0.01866
1954.36862	0.01897
1953.08285	0.01901
1951.79708	0.01891
1950.51131	0.01891
1949.22554	0.01905
1947.93977	0.01918
1946.65400	0.01917
1945.36823	0.01911
1944.08247	0.01911
1942.79670	0.01913
1941.51093	0.01905
1940.22516	0.01887
1938.93939	0.01876
1937.65362	0.01892
1936.36785	0.01936
1935.08208	0.01990
1933.79632	0.02029
1932.51055	0.02045
1931.22478	0.02045
1929.93901	0.02040
1928.65324	0.02031
1927.36747	0.02017
1926.08170	0.02004
1924.79593	0.02000
1923.51016	0.02009
1922.22440	0.02028
1920.93863	0.02049
1919.65286	0.02063
1918.36709	0.02066
1917.08132	0.02066
1915.79555	0.02076
1914.50978	0.02102
1913.22401	0.02136
1911.93825	0.02176
1910.65248	0.02220
1909.36671	0.02260
1908.08094	0.02276
1906.79517	0.02262
1905.50940	0.02231
1904.22363	0.02208
1902.93786	0.02201
1901.65209	0.02198
1900.36633	0.02185
1899.08056	0.02163
1897.79479	0.02148
1896.50902	0.02148
1895.22325	0.02160
1893.93748	0.02171
1892.65171	0.02174
1891.36594	0.02175
1890.08018	0.02175
1888.79441	0.02170
1887.50864	0.02157
1886.22287	0.02138
1884.93710	0.02128
1883.65133	0.02132
1882.36556	0.02144
1881.07979	0.02149
1879.79402	0.02147
1878.50826	0.02149
1877.22249	0.02169
1875.93672	0.02199
1874.65095	0.02221
1873.36518	0.02223
1872.07941	0.02210
1870.79364	0.02193
1869.50787	0.02175
1868.22211	0.02156
1866.93634	0.02140
1865.65057	0.02130
1864.36480	0.02121
1863.07903	0.02106
1861.79326	0.02088
1860.50749	0.02078
1859.22172	0.02086
1857.93595	0.02103
1856.65019	0.02115
1855.36442	0.02116
1854.07865	0.02108
1852.79288	0.02096
1851.50711	0.02084
1850.22134	0.02078
1848.93557	0.02077
1847.64980	0.02081
1846.36404	0.02092
1845.07827	0.02111
1843.79250	0.02127
1842.50673	0.02130
1841.22096	0.02117
1839.93519	0.02100
1838.64942	0.02089
1837.36365	0.02088
1836.07788	0.02097
1834.79212	0.02107
1833.50635	0.02114
1832.22058	0.02116
1830.93481	0.02116
1829.64904	0.02110
1828.36327	0.02097
1827.07750	0.02077
1825.79173	0.02051
1824.50597	0.02022
1823.22020	0.01997
1821.93443	0.01980
1820.64866	0.01976
1819.36289	0.01983
1818.07712	0.02000
1816.79135	0.02025
1815.50558	0.02053
1814.21981	0.02076
1812.93405	0.02089
1811.64828	0.02090
1810.36251	0.02086
1809.07674	0.02085
1807.79097	0.02091
1806.50520	0.02097
1805.21943	0.02096
1803.93366	0.02091
1802.64790	0.02085
1801.36213	0.02080
1800.07636	0.02075
1798.79059	0.02067
1797.50482	0.02058
1796.21905	0.02053
1794.93328	0.02056
1793.64751	0.02070
1792.36174	0.02085
1791.07598	0.02089
1789.79021	0.02078
1788.50444	0.02057
1787.21867	0.02035
1785.93290	0.02021
1784.64713	0.02017
1783.36136	0.02016
1782.07559	0.02013
1780.78983	0.02002
1779.50406	0.01989
1778.21829	0.01982
1776.93252	0.01986
1775.64675	0.01999
1774.36098	0.02016
1773.07521	0.02029
1771.78944	0.02032
1770.50367	0.02032
1769.21791	0.02038
1767.93214	0.02048
1766.64637	0.02052
1765.36060	0.02049
1764.07483	0.02044
1762.78906	0.02042
1761.50329	0.02043
1760.21752	0.02048
1758.93176	0.02059
1757.64599	0.02073
1756.36022	0.02082
1755.07445	0.02085
1753.78868	0.02096
1752.50291	0.02120
1751.21714	0.02147
1749.93137	0.02169
1748.64560	0.02184
1747.35984	0.02198
1746.07407	0.02214
1744.78830	0.02234
1743.50253	0.02260
1742.21676	0.02293
1740.93099	0.02331
1739.64522	0.02370
1738.35945	0.02405
1737.07369	0.02443
1735.78792	0.02489
1734.50215	0.02532
1733.21638	0.02563
1731.93061	0.02588
1730.64484	0.02622
1729.35907	0.02663
1728.07330	0.02702
1726.78753	0.02741
1725.50177	0.02789
1724.21600	0.02842
1722.93023	0.02891
1721.64446	0.02931
1720.35869	0.02972
1719.07292	0.03023
1717.78715	0.03082
1716.50138	0.03144
1715.21561	0.03215
1713.92985	0.03307
1712.64408	0.03424
1711.35831	0.03562
1710.07254	0.03715
1708.78677	0.03881
1707.50100	0.04066
1706.21523	0.04267
1704.92946	0.04480
1703.64370	0.04705
1702.35793	0.04955
1701.07216	0.05225
1699.78639	0.05497
1698.50062	0.05778
1697.21485	0.06089
1695.92908	0.06427
1694.64331	0.06760
1693.35754	0.07075
1692.07178	0.07379
1690.78601	0.07675
1689.50024	0.07962
1688.21447	0.08252
1686.92870	0.08569
1685.64293	0.08921
1684.35716	0.09285
1683.07139	0.09640
1681.78563	0.09992
1680.49986	0.10356
1679.21409	0.10731
1677.92832	0.11116
1676.64255	0.11513
1675.35678	0.11917
1674.07101	0.12327
1672.78524	0.12753
1671.49947	0.13207
1670.21371	0.13681
1668.92794	0.14152
1667.64217	0.14603
1666.35640	0.15035
1665.07063	0.15460
1663.78486	0.15881
1662.49909	0.16294
1661.21332	0.16691
1659.92756	0.17068
1658.64179	0.17417
1657.35602	0.17738
1656.07025	0.18048
1654.78448	0.18368
1653.49871	0.18690
1652.21294	0.18978
1650.92717	0.19222
1649.64140	0.19445
1648.35564	0.19667
1647.06987	0.19887
1645.78410	0.20097
1644.49833	0.20294
1643.21256	0.20484
1641.92679	0.20668
1640.64102	0.20841
1639.35525	0.21001
1638.06949	0.21156
1636.78372	0.21308
1635.49795	0.21446
1634.21218	0.21559
1632.92641	0.21649
1631.64064	0.21715
1630.35487	0.21743
1629.06910	0.21715
1627.78333	0.21623
1626.49757	0.21478
1625.21180	0.21294
1623.92603	0.21079
1622.64026	0.20824
1621.35449	0.20521
1620.06872	0.20178
1618.78295	0.19813
1617.49718	0.19438
1616.21142	0.19049
1614.92565	0.18646
1613.63988	0.18231
1612.35411	0.17809
1611.06834	0.17377
1609.78257	0.16940
1608.49680	0.16505
1607.21103	0.16079
1605.92526	0.15667
1604.63950	0.15271
1603.35373	0.14892
1602.06796	0.14532
1600.78219	0.14192
1599.49642	0.13874
1598.21065	0.13580
1596.92488	0.13309
1595.63911	0.13059
1594.35335	0.12828
1593.06758	0.12617
1591.78181	0.12430
1590.49604	0.12272
1589.21027	0.12144
1587.92450	0.12044
1586.63873	0.11968
1585.35296	0.11912
1584.06719	0.11875
1582.78143	0.11862
1581.49566	0.11870
1580.20989	0.11901
1578.92412	0.11960
1577.63835	0.12055
1576.35258	0.12181
1575.06681	0.12324
1573.78104	0.12482
1572.49528	0.12663
1571.20951	0.12868
1569.92374	0.13087
1568.63797	0.13316
1567.35220	0.13557
1566.06643	0.13813
1564.78066	0.14077
1563.49489	0.14340
1562.20912	0.14608
1560.92336	0.14889
1559.63759	0.15175
1558.35182	0.15443
1557.06605	0.15689
1555.78028	0.15926
1554.49451	0.16156
1553.20874	0.16370
1551.92297	0.16564
1550.63721	0.16742
1549.35144	0.16904
1548.06567	0.17048
1546.77990	0.17173
1545.49413	0.17278
1544.20836	0.17366
1542.92259	0.17445
1541.63682	0.17526
1540.35105	0.17603
1539.06529	0.17657
1537.77952	0.17683
1536.49375	0.17694
1535.20798	0.17706
1533.92221	0.17714
1532.63644	0.17707
1531.35067	0.17684
1530.06490	0.17651
1528.77914	0.17611
1527.49337	0.17560
1526.20760	0.17494
1524.92183	0.17413
1523.63606	0.17328
1522.35029	0.17244
1521.06452	0.17152
1519.77875	0.17049
1518.49298	0.16940
1517.20722	0.16824
1515.92145	0.16688
1514.63568	0.16523
1513.34991	0.16333
1512.06414	0.16121
1510.77837	0.15887
1509.49260	0.15638
1508.20683	0.15380
1506.92107	0.15111
1505.63530	0.14822
1504.34953	0.14516
1503.06376	0.14209
1501.77799	0.13909
1500.49222	0.13612
1499.20645	0.13311
1497.92068	0.13005
1496.63491	0.12691
1495.34915	0.12371
1494.06338	0.12053
1492.77761	0.11748
1491.49184	0.11460
1490.20607	0.11186
1488.92030	0.10934
1487.63453	0.10709
1486.34876	0.10513
1485.06299	0.10345
1483.77723	0.10204
1482.49146	0.10094
1481.20569	0.10016
1479.91992	0.09971
1478.63415	0.09955
1477.34838	0.09968
1476.06261	0.10010
1474.77684	0.10084
1473.49108	0.10189
1472.20531	0.10313
1470.91954	0.10443
1469.63377	0.10575
1468.34800	0.10710
1467.06223	0.10854
1465.77646	0.11007
1464.49069	0.11170
1463.20492	0.11341
1461.91916	0.11518
1460.63339	0.11700
1459.34762	0.11890
1458.06185	0.12086
1456.77608	0.12275
1455.49031	0.12441
1454.20454	0.12582
1452.91877	0.12697
1451.63301	0.12783
1450.34724	0.12838
1449.06147	0.12868
1447.77570	0.12876
1446.48993	0.12864
1445.20416	0.12834
1443.91839	0.12785
1442.63262	0.12715
1441.34685	0.12624
1440.06109	0.12518
1438.77532	0.12404
1437.48955	0.12281
1436.20378	0.12141
1434.91801	0.11983
1433.63224	0.11818
1432.34647	0.11655
1431.06070	0.11502
1429.77494	0.11365
1428.48917	0.11248
1427.20340	0.11155
1425.91763	0.11082
1424.63186	0.11022
1423.34609	0.10970
1422.06032	0.10930
1420.77455	0.10907
1419.48878	0.10895
1418.20302	0.10888
1416.91725	0.10885
1415.63148	0.10888
1414.34571	0.10900
1413.05994	0.10922
1411.77417	0.10952
1410.48840	0.10989
1409.20263	0.11029
1407.91687	0.11068
1406.63110	0.11107
1405.34533	0.11143
1404.05956	0.11173
1402.77379	0.11194
1401.48802	0.11209
1400.20225	0.11214
1398.91648	0.11207
1397.63071	0.11187
1396.34495	0.11163
1395.05918	0.11142
1393.77341	0.11122
1392.48764	0.11099
1391.20187	0.11072
1389.91610	0.11041
1388.63033	0.11005
1387.34456	0.10964
1386.05880	0.10917
1384.77303	0.10867
1383.48726	0.10819
1382.20149	0.10774
1380.91572	0.10731
1379.62995	0.10685
1378.34418	0.10628
1377.05841	0.10559
1375.77264	0.10480
1374.48688	0.10396
1373.20111	0.10307
1371.91534	0.10215
1370.62957	0.10118
1369.34380	0.10015
1368.05803	0.09902
1366.77226	0.09778
1365.48649	0.09651
1364.20073	0.09533
1362.91496	0.09430
1361.62919	0.09342
1360.34342	0.09268
1359.05765	0.09210
1357.77188	0.09173
1356.48611	0.09156
1355.20034	0.09159
1353.91457	0.09178
1352.62881	0.09214
1351.34304	0.09266
1350.05727	0.09331
1348.77150	0.09408
1347.48573	0.09494
1346.19996	0.09587
1344.91419	0.09684
1343.62842	0.09781
1342.34266	0.09872
1341.05689	0.09954
1339.77112	0.10022
1338.48535	0.10074
1337.19958	0.10110
1335.91381	0.10126
1334.62804	0.10118
1333.34227	0.10083
1332.05650	0.10026
1330.77074	0.09958
1329.48497	0.09884
1328.19920	0.09810
1326.91343	0.09733
1325.62766	0.09655
1324.34189	0.09580
1323.05612	0.09514
1321.77035	0.09461
1320.48459	0.09421
1319.19882	0.09390
1317.91305	0.09362
1316.62728	0.09334
1315.34151	0.09303
1314.05574	0.09266
1312.76997	0.09221
1311.48420	0.09171
1310.19843	0.09118
1308.91267	0.09063
1307.62690	0.09010
1306.34113	0.08963
1305.05536	0.08925
1303.76959	0.08894
1302.48382	0.08863
1301.19805	0.08829
1299.91228	0.08795
1298.62652	0.08764
1297.34075	0.08738
1296.05498	0.08723
1294.76921	0.08720
1293.48344	0.08732
1292.19767	0.08758
1290.91190	0.08794
1289.62613	0.08841
1288.34036	0.08896
1287.05460	0.08958
1285.76883	0.09023
1284.48306	0.09087
1283.19729	0.09146
1281.91152	0.09196
1280.62575	0.09234
1279.33998	0.09262
1278.05421	0.09283
1276.76845	0.09298
1275.48268	0.09309
1274.19691	0.09314
1272.91114	0.09315
1271.62537	0.09317
1270.33960	0.09325
1269.05383	0.09344
1267.76806	0.09372
1266.48229	0.09408
1265.19653	0.09452
1263.91076	0.09504
1262.62499	0.09565
1261.33922	0.09634
1260.05345	0.09706
1258.76768	0.09777
1257.48191	0.09846
1256.19614	0.09918
1254.91037	0.09998
1253.62461	0.10087
1252.33884	0.10182
1251.05307	0.10280
1249.76730	0.10384
1248.48153	0.10496
1247.19576	0.10617
1245.90999	0.10742
1244.62422	0.10867
1243.33846	0.10986
1242.05269	0.11094
1240.76692	0.11190
1239.48115	0.11269
1238.19538	0.11331
1236.90961	0.11376
1235.62384	0.11407
1234.33807	0.11425
1233.05230	0.11424
1231.76654	0.11398
1230.48077	0.11346
1229.19500	0.11274
1227.90923	0.11185
1226.62346	0.11081
1225.33769	0.10959
1224.05192	0.10820
1222.76615	0.10672
1221.48039	0.10523
1220.19462	0.10381
1218.90885	0.10247
1217.62308	0.10123
1216.33731	0.10010
1215.05154	0.09916
1213.76577	0.09847
1212.48000	0.09804
1211.19423	0.09785
1209.90847	0.09782
1208.62270	0.09792
1207.33693	0.09813
1206.05116	0.09842
1204.76539	0.09873
1203.47962	0.09890
1202.19385	0.09884
1200.90808	0.09854
1199.62232	0.09807
1198.33655	0.09725
1197.05078	0.09630
1195.76501	0.09527
1194.47924	0.09415
1193.19347	0.09295
1191.90770	0.09169
1190.62193	0.09043
1189.33616	0.08921
1188.05040	0.08810
1186.76463	0.08710
1185.47886	0.08622
1184.19309	0.08540
1182.90732	0.08463
1181.62155	0.08390
1180.33578	0.08328
1179.05001	0.08281
1177.76425	0.08248
1176.47848	0.08219
1175.19271	0.08188
1173.90694	0.08160
1172.62117	0.08138
1171.33540	0.08126
1170.04963	0.08119
1168.76386	0.08112
1167.47809	0.08106
1166.19233	0.08104
1164.90656	0.08103
1163.62079	0.08100
1162.33502	0.08091
1161.04925	0.08076
1159.76348	0.08056
1158.47771	0.08025
1157.19194	0.07977
1155.90618	0.07910
1154.62041	0.07829
1153.33464	0.07742
1152.04887	0.07654
1150.76310	0.07566
1149.47733	0.07477
1148.19156	0.07386
1146.90579	0.07295
1145.62002	0.07211
1144.33426	0.07137
1143.04849	0.07071
1141.76272	0.07005
1140.47695	0.06935
1139.19118	0.06864
1137.90541	0.06799
1136.61964	0.06747
1135.33387	0.06709
1134.04811	0.06680
1132.76234	0.06654
1131.47657	0.06629
1130.19080	0.06603
1128.90503	0.06578
1127.61926	0.06555
1126.33349	0.06533
1125.04772	0.06512
1123.76195	0.06496
1122.47619	0.06487
1121.19042	0.06481
1119.90465	0.06474
1118.61888	0.06468
1117.33311	0.06468
1116.04734	0.06478
1114.76157	0.06493
1113.47580	0.06507
1112.19004	0.06519
1110.90427	0.06531
1109.61850	0.06546
1108.33273	0.06568
1107.04696	0.06595
1105.76119	0.06621
1104.47542	0.06641
1103.18965	0.06660
1101.90388	0.06688
1100.61812	0.06729
1099.33235	0.06779
1098.04658	0.06828
1096.76081	0.06875
1095.47504	0.06924
1094.18927	0.06983
1092.90350	0.07050
1091.61773	0.07119
1090.33197	0.07191
1089.04620	0.07275
1087.76043	0.07379
1086.47466	0.07502
1085.18889	0.07628
1083.90312	0.07741
1082.61735	0.07825
1081.33158	0.07877
1080.04581	0.07898
1078.76005	0.07894
1077.47428	0.07873
1076.18851	0.07839
1074.90274	0.07798
1073.61697	0.07754
1072.33120	0.07712
1071.04543	0.07675
1069.75966	0.07644
1068.47390	0.07620
1067.18813	0.07604
1065.90236	0.07596
1064.61659	0.07592
1063.33082	0.07590
1062.04505	0.07582
1060.75928	0.07562
1059.47351	0.07532
1058.18774	0.07497
1056.90198	0.07460
1055.61621	0.07421
1054.33044	0.07381
1053.04467	0.07340
1051.75890	0.07303
1050.47313	0.07267
1049.18736	0.07231
1047.90159	0.07197
1046.61583	0.07171
1045.33006	0.07153
1044.04429	0.07139
1042.75852	0.07127
1041.47275	0.07125
1040.18698	0.07137
1038.90121	0.07165
1037.61544	0.07208
1036.32967	0.07260
1035.04391	0.07315
1033.75814	0.07365
1032.47237	0.07405
1031.18660	0.07427
1029.90083	0.07424
1028.61506	0.07389
1027.32929	0.07326
1026.04352	0.07242
1024.75775	0.07148
1023.47199	0.07055
1022.18622	0.06973
1020.90045	0.06906
1019.61468	0.06850
1018.32891	0.06799
1017.04314	0.06749
1015.75737	0.06701
1014.47160	0.06653
1013.18584	0.06605
1011.90007	0.06552
1010.61430	0.06491
1009.32853	0.06426
1008.04276	0.06361
1006.75699	0.06299
1005.47122	0.06239
1004.18545	0.06178
1002.89968	0.06117
1001.61392	0.06055
1000.32815	0.05993
999.04238	0.05932
997.75661	0.05875
996.47084	0.05826
995.18507	0.05782
993.89930	0.05738
992.61353	0.05691
991.32777	0.05641
990.04200	0.05593
988.75623	0.05550
987.47046	0.05515
986.18469	0.05487
984.89892	0.05468
983.61315	0.05456
982.32738	0.05451
981.04161	0.05449
979.75585	0.05451
978.47008	0.05458
977.18431	0.05471
975.89854	0.05485
974.61277	0.05496
973.32700	0.05496
972.04123	0.05479
970.75546	0.05443
969.46970	0.05393
968.18393	0.05340
966.89816	0.05293
965.61239	0.05258
964.32662	0.05233
963.04085	0.05214
961.75508	0.05199
960.46931	0.05182
959.18354	0.05158
957.89778	0.05123
956.61201	0.05081
955.32624	0.05040
954.04047	0.05007
952.75470	0.04977
951.46893	0.04949
950.18316	0.04926
948.89739	0.04919
947.61163	0.04925
946.32586	0.04936
945.04009	0.04942
943.75432	0.04943
942.46855	0.04940
941.18278	0.04937
939.89701	0.04937
938.61124	0.04940
937.32547	0.04941
936.03971	0.04935
934.75394	0.04922
933.46817	0.04907
932.18240	0.04894
930.89663	0.04878
929.61086	0.04860
928.32509	0.04844
927.03932	0.04840
925.75356	0.04850
924.46779	0.04866
923.18202	0.04873
921.89625	0.04865
920.61048	0.04844
919.32471	0.04820
918.03894	0.04799
916.75317	0.04780
915.46740	0.04760
914.18164	0.04737
912.89587	0.04712
911.61010	0.04687
910.32433	0.04662
909.03856	0.04642
907.75279	0.04629
906.46702	0.04623
905.18125	0.04618
903.89549	0.04609
902.60972	0.04597
901.32395	0.04584
900.03818	0.04574
898.75241	0.04562
897.46664	0.04544
896.18087	0.04518
894.89510	0.04492
893.60933	0.04471
892.32357	0.04461
891.03780	0.04460
889.75203	0.04463
888.46626	0.04468
887.18049	0.04470
885.89472	0.04470
884.60895	0.04469
883.32318	0.04465
882.03742	0.04458
880.75165	0.04450
879.46588	0.04446
878.18011	0.04451
876.89434	0.04466
875.60857	0.04483
874.32280	0.04491
873.03703	0.04489
871.75126	0.04481
870.46550	0.04477
869.17973	0.04474
867.89396	0.04463
866.60819	0.04440
865.32242	0.04413
864.03665	0.04395
862.75088	0.04390
861.46511	0.04394
860.17935	0.04399
858.89358	0.04400
857.60781	0.04397
856.32204	0.04398
855.03627	0.04405
853.75050	0.04416
852.46473	0.04429
851.17896	0.04440
849.89319	0.04445
848.60743	0.04442
847.32166	0.04432
846.03589	0.04418
844.75012	0.04404
843.46435	0.04395
842.17858	0.04388
840.89281	0.04383
839.60704	0.04373
838.32128	0.04358
837.03551	0.04343
835.74974	0.04333
834.46397	0.04333
833.17820	0.04337
831.89243	0.04341
830.60666	0.04344
829.32089	0.04354
828.03512	0.04373
826.74936	0.04396
825.46359	0.04417
824.17782	0.04431
822.89205	0.04444
821.60628	0.04463
820.32051	0.04489
819.03474	0.04516
817.74897	0.04535
816.46321	0.04544
815.17744	0.04545
813.89167	0.04548
812.60590	0.04560
811.32013	0.04584
810.03436	0.04616
808.74859	0.04649
807.46282	0.04675
806.17705	0.04695
804.89129	0.04708
803.60552	0.04717
802.31975	0.04726
801.03398	0.04737
799.74821	0.04748
798.46244	0.04759
797.17667	0.04770
795.89090	0.04784
794.60513	0.04799
793.31937	0.04812
792.03360	0.04825
790.74783	0.04846
789.46206	0.04874
788.17629	0.04904
786.89052	0.04930
785.60475	0.04949
784.31898	0.04958
783.03322	0.04965
781.74745	0.04979
780.46168	0.05005
779.17591	0.05042
777.89014	0.05078
776.60437	0.05102
775.31860	0.05113
774.03283	0.05117
772.74706	0.05124
771.46130	0.05135
770.17553	0.05145
768.88976	0.05153
767.60399	0.05166
766.31822	0.05191
765.03245	0.05229
763.74668	0.05269
762.46091	0.05304
761.17515	0.05328
759.88938	0.05348
758.60361	0.05370
757.31784	0.05398
756.03207	0.05428
754.74630	0.05454
753.46053	0.05475
752.17476	0.05490
750.88899	0.05502
749.60323	0.05510
748.31746	0.05520
747.03169	0.05537
745.74592	0.05562
744.46015	0.05595
743.17438	0.05633
741.88861	0.05671
740.60284	0.05702
739.31708	0.05721
738.03131	0.05733
736.74554	0.05748
735.45977	0.05773
734.17400	0.05803
732.88823	0.05829
731.60246	0.05846
730.31669	0.05861
729.03092	0.05881
727.74516	0.05909
726.45939	0.05942
725.17362	0.05980
723.88785	0.06020
722.60208	0.06067
721.31631	0.06107
720.03054	0.06129
718.74477	0.06140
717.45901	0.06153
716.17324	0.06176
714.88747	0.06205
713.60170	0.06234
712.31593	0.06263
711.03016	0.06295
709.74439	0.06331
708.45862	0.06369
707.17285	0.06405
705.88709	0.06439
704.60132	0.06473
703.31555	0.06506
702.02978	0.06536
700.74401	0.06563
699.45824	0.06587
698.17247	0.06606
696.88670	0.06621
695.60094	0.06633
694.31517	0.06643
693.02940	0.06648
691.74363	0.06650
690.45786	0.06654
689.17209	0.06665
687.88632	0.06683
686.60055	0.06702
685.31478	0.06721
684.02902	0.06739
682.74325	0.06760
681.45748	0.06780
680.17171	0.06798
678.88594	0.06813
677.60017	0.06829
676.31440	0.06849
675.02863	0.06872
673.74287	0.06895
672.45710	0.06916
671.17133	0.06937
669.88556	0.06960
668.59979	0.06981
667.31402	0.06995
666.02825	0.07014
664.74248	0.07029
663.45671	0.07039
662.17095	0.07047
660.88518	0.07055
659.59941	0.07064
658.31364	0.07077
657.02787	0.07094
655.74210	0.07112
654.45633	0.07130
653.17056	0.07147
651.88480	0.07164
650.59903	0.07178
649.31326	0.07185
648.02749	0.07183
646.74172	0.07177
645.45595	0.07175
644.17018	0.07182
642.88441	0.07194
641.59864	0.07206
640.31288	0.07212
639.02711	0.07213
637.74134	0.07211
636.45557	0.07212
635.16980	0.07218
633.88403	0.07229
632.59826	0.07240
631.31249	0.07232
630.02673	0.07137
628.74096	0.06984
627.45519	0.07031
626.16942	0.06835
624.88365	0.06473
623.59788	0.06144
622.31211	0.05970
621.02634	0.06002
619.74057	0.06190
618.45481	0.06440
617.16904	0.06673
615.88327	0.06814
614.59750	0.06811
613.31173	0.06684
612.02596	0.06532
610.74019	0.06439
609.45442	0.06417
608.16866	0.06434
606.88289	0.06465
605.59712	0.06502
604.31135	0.06542
603.02558	0.06599
601.73981	0.06684
600.45404	0.06788
599.16827	0.06892
597.88250	0.06985
596.59674	0.07073
595.31097	0.07153
594.02520	0.07217
592.73943	0.07258
591.45366	0.07278
590.16789	0.07282
588.88212	0.07274
587.59635	0.07256
586.31059	0.07242
585.02482	0.07245
583.73905	0.07268
582.45328	0.07299
581.16751	0.07319
579.88174	0.07321
578.59597	0.07311
577.31020	0.07302
576.02443	0.07303
574.73867	0.07311
573.45290	0.07316
572.16713	0.07309
570.88136	0.07292
569.59559	0.07270
568.30982	0.07255
567.02405	0.07258
565.73828	0.07281
564.45251	0.07323
563.16675	0.07370
561.88098	0.07411
560.59521	0.07439
559.30944	0.07454
558.02367	0.07463
556.73790	0.07471
555.45213	0.07480
554.16636	0.07488
552.88060	0.07496
551.59483	0.07507
550.30906	0.07521
549.02329	0.07531
547.73752	0.07532
546.45175	0.07522
545.16598	0.07506
543.88021	0.07490
542.59444	0.07474
541.30868	0.07458
540.02291	0.07442
538.73714	0.07429
537.45137	0.07425
536.16560	0.07429
534.87983	0.07438
533.59406	0.07446
532.30829	0.07449
531.02253	0.07445
529.73676	0.07441
528.45099	0.07446
527.16522	0.07458
525.87945	0.07463
524.59368	0.07446
523.30791	0.07407
522.02214	0.07364
520.73637	0.07334
519.45061	0.07323
518.16484	0.07321
516.87907	0.07315
515.59330	0.07302
514.30753	0.07289
513.02176	0.07281
511.73599	0.07278
510.45022	0.07273
509.16446	0.07260
507.87869	0.07242
506.59292	0.07227
505.30715	0.07223
504.02138	0.07225
502.73561	0.07221
501.44984	0.07200
500.16407	0.07164
498.87830	0.07127
497.59254	0.07099
496.30677	0.07077
495.02100	0.07051
493.73523	0.07015
492.44946	0.06971
491.16369	0.06929
489.87792	0.06900
488.59215	0.06884
487.30639	0.06876
486.02062	0.06865
484.73485	0.06849
483.44908	0.06831
482.16331	0.06820
480.87754	0.06818
479.59177	0.06821
478.30600	0.06820
477.02023	0.06812
475.73447	0.06799
474.44870	0.06782
473.16293	0.06760
471.87716	0.06725
470.59139	0.06679
469.30562	0.06628
468.01985	0.06582
466.73408	0.06549
465.44832	0.06527
464.16255	0.06507
462.87678	0.06481
461.59101	0.06448
460.30524	0.06416
459.01947	0.06390
457.73370	0.06366
456.44793	0.06337
455.16216	0.06306
453.87640	0.06279
452.59063	0.06258
451.30486	0.06238
450.01909	0.06213
448.73332	0.06184
447.44755	0.06155
446.16178	0.06130
444.87601	0.06108
443.59025	0.06088
442.30448	0.06066
441.01871	0.06041
439.73294	0.06013
438.44717	0.05982
437.16140	0.05950
435.87563	0.05919
434.58986	0.05890
433.30409	0.05862
432.01833	0.05839
430.73256	0.05820
429.44679	0.05805
428.16102	0.05788
426.87525	0.05765
425.58948	0.05738
424.30371	0.05710
423.01794	0.05684
421.73218	0.05659
420.44641	0.05633
419.16064	0.05608
417.87487	0.05584
416.58910	0.05565
415.30333	0.05552
414.01756	0.05542
412.73179	0.05533
411.44602	0.05519
410.16026	0.05497
408.87449	0.05467
407.58872	0.05435
406.30295	0.05405
405.01718	0.05381
403.73141	0.05360
402.44564	0.05342
401.15987	0.05325
399.87411	0.05311
