3996.16951	0.03212
3994.24086	0.03211
3992.31221	0.03184
3990.38355	0.03185
3988.45490	0.03227
3986.52625	0.03261
3984.59759	0.03253
3982.66894	0.03209
3980.74029	0.03171
3978.81163	0.03156
3976.88298	0.03148
3974.95433	0.03136
3973.02567	0.03120
3971.09702	0.03089
3969.16837	0.03067
3967.23972	0.03081
3965.31106	0.03110
3963.38241	0.03140
3961.45376	0.03172
3959.52510	0.03175
3957.59645	0.03147
3955.66780	0.03138
3953.73914	0.03147
3951.81049	0.03155
3949.88184	0.03163
3947.95318	0.03152
3946.02453	0.03112
3944.09588	0.03077
3942.16722	0.03087
3940.23857	0.03115
3938.30992	0.03098
3936.38126	0.03050
3934.45261	0.03010
3932.52396	0.02997
3930.59530	0.02999
3928.66665	0.02993
3926.73800	0.02979
3924.80934	0.02974
3922.88069	0.02995
3920.95204	0.03026
3919.02338	0.03054
3917.09473	0.03079
3915.16608	0.03075
3913.23742	0.03027
3911.30877	0.03003
3909.38012	0.03043
3907.45146	0.03075
3905.52281	0.03037
3903.59416	0.03002
3901.66550	0.03019
3899.73685	0.03012
3897.80820	0.02972
3895.87955	0.02955
3893.95089	0.02976
3892.02224	0.03008
3890.09359	0.03046
3888.16493	0.03052
3886.23628	0.03016
3884.30763	0.03001
3882.37897	0.02985
3880.45032	0.02953
3878.52167	0.02958
3876.59301	0.02981
3874.66436	0.02984
3872.73571	0.02962
3870.80705	0.02921
3868.87840	0.02926
3866.94975	0.02925
3865.02109	0.02890
3863.09244	0.02905
3861.16379	0.02924
3859.23513	0.02919
3857.30648	0.02931
3855.37783	0.02934
3853.44917	0.02946
3851.52052	0.02990
3849.59187	0.02998
3847.66321	0.02959
3845.73456	0.02877
3843.80591	0.02793
3841.87725	0.02777
3839.94860	0.02809
3838.01995	0.02841
3836.09129	0.02854
3834.16264	0.02809
3832.23399	0.02747
3830.30534	0.02734
3828.37668	0.02756
3826.44803	0.02770
3824.51938	0.02775
3822.59072	0.02785
3820.66207	0.02848
3818.73342	0.02890
3816.80476	0.02829
3814.87611	0.02811
3812.94746	0.02826
3811.01880	0.02802
3809.09015	0.02763
3807.16150	0.02735
3805.23284	0.02758
3803.30419	0.02752
3801.37554	0.02728
3799.44688	0.02762
3797.51823	0.02748
3795.58958	0.02696
3793.66092	0.02676
3791.73227	0.02709
3789.80362	0.02762
3787.87496	0.02755
3785.94631	0.02691
3784.01766	0.02630
3782.08900	0.02606
3780.16035	0.02623
3778.23170	0.02657
3776.30304	0.02665
3774.37439	0.02681
3772.44574	0.02722
3770.51708	0.02724
3768.58843	0.02700
3766.65978	0.02665
3764.73112	0.02621
3762.80247	0.02578
3760.87382	0.02544
3758.94517	0.02581
3757.01651	0.02675
3755.08786	0.02726
3753.15921	0.02700
3751.23055	0.02706
3749.30190	0.02762
3747.37325	0.02790
3745.44459	0.02701
3743.51594	0.02644
3741.58729	0.02657
3739.65863	0.02640
3737.72998	0.02613
3735.80133	0.02611
3733.87267	0.02620
3731.94402	0.02573
3730.01537	0.02517
3728.08671	0.02497
3726.15806	0.02523
3724.22941	0.02550
3722.30075	0.02531
3720.37210	0.02512
3718.44345	0.02527
3716.51479	0.02535
3714.58614	0.02485
3712.65749	0.02423
3710.72883	0.02440
3708.80018	0.02490
3706.87153	0.02503
3704.94287	0.02495
3703.01422	0.02488
3701.08557	0.02479
3699.15691	0.02458
3697.22826	0.02441
3695.29961	0.02464
3693.37095	0.02501
3691.44230	0.02518
3689.51365	0.02478
3687.58500	0.02428
3685.65634	0.02423
3683.72769	0.02438
3681.79904	0.02477
3679.87038	0.02531
3677.94173	0.02564
3676.01308	0.02528
3674.08442	0.02485
3672.15577	0.02437
3670.22712	0.02417
3668.29846	0.02456
3666.36981	0.02465
3664.44116	0.02458
3662.51250	0.02489
3660.58385	0.02543
3658.65520	0.02570
3656.72654	0.02539
3654.79789	0.02489
3652.86924	0.02451
3650.94058	0.02470
3649.01193	0.02553
3647.08328	0.02621
3645.15462	0.02641
3643.22597	0.02649
3641.29732	0.02674
3639.36866	0.02711
3637.44001	0.02739
3635.51136	0.02739
3633.58270	0.02709
3631.65405	0.02662
3629.72540	0.02610
3627.79674	0.02614
3625.86809	0.02642
3623.93944	0.02661
3622.01079	0.02721
3620.08213	0.02810
3618.15348	0.02906
3616.22483	0.02974
3614.29617	0.03004
3612.36752	0.03026
3610.43887	0.03029
3608.51021	0.03010
3606.58156	0.02991
3604.65291	0.02959
3602.72425	0.02946
3600.79560	0.03008
3598.86695	0.03097
3596.93829	0.03115
3595.00964	0.03092
3593.08099	0.03110
3591.15233	0.03147
3589.22368	0.03140
3587.29503	0.03130
3585.36637	0.03166
3583.43772	0.03227
3581.50907	0.03282
3579.58041	0.03324
3577.65176	0.03367
3575.72311	0.03393
3573.79445	0.03375
3571.86580	0.03345
3569.93715	0.03328
3568.00849	0.03313
3566.07984	0.03336
3564.15119	0.03404
3562.22253	0.03453
3560.29388	0.03462
3558.36523	0.03504
3556.43657	0.03586
3554.50792	0.03626
3552.57927	0.03612
3550.65062	0.03624
3548.72196	0.03694
3546.79331	0.03761
3544.86466	0.03791
3542.93600	0.03814
3541.00735	0.03836
3539.07870	0.03808
3537.15004	0.03755
3535.22139	0.03751
3533.29274	0.03796
3531.36408	0.03851
3529.43543	0.03900
3527.50678	0.03953
3525.57812	0.04030
3523.64947	0.04097
3521.72082	0.04116
3519.79216	0.04121
3517.86351	0.04159
3515.93486	0.04226
3514.00620	0.04270
3512.07755	0.04260
3510.14890	0.04234
3508.22024	0.04238
3506.29159	0.04277
3504.36294	0.04327
3502.43428	0.04353
3500.50563	0.04358
3498.57698	0.04383
3496.64832	0.04413
3494.71967	0.04403
3492.79102	0.04386
3490.86236	0.04422
3488.93371	0.04502
3487.00506	0.04566
3485.07641	0.04576
3483.14775	0.04548
3481.21910	0.04513
3479.29045	0.04498
3477.36179	0.04524
3475.43314	0.04579
3473.50449	0.04617
3471.57583	0.04626
3469.64718	0.04642
3467.71853	0.04675
3465.78987	0.04709
3463.86122	0.04725
3461.93257	0.04723
3460.00391	0.04729
3458.07526	0.04763
3456.14661	0.04796
3454.21795	0.04813
3452.28930	0.04850
3450.36065	0.04915
3448.43199	0.04968
3446.50334	0.04971
3444.57469	0.04921
3442.64603	0.04864
3440.71738	0.04853
3438.78873	0.04901
3436.86007	0.04988
3434.93142	0.05068
3433.00277	0.05113
3431.07411	0.05129
3429.14546	0.05125
3427.21681	0.05103
3425.28815	0.05093
3423.35950	0.05114
3421.43085	0.05138
3419.50219	0.05141
3417.57354	0.05151
3415.64489	0.05207
3413.71624	0.05265
3411.78758	0.05267
3409.85893	0.05250
3407.93028	0.05275
3406.00162	0.05317
3404.07297	0.05322
3402.14432	0.05308
3400.21566	0.05326
3398.28701	0.05369
3396.35836	0.05405
3394.42970	0.05434
3392.50105	0.05453
3390.57240	0.05460
3388.64374	0.05476
3386.71509	0.05488
3384.78644	0.05457
3382.85778	0.05410
3380.92913	0.05414
3379.00048	0.05475
3377.07182	0.05542
3375.14317	0.05590
3373.21452	0.05612
3371.28586	0.05605
3369.35721	0.05616
3367.42856	0.05661
3365.49990	0.05707
3363.57125	0.05733
3361.64260	0.05749
3359.71394	0.05773
3357.78529	0.05817
3355.85664	0.05884
3353.92798	0.05965
3351.99933	0.06039
3350.07068	0.06074
3348.14202	0.06068
3346.21337	0.06066
3344.28472	0.06105
3342.35607	0.06183
3340.42741	0.06266
3338.49876	0.06318
3336.57011	0.06347
3334.64145	0.06383
3332.71280	0.06433
3330.78415	0.06496
3328.85549	0.06551
3326.92684	0.06558
3324.99819	0.06535
3323.06953	0.06544
3321.14088	0.06598
3319.21223	0.06648
3317.28357	0.06658
3315.35492	0.06661
3313.42627	0.06695
3311.49761	0.06728
3309.56896	0.06733
3307.64031	0.06730
3305.71165	0.06731
3303.78300	0.06740
3301.85435	0.06762
3299.92569	0.06788
3297.99704	0.06807
3296.06839	0.06799
3294.13973	0.06758
3292.21108	0.06728
3290.28243	0.06739
3288.35377	0.06761
3286.42512	0.06761
3284.49647	0.06765
3282.56781	0.06806
3280.63916	0.06848
3278.71051	0.06832
3276.78186	0.06777
3274.85320	0.06738
3272.92455	0.06711
3270.99590	0.06678
3269.06724	0.06650
3267.13859	0.06635
3265.20994	0.06630
3263.28128	0.06620
3261.35263	0.06595
3259.42398	0.06564
3257.49532	0.06533
3255.56667	0.06495
3253.63802	0.06458
3251.70936	0.06436
3249.78071	0.06413
3247.85206	0.06375
3245.92340	0.06348
3243.99475	0.06341
3242.06610	0.06324
3240.13744	0.06299
3238.20879	0.06297
3236.28014	0.06311
3234.35148	0.06295
3232.42283	0.06238
3230.49418	0.06183
3228.56552	0.06170
3226.63687	0.06184
3224.70822	0.06182
3222.77956	0.06150
3220.85091	0.06136
3218.92226	0.06161
3216.99360	0.06168
3215.06495	0.06124
3213.13630	0.06085
3211.20764	0.06066
3209.27899	0.06028
3207.35034	0.05982
3205.42169	0.05952
3203.49303	0.05943
3201.56438	0.05960
3199.63573	0.05963
3197.70707	0.05913
3195.77842	0.05836
3193.84977	0.05782
3191.92111	0.05765
3189.99246	0.05769
3188.06381	0.05778
3186.13515	0.05772
3184.20650	0.05734
3182.27785	0.05690
3180.34919	0.05678
3178.42054	0.05675
3176.49189	0.05637
3174.56323	0.05584
3172.63458	0.05532
3170.70593	0.05457
3168.77727	0.05389
3166.84862	0.05366
3164.91997	0.05351
3162.99131	0.05313
3161.06266	0.05275
3159.13401	0.05251
3157.20535	0.05229
3155.27670	0.05207
3153.34805	0.05178
3151.41939	0.05146
3149.49074	0.05118
3147.56209	0.05089
3145.63343	0.05071
3143.70478	0.05050
3141.77613	0.05012
3139.84748	0.04983
3137.91882	0.04973
3135.99017	0.04962
3134.06152	0.04934
3132.13286	0.04892
3130.20421	0.04863
3128.27556	0.04858
3126.34690	0.04855
3124.41825	0.04832
3122.48960	0.04796
3120.56094	0.04771
3118.63229	0.04780
3116.70364	0.04804
3114.77498	0.04791
3112.84633	0.04750
3110.91768	0.04732
3108.98902	0.04746
3107.06037	0.04767
3105.13172	0.04780
3103.20306	0.04781
3101.27441	0.04779
3099.34576	0.04778
3097.41710	0.04763
3095.48845	0.04739
3093.55980	0.04735
3091.63114	0.04767
3089.70249	0.04812
3087.77384	0.04840
3085.84518	0.04845
3083.91653	0.04857
3081.98788	0.04895
3080.05922	0.04912
3078.13057	0.04876
3076.20192	0.04836
3074.27326	0.04825
3072.34461	0.04842
3070.41596	0.04887
3068.48731	0.04925
3066.55865	0.04908
3064.63000	0.04851
3062.70135	0.04801
3060.77269	0.04773
3058.84404	0.04761
3056.91539	0.04750
3054.98673	0.04734
3053.05808	0.04714
3051.12943	0.04691
3049.20077	0.04671
3047.27212	0.04659
3045.34347	0.04645
3043.41481	0.04621
3041.48616	0.04602
3039.55751	0.04574
3037.62885	0.04513
3035.70020	0.04455
3033.77155	0.04428
3031.84289	0.04413
3029.91424	0.04403
3027.98559	0.04388
3026.05693	0.04344
3024.12828	0.04291
3022.19963	0.04249
3020.27097	0.04214
3018.34232	0.04186
3016.41367	0.04164
3014.48501	0.04141
3012.55636	0.04131
3010.62771	0.04136
3008.69905	0.04134
3006.77040	0.04127
3004.84175	0.04132
3002.91309	0.04141
3000.98444	0.04138
2999.05579	0.04122
2997.12714	0.04113
2995.19848	0.04131
2993.26983	0.04163
2991.34118	0.04184
2989.41252	0.04195
2987.48387	0.04212
2985.55522	0.04245
2983.62656	0.04286
2981.69791	0.04326
2979.76926	0.04357
2977.84060	0.04369
2975.91195	0.04372
2973.98330	0.04392
2972.05464	0.04422
2970.12599	0.04435
2968.19734	0.04437
2966.26868	0.04439
2964.34003	0.04448
2962.41138	0.04464
2960.48272	0.04482
2958.55407	0.04492
2956.62542	0.04504
2954.69676	0.04521
2952.76811	0.04528
2950.83946	0.04526
2948.91080	0.04536
2946.98215	0.04564
2945.05350	0.04601
2943.12484	0.04632
2941.19619	0.04658
2939.26754	0.04683
2937.33888	0.04690
2935.41023	0.04673
2933.48158	0.04651
2931.55293	0.04643
2929.62427	0.04657
2927.69562	0.04686
2925.76697	0.04708
2923.83831	0.04704
2921.90966	0.04671
2919.98101	0.04610
2918.05235	0.04551
2916.12370	0.04510
2914.19505	0.04466
2912.26639	0.04417
2910.33774	0.04378
2908.40909	0.04340
2906.48043	0.04287
2904.55178	0.04221
2902.62313	0.04168
2900.69447	0.04140
2898.76582	0.04124
2896.83717	0.04115
2894.90851	0.04117
2892.97986	0.04118
2891.05121	0.04111
2889.12255	0.04105
2887.19390	0.04101
2885.26525	0.04094
2883.33659	0.04080
2881.40794	0.04069
2879.47929	0.04076
2877.55063	0.04100
2875.62198	0.04125
2873.69333	0.04130
2871.76467	0.04110
2869.83602	0.04079
2867.90737	0.04032
2865.97871	0.03966
2864.05006	0.03913
2862.12141	0.03893
2860.19276	0.03892
2858.26410	0.03896
2856.33545	0.03897
2854.40680	0.03893
2852.47814	0.03877
2850.54949	0.03838
2848.62084	0.03793
2846.69218	0.03763
2844.76353	0.03737
2842.83488	0.03698
2840.90622	0.03661
2838.97757	0.03635
2837.04892	0.03609
2835.12026	0.03584
2833.19161	0.03576
2831.26296	0.03580
2829.33430	0.03572
2827.40565	0.03547
2825.47700	0.03519
2823.54834	0.03492
2821.61969	0.03469
2819.69104	0.03457
2817.76238	0.03460
2815.83373	0.03456
2813.90508	0.03441
2811.97642	0.03424
2810.04777	0.03402
2808.11912	0.03370
2806.19046	0.03353
2804.26181	0.03354
2802.33316	0.03361
2800.40450	0.03371
2798.47585	0.03368
2796.54720	0.03338
2794.61855	0.03310
2792.68989	0.03308
2790.76124	0.03315
2788.83259	0.03312
2786.90393	0.03295
2784.97528	0.03268
2783.04663	0.03241
2781.11797	0.03224
2779.18932	0.03231
2777.26067	0.03244
2775.33201	0.03233
2773.40336	0.03206
2771.47471	0.03173
2769.54605	0.03138
2767.61740	0.03125
2765.68875	0.03143
2763.76009	0.03164
2761.83144	0.03168
2759.90279	0.03163
2757.97413	0.03150
2756.04548	0.03120
2754.11683	0.03095
2752.18817	0.03094
2750.25952	0.03093
2748.33087	0.03076
2746.40221	0.03066
2744.47356	0.03070
2742.54491	0.03061
2740.61625	0.03038
2738.68760	0.03026
2736.75895	0.03032
2734.83029	0.03034
2732.90164	0.03019
2730.97299	0.02998
2729.04433	0.02987
2727.11568	0.02990
2725.18703	0.03002
2723.25838	0.03004
2721.32972	0.02998
2719.40107	0.02991
2717.47242	0.02967
2715.54376	0.02931
2713.61511	0.02911
2711.68646	0.02905
2709.75780	0.02900
2707.82915	0.02899
2705.90050	0.02893
2703.97184	0.02876
2702.04319	0.02859
2700.11454	0.02855
2698.18588	0.02861
2696.25723	0.02872
2694.32858	0.02866
2692.39992	0.02846
2690.47127	0.02841
2688.54262	0.02850
2686.61396	0.02852
2684.68531	0.02847
2682.75666	0.02840
2680.82800	0.02829
2678.89935	0.02816
2676.97070	0.02807
2675.04204	0.02802
2673.11339	0.02805
2671.18474	0.02811
2669.25608	0.02807
2667.32743	0.02798
2665.39878	0.02792
2663.47012	0.02781
2661.54147	0.02763
2659.61282	0.02733
2657.68417	0.02692
2655.75551	0.02652
2653.82686	0.02635
2651.89821	0.02647
2649.96955	0.02662
2648.04090	0.02649
2646.11225	0.02615
2644.18359	0.02572
2642.25494	0.02536
2640.32629	0.02536
2638.39763	0.02554
2636.46898	0.02543
2634.54033	0.02500
2632.61167	0.02464
2630.68302	0.02458
2628.75437	0.02461
2626.82571	0.02460
2624.89706	0.02471
2622.96841	0.02473
2621.03975	0.02441
2619.11110	0.02401
2617.18245	0.02384
2615.25379	0.02390
2613.32514	0.02400
2611.39649	0.02395
2609.46783	0.02367
2607.53918	0.02331
2605.61053	0.02309
2603.68187	0.02302
2601.75322	0.02308
2599.82457	0.02329
2597.89591	0.02346
2595.96726	0.02354
2594.03861	0.02357
2592.10995	0.02336
2590.18130	0.02293
2588.25265	0.02241
2586.32400	0.02204
2584.39534	0.02196
2582.46669	0.02209
2580.53804	0.02227
2578.60938	0.02244
2576.68073	0.02248
2574.75208	0.02235
2572.82342	0.02221
2570.89477	0.02220
2568.96612	0.02214
2567.03746	0.02188
2565.10881	0.02174
2563.18016	0.02193
2561.25150	0.02206
2559.32285	0.02200
2557.39420	0.02198
2555.46554	0.02194
2553.53689	0.02182
2551.60824	0.02167
2549.67958	0.02152
2547.75093	0.02144
2545.82228	0.02157
2543.89362	0.02190
2541.96497	0.02205
2540.03632	0.02179
2538.10766	0.02135
2536.17901	0.02096
2534.25036	0.02063
2532.32170	0.02047
2530.39305	0.02052
2528.46440	0.02072
2526.53574	0.02090
2524.60709	0.02076
2522.67844	0.02037
2520.74978	0.01998
2518.82113	0.01974
2516.89248	0.01973
2514.96383	0.01976
2513.03517	0.01971
2511.10652	0.01974
2509.17787	0.01982
2507.24921	0.01990
2505.32056	0.02004
2503.39191	0.02016
2501.46325	0.02001
2499.53460	0.01953
2497.60595	0.01898
2495.67729	0.01877
2493.74864	0.01920
2491.81999	0.01986
2489.89133	0.02015
2487.96268	0.02018
2486.03403	0.02021
2484.10537	0.02019
2482.17672	0.02005
2480.24807	0.01978
2478.31941	0.01949
2476.39076	0.01945
2474.46211	0.01939
2472.53345	0.01902
2470.60480	0.01884
2468.67615	0.01906
2466.74749	0.01924
2464.81884	0.01944
2462.89019	0.01980
2460.96153	0.01985
2459.03288	0.01961
2457.10423	0.01937
2455.17557	0.01905
2453.24692	0.01864
2451.31827	0.01843
2449.38962	0.01833
2447.46096	0.01816
2445.53231	0.01825
2443.60366	0.01867
2441.67500	0.01898
2439.74635	0.01903
2437.81770	0.01898
2435.88904	0.01882
2433.96039	0.01862
2432.03174	0.01852
2430.10308	0.01853
2428.17443	0.01861
2426.24578	0.01879
2424.31712	0.01901
2422.38847	0.01924
2420.45982	0.01947
2418.53116	0.01960
2416.60251	0.01945
2414.67386	0.01896
2412.74520	0.01846
2410.81655	0.01837
2408.88790	0.01886
2406.95924	0.01937
2405.03059	0.01925
2403.10194	0.01882
2401.17328	0.01866
2399.24463	0.01870
2397.31598	0.01865
2395.38732	0.01860
2393.45867	0.01877
2391.53002	0.01902
2389.60136	0.01923
2387.67271	0.01953
2385.74406	0.01974
2383.81540	0.01958
2381.88675	0.01937
2379.95810	0.01946
2378.02945	0.01971
2376.10079	0.01990
2374.17214	0.01994
2372.24349	0.01985
2370.31483	0.01972
2368.38618	0.01995
2366.45753	0.02014
2364.52887	0.01999
2362.60022	0.01964
2360.67157	0.01989
2358.74291	0.01913
2356.81426	0.01978
2354.88561	0.01968
2352.95695	0.01936
2351.02830	0.01968
2349.09965	0.01986
2347.17099	0.01994
2345.24234	0.02021
2343.31369	0.01998
2341.38503	0.01892
2339.45638	0.01852
2337.52773	0.01875
2335.59907	0.01954
2333.67042	0.02032
2331.74177	0.02052
2329.81311	0.02024
2327.88446	0.01965
2325.95581	0.01893
2324.02715	0.01836
2322.09850	0.01841
2320.16985	0.01879
2318.24119	0.01870
2316.31254	0.01797
2314.38389	0.01732
2312.45524	0.01724
2310.52658	0.01747
2308.59793	0.01765
2306.66928	0.01757
2304.74062	0.01724
2302.81197	0.01682
2300.88332	0.01661
2298.95466	0.01665
2297.02601	0.01665
2295.09736	0.01653
2293.16870	0.01633
2291.24005	0.01604
2289.31140	0.01564
2287.38274	0.01520
2285.45409	0.01478
2283.52544	0.01462
2281.59678	0.01497
2279.66813	0.01532
2277.73948	0.01515
2275.81082	0.01471
2273.88217	0.01431
2271.95352	0.01413
2270.02486	0.01439
2268.09621	0.01448
2266.16756	0.01376
2264.23890	0.01315
2262.31025	0.01373
2260.38160	0.01460
2258.45294	0.01457
2256.52429	0.01410
2254.59564	0.01379
2252.66698	0.01354
2250.73833	0.01340
2248.80968	0.01340
2246.88102	0.01317
2244.95237	0.01277
2243.02372	0.01241
2241.09507	0.01198
2239.16641	0.01185
2237.23776	0.01215
2235.30911	0.01214
2233.38045	0.01201
2231.45180	0.01240
2229.52315	0.01258
2227.59449	0.01203
2225.66584	0.01169
2223.73719	0.01215
2221.80853	0.01255
2219.87988	0.01196
2217.95123	0.01105
2216.02257	0.01080
2214.09392	0.01044
2212.16527	0.00917
2210.23661	0.00785
2208.30796	0.00795
2206.37931	0.00923
2204.45065	0.00960
2202.52200	0.00880
2200.59335	0.00831
2198.66469	0.00817
2196.73604	0.00836
2194.80739	0.00904
2192.87873	0.00930
2190.95008	0.00905
2189.02143	0.00897
2187.09277	0.00918
2185.16412	0.00919
2183.23547	0.00835
2181.30681	0.00721
2179.37816	0.00707
2177.44951	0.00761
2175.52085	0.00753
2173.59220	0.00688
2171.66355	0.00620
2169.73490	0.00563
2167.80624	0.00571
2165.87759	0.00571
2163.94894	0.00456
2162.02028	0.00357
2160.09163	0.00400
2158.16298	0.00521
2156.23432	0.00660
2154.30567	0.00740
2152.37702	0.00723
2150.44836	0.00754
2148.51971	0.00910
2146.59106	0.01058
2144.66240	0.01100
2142.73375	0.01109
2140.80510	0.01165
2138.87644	0.01225
2136.94779	0.01243
2135.01914	0.01202
2133.09048	0.01096
2131.16183	0.01023
2129.23318	0.01057
2127.30452	0.01138
2125.37587	0.01215
2123.44722	0.01269
2121.51856	0.01262
2119.58991	0.01222
2117.66126	0.01206
2115.73260	0.01192
2113.80395	0.01160
2111.87530	0.01143
2109.94664	0.01157
2108.01799	0.01163
2106.08934	0.01135
2104.16069	0.01111
2102.23203	0.01090
2100.30338	0.01034
2098.37473	0.00962
2096.44607	0.00987
2094.51742	0.01088
2092.58877	0.01157
2090.66011	0.01167
2088.73146	0.01151
2086.80281	0.01118
2084.87415	0.01095
2082.94550	0.01084
2081.01685	0.01060
2079.08819	0.00984
2077.15954	0.00882
2075.23089	0.00835
2073.30223	0.00849
2071.37358	0.00874
2069.44493	0.00876
2067.51627	0.00830
2065.58762	0.00751
2063.65897	0.00717
2061.73031	0.00776
2059.80166	0.00852
2057.87301	0.00855
2055.94435	0.00826
2054.01570	0.00823
2052.08705	0.00810
2050.15839	0.00744
2048.22974	0.00648
2046.30109	0.00595
2044.37243	0.00598
2042.44378	0.00583
2040.51513	0.00531
2038.58647	0.00477
2036.65782	0.00445
2034.72917	0.00450
2032.80052	0.00462
2030.87186	0.00456
2028.94321	0.00487
2027.01456	0.00546
2025.08590	0.00538
2023.15725	0.00454
2021.22860	0.00387
2019.29994	0.00414
2017.37129	0.00517
2015.44264	0.00635
2013.51398	0.00722
2011.58533	0.00732
2009.65668	0.00635
2007.72802	0.00523
2005.79937	0.00534
2003.87072	0.00659
2001.94206	0.00789
2000.01341	0.00860
1998.08476	0.00878
1996.15610	0.00856
1994.22745	0.00813
1992.29880	0.00798
1990.37014	0.00809
1988.44149	0.00776
1986.51284	0.00710
1984.58418	0.00681
1982.65553	0.00657
1980.72688	0.00563
1978.79822	0.00440
1976.86957	0.00397
1974.94092	0.00419
1973.01226	0.00400
1971.08361	0.00356
1969.15496	0.00377
1967.22631	0.00460
1965.29765	0.00559
1963.36900	0.00654
1961.44035	0.00754
1959.51169	0.00846
1957.58304	0.00876
1955.65439	0.00843
1953.72573	0.00789
1951.79708	0.00744
1949.86843	0.00725
1947.93977	0.00739
1946.01112	0.00789
1944.08247	0.00856
1942.15381	0.00919
1940.22516	0.00978
1938.29651	0.01015
1936.36785	0.01021
1934.43920	0.01006
1932.51055	0.00970
1930.58189	0.00926
1928.65324	0.00912
1926.72459	0.00922
1924.79593	0.00933
1922.86728	0.00956
1920.93863	0.00982
1919.00997	0.00977
1917.08132	0.00978
1915.15267	0.01003
1913.22401	0.01012
1911.29536	0.01002
1909.36671	0.00986
1907.43805	0.00981
1905.50940	0.00999
1903.58075	0.01024
1901.65209	0.01036
1899.72344	0.01025
1897.79479	0.01006
1895.86614	0.01000
1893.93748	0.00998
1892.00883	0.01004
1890.08018	0.01026
1888.15152	0.01038
1886.22287	0.01018
1884.29422	0.00998
1882.36556	0.01001
1880.43691	0.01019
1878.50826	0.01033
1876.57960	0.01025
1874.65095	0.01003
1872.72230	0.01002
1870.79364	0.01011
1868.86499	0.01006
1866.93634	0.01010
1865.00768	0.01036
1863.07903	0.01054
1861.15038	0.01047
1859.22172	0.01036
1857.29307	0.01042
1855.36442	0.01055
1853.43576	0.01041
1851.50711	0.01002
1849.57846	0.00984
1847.64980	0.00998
1845.72115	0.01010
1843.79250	0.01026
1841.86384	0.01055
1839.93519	0.01058
1838.00654	0.01041
1836.07788	0.01021
1834.14923	0.01002
1832.22058	0.00999
1830.29192	0.01016
1828.36327	0.01032
1826.43462	0.01022
1824.50597	0.00996
1822.57731	0.00975
1820.64866	0.00966
1818.72001	0.00986
1816.79135	0.01029
1814.86270	0.01060
1812.93405	0.01059
1811.00539	0.01039
1809.07674	0.01017
1807.14809	0.01000
1805.21943	0.00998
1803.29078	0.01006
1801.36213	0.01015
1799.43347	0.01018
1797.50482	0.01016
1795.57617	0.01018
1793.64751	0.01020
1791.71886	0.01016
1789.79021	0.01006
1787.86155	0.00992
1785.93290	0.00990
1784.00425	0.00999
1782.07559	0.00997
1780.14694	0.00982
1778.21829	0.00972
1776.28963	0.00969
1774.36098	0.00968
1772.43233	0.00978
1770.50367	0.01001
1768.57502	0.01007
1766.64637	0.01008
1764.71771	0.01015
1762.78906	0.01013
1760.86041	0.01012
1758.93176	0.01012
1757.00310	0.01012
1755.07445	0.01023
1753.14580	0.01028
1751.21714	0.01033
1749.28849	0.01061
1747.35984	0.01091
1745.43118	0.01115
1743.50253	0.01135
1741.57388	0.01152
1739.64522	0.01170
1737.71657	0.01199
1735.78792	0.01212
1733.85926	0.01227
1731.93061	0.01262
1730.00196	0.01279
1728.07330	0.01297
1726.14465	0.01330
1724.21600	0.01357
1722.28734	0.01380
1720.35869	0.01397
1718.43004	0.01405
1716.50138	0.01440
1714.57273	0.01496
1712.64408	0.01552
1710.71542	0.01613
1708.78677	0.01684
1706.85812	0.01774
1704.92946	0.01896
1703.00081	0.02036
1701.07216	0.02171
1699.14350	0.02354
1697.21485	0.02550
1695.28620	0.02737
1693.35754	0.02940
1691.42889	0.03112
1689.50024	0.03292
1687.57159	0.03503
1685.64293	0.03704
1683.71428	0.03913
1681.78563	0.04144
1679.85697	0.04382
1677.92832	0.04646
1675.99967	0.04914
1674.07101	0.05193
1672.14236	0.05480
1670.21371	0.05761
1668.28505	0.06051
1666.35640	0.06344
1664.42775	0.06625
1662.49909	0.06902
1660.57044	0.07168
1658.64179	0.07404
1656.71313	0.07616
1654.78448	0.07783
1652.85583	0.07935
1650.92717	0.08107
1648.99852	0.08229
1647.06987	0.08309
1645.14121	0.08402
1643.21256	0.08500
1641.28391	0.08593
1639.35525	0.08691
1637.42660	0.08773
1635.49795	0.08834
1633.56929	0.08891
1631.64064	0.08911
1629.71199	0.08890
1627.78333	0.08831
1625.85468	0.08721
1623.92603	0.08546
1621.99738	0.08335
1620.06872	0.08104
1618.14007	0.07840
1616.21142	0.07574
1614.28276	0.07318
1612.35411	0.07037
1610.42546	0.06747
1608.49680	0.06467
1606.56815	0.06199
1604.63950	0.05950
1602.71084	0.05723
1600.78219	0.05516
1598.85354	0.05327
1596.92488	0.05155
1594.99623	0.04999
1593.06758	0.04868
1591.13892	0.04770
1589.21027	0.04696
1587.28162	0.04635
1585.35296	0.04589
1583.42431	0.04564
1581.49566	0.04569
1579.56700	0.04608
1577.63835	0.04658
1575.70970	0.04732
1573.78104	0.04852
1571.85239	0.04978
1569.92374	0.05117
1567.99508	0.05288
1566.06643	0.05471
1564.13778	0.05666
1562.20912	0.05865
1560.28047	0.06035
1558.35182	0.06218
1556.42316	0.06415
1554.49451	0.06572
1552.56586	0.06706
1550.63721	0.06816
1548.70855	0.06909
1546.77990	0.06999
1544.85125	0.07081
1542.92259	0.07142
1540.99394	0.07166
1539.06529	0.07181
1537.13663	0.07205
1535.20798	0.07199
1533.27933	0.07176
1531.35067	0.07154
1529.42202	0.07115
1527.49337	0.07064
1525.56471	0.07015
1523.63606	0.06959
1521.70741	0.06889
1519.77875	0.06833
1517.85010	0.06761
1515.92145	0.06658
1513.99279	0.06535
1512.06414	0.06394
1510.13549	0.06246
1508.20683	0.06074
1506.27818	0.05884
1504.34953	0.05708
1502.42087	0.05521
1500.49222	0.05327
1498.56357	0.05138
1496.63491	0.04946
1494.70626	0.04764
1492.77761	0.04586
1490.84895	0.04411
1488.92030	0.04255
1486.99165	0.04121
1485.06299	0.04019
1483.13434	0.03954
1481.20569	0.03917
1479.27704	0.03909
1477.34838	0.03929
1475.41973	0.03977
1473.49108	0.04036
1471.56242	0.04111
1469.63377	0.04205
1467.70512	0.04303
1465.77646	0.04402
1463.84781	0.04514
1461.91916	0.04637
1459.99050	0.04756
1458.06185	0.04861
1456.13320	0.04966
1454.20454	0.05061
1452.27589	0.05122
1450.34724	0.05154
1448.41858	0.05150
1446.48993	0.05124
1444.56128	0.05091
1442.63262	0.05051
1440.70397	0.05008
1438.77532	0.04951
1436.84666	0.04863
1434.91801	0.04759
1432.98936	0.04644
1431.06070	0.04541
1429.13205	0.04468
1427.20340	0.04420
1425.27474	0.04386
1423.34609	0.04366
1421.41744	0.04352
1419.48878	0.04337
1417.56013	0.04333
1415.63148	0.04335
1413.70283	0.04339
1411.77417	0.04346
1409.84552	0.04360
1407.91687	0.04393
1405.98821	0.04435
1404.05956	0.04465
1402.13091	0.04471
1400.20225	0.04460
1398.27360	0.04448
1396.34495	0.04430
1394.41629	0.04404
1392.48764	0.04388
1390.55899	0.04379
1388.63033	0.04364
1386.70168	0.04347
1384.77303	0.04330
1382.84437	0.04307
1380.91572	0.04280
1378.98707	0.04252
1377.05841	0.04222
1375.12976	0.04183
1373.20111	0.04138
1371.27245	0.04087
1369.34380	0.04025
1367.41515	0.03959
1365.48649	0.03891
1363.55784	0.03822
1361.62919	0.03765
1359.70053	0.03724
1357.77188	0.03699
1355.84323	0.03696
1353.91457	0.03710
1351.98592	0.03733
1350.05727	0.03772
1348.12861	0.03830
1346.19996	0.03897
1344.27131	0.03963
1342.34266	0.04027
1340.41400	0.04086
1338.48535	0.04130
1336.55670	0.04152
1334.62804	0.04145
1332.69939	0.04107
1330.77074	0.04050
1328.84208	0.03989
1326.91343	0.03937
1324.98478	0.03898
1323.05612	0.03872
1321.12747	0.03858
1319.19882	0.03846
1317.27016	0.03826
1315.34151	0.03795
1313.41286	0.03757
1311.48420	0.03724
1309.55555	0.03702
1307.62690	0.03686
1305.69824	0.03667
1303.76959	0.03649
1301.84094	0.03633
1299.91228	0.03613
1297.98363	0.03594
1296.05498	0.03591
1294.12632	0.03607
1292.19767	0.03635
1290.26902	0.03676
1288.34036	0.03726
1286.41171	0.03776
1284.48306	0.03817
1282.55440	0.03849
1280.62575	0.03871
1278.69710	0.03885
1276.76845	0.03899
1274.83979	0.03915
1272.91114	0.03930
1270.98249	0.03943
1269.05383	0.03956
1267.12518	0.03975
1265.19653	0.04001
1263.26787	0.04033
1261.33922	0.04066
1259.41057	0.04107
1257.48191	0.04158
1255.55326	0.04221
1253.62461	0.04290
1251.69595	0.04360
1249.76730	0.04437
1247.83865	0.04521
1245.90999	0.04605
1243.98134	0.04683
1242.05269	0.04760
1240.12403	0.04830
1238.19538	0.04880
1236.26673	0.04914
1234.33807	0.04940
1232.40942	0.04943
1230.48077	0.04914
1228.55211	0.04863
1226.62346	0.04793
1224.69481	0.04701
1222.76615	0.04594
1220.83750	0.04492
1218.90885	0.04404
1216.98019	0.04334
1215.05154	0.04285
1213.12289	0.04256
1211.19423	0.04246
1209.26558	0.04254
1207.33693	0.04276
1205.40828	0.04300
1203.47962	0.04306
1201.55097	0.04291
1199.62232	0.04268
1197.69366	0.04215
1195.76501	0.04151
1193.83636	0.04086
1191.90770	0.04020
1189.97905	0.03946
1188.05040	0.03865
1186.12174	0.03796
1184.19309	0.03737
1182.26444	0.03686
1180.33578	0.03652
1178.40713	0.03635
1176.47848	0.03625
1174.54982	0.03613
1172.62117	0.03603
1170.69252	0.03600
1168.76386	0.03596
1166.83521	0.03589
1164.90656	0.03588
1162.97790	0.03585
1161.04925	0.03564
1159.12060	0.03526
1157.19194	0.03488
1155.26329	0.03455
1153.33464	0.03414
1151.40598	0.03355
1149.47733	0.03283
1147.54868	0.03208
1145.62002	0.03153
1143.69137	0.03121
1141.76272	0.03092
1139.83406	0.03056
1137.90541	0.03018
1135.97676	0.02986
1134.04811	0.02965
1132.11945	0.02952
1130.19080	0.02939
1128.26215	0.02922
1126.33349	0.02902
1124.40484	0.02886
1122.47619	0.02878
1120.54753	0.02870
1118.61888	0.02861
1116.69023	0.02860
1114.76157	0.02858
1112.83292	0.02847
1110.90427	0.02844
1108.97561	0.02863
1107.04696	0.02882
1105.11831	0.02887
1103.18965	0.02898
1101.26100	0.02929
1099.33235	0.02978
1097.40369	0.03028
1095.47504	0.03060
1093.54639	0.03087
1091.61773	0.03137
1089.68908	0.03205
1087.76043	0.03272
1085.83177	0.03334
1083.90312	0.03404
1081.97447	0.03470
1080.04581	0.03510
1078.11716	0.03520
1076.18851	0.03502
1074.25985	0.03465
1072.33120	0.03432
1070.40255	0.03417
1068.47390	0.03420
1066.54524	0.03427
1064.61659	0.03424
1062.68794	0.03409
1060.75928	0.03390
1058.83063	0.03371
1056.90198	0.03350
1054.97332	0.03332
1053.04467	0.03323
1051.11602	0.03308
1049.18736	0.03273
1047.25871	0.03233
1045.33006	0.03206
1043.40140	0.03189
1041.47275	0.03180
1039.54410	0.03185
1037.61544	0.03213
1035.68679	0.03247
1033.75814	0.03273
1031.82948	0.03278
1029.90083	0.03256
1027.97218	0.03213
1026.04352	0.03165
1024.11487	0.03123
1022.18622	0.03084
1020.25756	0.03037
1018.32891	0.02987
1016.40026	0.02947
1014.47160	0.02913
1012.54295	0.02876
1010.61430	0.02834
1008.68564	0.02788
1006.75699	0.02752
1004.82834	0.02728
1002.89968	0.02702
1000.97103	0.02667
999.04238	0.02628
997.11373	0.02596
995.18507	0.02571
993.25642	0.02540
991.32777	0.02506
989.39911	0.02479
987.47046	0.02462
985.54181	0.02452
983.61315	0.02448
981.68450	0.02444
979.75585	0.02438
977.82719	0.02435
975.89854	0.02435
973.96989	0.02434
972.04123	0.02435
970.11258	0.02427
968.18393	0.02408
966.25527	0.02393
964.32662	0.02378
962.39797	0.02355
960.46931	0.02336
958.54066	0.02325
956.61201	0.02311
954.68335	0.02285
952.75470	0.02265
950.82605	0.02266
948.89739	0.02276
946.96874	0.02279
945.04009	0.02271
943.11143	0.02272
941.18278	0.02286
939.25413	0.02290
937.32547	0.02282
935.39682	0.02278
933.46817	0.02283
931.53952	0.02285
929.61086	0.02281
927.68221	0.02272
925.75356	0.02261
923.82490	0.02264
921.89625	0.02276
919.96760	0.02272
918.03894	0.02253
916.11029	0.02238
914.18164	0.02228
912.25298	0.02209
910.32433	0.02184
908.39568	0.02169
906.46702	0.02158
904.53837	0.02137
902.60972	0.02118
900.68106	0.02130
898.75241	0.02163
896.82376	0.02177
894.89510	0.02165
892.96645	0.02142
891.03780	0.02116
889.10914	0.02092
887.18049	0.02080
885.25184	0.02082
883.32318	0.02090
881.39453	0.02104
879.46588	0.02115
877.53722	0.02114
875.60857	0.02116
873.67992	0.02128
871.75126	0.02133
869.82261	0.02129
867.89396	0.02126
865.96530	0.02123
864.03665	0.02120
862.10800	0.02119
860.17935	0.02107
858.25069	0.02090
856.32204	0.02087
854.39339	0.02090
852.46473	0.02090
850.53608	0.02103
848.60743	0.02124
846.67877	0.02138
844.75012	0.02143
842.82147	0.02127
840.89281	0.02085
838.96416	0.02048
837.03551	0.02040
835.10685	0.02059
833.17820	0.02088
831.24955	0.02111
829.32089	0.02126
827.39224	0.02128
825.46359	0.02117
823.53493	0.02104
821.60628	0.02109
819.67763	0.02135
817.74897	0.02176
815.82032	0.02222
813.89167	0.02244
811.96301	0.02231
810.03436	0.02205
808.10571	0.02194
806.17705	0.02202
804.24840	0.02223
802.31975	0.02250
800.39109	0.02279
798.46244	0.02304
796.53379	0.02322
794.60513	0.02327
792.67648	0.02317
790.74783	0.02313
788.81918	0.02319
786.89052	0.02328
784.96187	0.02348
783.03322	0.02386
781.10456	0.02429
779.17591	0.02456
777.24726	0.02466
775.31860	0.02466
773.38995	0.02476
771.46130	0.02510
769.53264	0.02548
767.60399	0.02563
765.67534	0.02567
763.74668	0.02586
761.81803	0.02609
759.88938	0.02612
757.96072	0.02610
756.03207	0.02631
754.10342	0.02670
752.17476	0.02701
750.24611	0.02714
748.31746	0.02719
746.38880	0.02726
744.46015	0.02749
742.53150	0.02792
740.60284	0.02824
738.67419	0.02822
736.74554	0.02826
734.81688	0.02857
732.88823	0.02895
730.95958	0.02934
729.03092	0.02970
727.10227	0.02988
725.17362	0.02991
723.24497	0.03002
721.31631	0.03027
719.38766	0.03048
717.45901	0.03069
715.53035	0.03087
713.60170	0.03098
711.67305	0.03114
709.74439	0.03144
707.81574	0.03181
705.88709	0.03211
703.95843	0.03225
702.02978	0.03229
700.10113	0.03238
698.17247	0.03260
696.24382	0.03288
694.31517	0.03313
692.38651	0.03325
690.45786	0.03320
688.52921	0.03314
686.60055	0.03324
684.67190	0.03343
682.74325	0.03367
680.81459	0.03405
678.88594	0.03450
676.95729	0.03480
675.02863	0.03484
673.09998	0.03476
671.17133	0.03478
669.24267	0.03501
667.31402	0.03511
665.38537	0.03538
663.45671	0.03556
661.52806	0.03571
659.59941	0.03594
657.67075	0.03620
655.74210	0.03626
653.81345	0.03602
651.88480	0.03580
649.95614	0.03593
648.02749	0.03633
646.09884	0.03676
644.17018	0.03699
642.24153	0.03693
640.31288	0.03662
638.38422	0.03636
636.45557	0.03642
634.52692	0.03676
632.59826	0.03704
630.66961	0.03762
628.74096	0.03950
626.81230	0.03772
624.88365	0.03503
622.95500	0.03295
621.02634	0.03139
619.09769	0.03074
617.16904	0.03292
615.24038	0.03740
613.31173	0.04018
611.38308	0.03949
609.45442	0.03775
607.52577	0.03659
605.59712	0.03528
603.66846	0.03414
601.73981	0.03475
599.81116	0.03678
597.88250	0.03835
595.95385	0.03866
594.02520	0.03843
592.09654	0.03845
590.16789	0.03853
588.23924	0.03832
586.31059	0.03817
584.38193	0.03833
582.45328	0.03836
580.52463	0.03812
578.59597	0.03793
576.66732	0.03794
574.73867	0.03814
572.81001	0.03838
570.88136	0.03842
568.95271	0.03833
567.02405	0.03844
565.09540	0.03865
563.16675	0.03871
561.23809	0.03878
559.30944	0.03892
557.38079	0.03898
555.45213	0.03907
553.52348	0.03940
551.59483	0.03970
549.66617	0.03963
547.73752	0.03946
545.80887	0.03941
543.88021	0.03923
541.95156	0.03888
540.02291	0.03875
538.09425	0.03898
536.16560	0.03930
534.23695	0.03954
532.30829	0.03962
530.37964	0.03946
528.45099	0.03915
526.52233	0.03893
524.59368	0.03874
522.66503	0.03840
520.73637	0.03818
518.80772	0.03839
516.87907	0.03882
514.95042	0.03914
513.02176	0.03920
511.09311	0.03885
509.16446	0.03814
507.23580	0.03732
505.30715	0.03674
503.37850	0.03683
501.44984	0.03776
499.52119	0.03873
497.59254	0.03873
495.66388	0.03784
493.73523	0.03689
491.80658	0.03629
489.87792	0.03595
487.94927	0.03581
486.02062	0.03590
484.09196	0.03602
482.16331	0.03591
480.23466	0.03553
478.30600	0.03516
476.37735	0.03509
474.44870	0.03514
472.52004	0.03494
470.59139	0.03451
468.66274	0.03407
466.73408	0.03382
464.80543	0.03369
462.87678	0.03352
460.94812	0.03328
459.01947	0.03305
457.09082	0.03286
455.16216	0.03265
453.23351	0.03239
451.30486	0.03214
449.37620	0.03190
447.44755	0.03161
445.51890	0.03136
443.59025	0.03123
441.66159	0.03119
439.73294	0.03113
437.80429	0.03104
435.87563	0.03090
433.94698	0.03071
432.01833	0.03049
430.08967	0.03027
428.16102	0.03001
426.23237	0.02971
424.30371	0.02951
422.37506	0.02951
420.44641	0.02951
418.51775	0.02939
416.58910	0.02916
414.66045	0.02880
412.73179	0.02849
410.80314	0.02825
408.87449	0.02808
406.94583	0.02807
405.01718	0.02820
403.08853	0.02835
401.15987	0.02845
399.23122	0.02847
