3996.16951	0.07313
3994.24086	0.07311
3992.31220	0.07293
3990.38355	0.07297
3988.45490	0.07310
3986.52624	0.07274
3984.59759	0.07203
3982.66894	0.07199
3980.74028	0.07278
3978.81163	0.07327
3976.88298	0.07299
3974.95432	0.07256
3973.02567	0.07244
3971.09702	0.07238
3969.16836	0.07219
3967.23971	0.07213
3965.31106	0.07208
3963.38240	0.07170
3961.45375	0.07142
3959.52510	0.07161
3957.59645	0.07207
3955.66779	0.07273
3953.73914	0.07328
3951.81049	0.07322
3949.88183	0.07272
3947.95318	0.07219
3946.02453	0.07181
3944.09587	0.07159
3942.16722	0.07152
3940.23857	0.07136
3938.30991	0.07081
3936.38126	0.07017
3934.45261	0.06993
3932.52395	0.06991
3930.59530	0.06975
3928.66665	0.06960
3926.73799	0.06948
3924.80934	0.06925
3922.88069	0.06909
3920.95203	0.06910
3919.02338	0.06917
3917.09473	0.06929
3915.16607	0.06933
3913.23742	0.06908
3911.30877	0.06894
3909.38011	0.06938
3907.45146	0.06976
3905.52281	0.06948
3903.59415	0.06922
3901.66550	0.06937
3899.73685	0.06919
3897.80819	0.06851
3895.87954	0.06791
3893.95089	0.06777
3892.02224	0.06796
3890.09358	0.06806
3888.16493	0.06798
3886.23628	0.06792
3884.30762	0.06771
3882.37897	0.06731
3880.45032	0.06696
3878.52166	0.06687
3876.59301	0.06714
3874.66436	0.06745
3872.73570	0.06764
3870.80705	0.06794
3868.87840	0.06827
3866.94974	0.06828
3865.02109	0.06792
3863.09244	0.06733
3861.16378	0.06657
3859.23513	0.06602
3857.30648	0.06617
3855.37782	0.06694
3853.44917	0.06770
3851.52052	0.06794
3849.59186	0.06755
3847.66321	0.06672
3845.73456	0.06558
3843.80590	0.06447
3841.87725	0.06411
3839.94860	0.06481
3838.01994	0.06547
3836.09129	0.06505
3834.16264	0.06439
3832.23398	0.06442
3830.30533	0.06473
3828.37668	0.06467
3826.44803	0.06406
3824.51937	0.06322
3822.59072	0.06295
3820.66207	0.06355
3818.73341	0.06415
3816.80476	0.06433
3814.87611	0.06448
3812.94745	0.06427
3811.01880	0.06353
3809.09015	0.06296
3807.16149	0.06279
3805.23284	0.06250
3803.30419	0.06189
3801.37553	0.06153
3799.44688	0.06182
3797.51823	0.06236
3795.58957	0.06247
3793.66092	0.06215
3791.73227	0.06217
3789.80361	0.06278
3787.87496	0.06335
3785.94631	0.06322
3784.01765	0.06232
3782.08900	0.06148
3780.16035	0.06129
3778.23169	0.06115
3776.30304	0.06069
3774.37439	0.06071
3772.44573	0.06133
3770.51708	0.06155
3768.58843	0.06136
3766.65977	0.06133
3764.73112	0.06113
3762.80247	0.06058
3760.87381	0.06013
3758.94516	0.06013
3757.01651	0.06034
3755.08786	0.06033
3753.15920	0.06038
3751.23055	0.06089
3749.30190	0.06134
3747.37324	0.06118
3745.44459	0.06070
3743.51594	0.06020
3741.58728	0.05983
3739.65863	0.05970
3737.72998	0.05971
3735.80132	0.05961
3733.87267	0.05915
3731.94402	0.05838
3730.01536	0.05753
3728.08671	0.05727
3726.15806	0.05773
3724.22940	0.05814
3722.30075	0.05788
3720.37210	0.05720
3718.44344	0.05694
3716.51479	0.05728
3714.58614	0.05729
3712.65748	0.05679
3710.72883	0.05667
3708.80018	0.05685
3706.87152	0.05676
3704.94287	0.05657
3703.01422	0.05659
3701.08556	0.05669
3699.15691	0.05656
3697.22826	0.05636
3695.29960	0.05633
3693.37095	0.05658
3691.44230	0.05702
3689.51365	0.05733
3687.58499	0.05724
3685.65634	0.05674
3683.72769	0.05619
3681.79903	0.05594
3679.87038	0.05588
3677.94173	0.05582
3676.01307	0.05572
3674.08442	0.05555
3672.15577	0.05561
3670.22711	0.05612
3668.29846	0.05673
3666.36981	0.05688
3664.44115	0.05671
3662.51250	0.05691
3660.58385	0.05760
3658.65519	0.05835
3656.72654	0.05880
3654.79789	0.05867
3652.86923	0.05835
3650.94058	0.05862
3649.01193	0.05932
3647.08327	0.05988
3645.15462	0.06053
3643.22597	0.06125
3641.29731	0.06150
3639.36866	0.06152
3637.44001	0.06182
3635.51135	0.06217
3633.58270	0.06188
3631.65405	0.06128
3629.72539	0.06144
3627.79674	0.06237
3625.86809	0.06308
3623.93943	0.06356
3622.01078	0.06443
3620.08213	0.06579
3618.15348	0.06698
3616.22482	0.06748
3614.29617	0.06757
3612.36752	0.06792
3610.43886	0.06899
3608.51021	0.07022
3606.58156	0.07073
3604.65290	0.07063
3602.72425	0.07076
3600.79560	0.07120
3598.86694	0.07163
3596.93829	0.07198
3595.00964	0.07250
3593.08098	0.07333
3591.15233	0.07399
3589.22368	0.07413
3587.29502	0.07426
3585.36637	0.07504
3583.43772	0.07622
3581.50906	0.07721
3579.58041	0.07795
3577.65176	0.07884
3575.72310	0.08002
3573.79445	0.08088
3571.86580	0.08123
3569.93714	0.08164
3568.00849	0.08226
3566.07984	0.08276
3564.15118	0.08340
3562.22253	0.08448
3560.29388	0.08551
3558.36522	0.08625
3556.43657	0.08694
3554.50792	0.08762
3552.57927	0.08840
3550.65061	0.08948
3548.72196	0.09077
3546.79331	0.09194
3544.86465	0.09278
3542.93600	0.09345
3541.00735	0.09391
3539.07869	0.09416
3537.15004	0.09462
3535.22139	0.09532
3533.29273	0.09612
3531.36408	0.09713
3529.43543	0.09819
3527.50677	0.09911
3525.57812	0.09984
3523.64947	0.10046
3521.72081	0.10118
3519.79216	0.10202
3517.86351	0.10286
3515.93485	0.10366
3514.00620	0.10433
3512.07755	0.10478
3510.14889	0.10519
3508.22024	0.10576
3506.29159	0.10662
3504.36293	0.10755
3502.43428	0.10815
3500.50563	0.10866
3498.57697	0.10951
3496.64832	0.11029
3494.71967	0.11076
3492.79101	0.11153
3490.86236	0.11273
3488.93371	0.11369
3487.00506	0.11408
3485.07640	0.11425
3483.14775	0.11450
3481.21910	0.11470
3479.29044	0.11497
3477.36179	0.11564
3475.43314	0.11649
3473.50448	0.11716
3471.57583	0.11757
3469.64718	0.11786
3467.71852	0.11843
3465.78987	0.11952
3463.86122	0.12056
3461.93256	0.12105
3460.00391	0.12133
3458.07526	0.12171
3456.14660	0.12207
3454.21795	0.12245
3452.28930	0.12309
3450.36064	0.12395
3448.43199	0.12466
3446.50334	0.12497
3444.57468	0.12513
3442.64603	0.12560
3440.71738	0.12625
3438.78872	0.12668
3436.86007	0.12706
3434.93142	0.12763
3433.00276	0.12860
3431.07411	0.12991
3429.14546	0.13085
3427.21680	0.13106
3425.28815	0.13114
3423.35950	0.13156
3421.43084	0.13212
3419.50219	0.13265
3417.57354	0.13316
3415.64489	0.13381
3413.71623	0.13457
3411.78758	0.13523
3409.85893	0.13590
3407.93027	0.13649
3406.00162	0.13651
3404.07297	0.13619
3402.14431	0.13631
3400.21566	0.13707
3398.28701	0.13801
3396.35835	0.13893
3394.42970	0.13982
3392.50105	0.14027
3390.57239	0.14013
3388.64374	0.14011
3386.71509	0.14061
3384.78643	0.14120
3382.85778	0.14163
3380.92913	0.14209
3379.00047	0.14268
3377.07182	0.14337
3375.14317	0.14409
3373.21451	0.14492
3371.28586	0.14590
3369.35721	0.14694
3367.42855	0.14791
3365.49990	0.14884
3363.57125	0.14995
3361.64259	0.15120
3359.71394	0.15214
3357.78529	0.15297
3355.85663	0.15428
3353.92798	0.15576
3351.99933	0.15695
3350.07068	0.15813
3348.14202	0.15954
3346.21337	0.16090
3344.28472	0.16203
3342.35606	0.16323
3340.42741	0.16451
3338.49876	0.16561
3336.57010	0.16657
3334.64145	0.16745
3332.71280	0.16826
3330.78414	0.16922
3328.85549	0.17041
3326.92684	0.17158
3324.99818	0.17247
3323.06953	0.17322
3321.14088	0.17395
3319.21222	0.17438
3317.28357	0.17456
3315.35492	0.17500
3313.42626	0.17582
3311.49761	0.17661
3309.56896	0.17731
3307.64030	0.17797
3305.71165	0.17833
3303.78300	0.17832
3301.85434	0.17823
3299.92569	0.17818
3297.99704	0.17817
3296.06838	0.17811
3294.13973	0.17810
3292.21108	0.17818
3290.28242	0.17813
3288.35377	0.17784
3286.42512	0.17738
3284.49646	0.17704
3282.56781	0.17713
3280.63916	0.17735
3278.71051	0.17722
3276.78185	0.17679
3274.85320	0.17633
3272.92455	0.17579
3270.99589	0.17507
3269.06724	0.17418
3267.13859	0.17345
3265.20993	0.17310
3263.28128	0.17273
3261.35263	0.17193
3259.42397	0.17109
3257.49532	0.17049
3255.56667	0.16973
3253.63801	0.16872
3251.70936	0.16790
3249.78071	0.16726
3247.85205	0.16650
3245.92340	0.16581
3243.99475	0.16540
3242.06609	0.16496
3240.13744	0.16431
3238.20879	0.16380
3236.28013	0.16352
3234.35148	0.16289
3232.42283	0.16181
3230.49417	0.16095
3228.56552	0.16071
3226.63687	0.16067
3224.70821	0.16031
3222.77956	0.15961
3220.85091	0.15887
3218.92225	0.15842
3216.99360	0.15806
3215.06495	0.15750
3213.13630	0.15707
3211.20764	0.15676
3209.27899	0.15602
3207.35034	0.15510
3205.42168	0.15456
3203.49303	0.15426
3201.56438	0.15385
3199.63572	0.15327
3197.70707	0.15251
3195.77842	0.15157
3193.84976	0.15056
3191.92111	0.14983
3189.99246	0.14943
3188.06380	0.14899
3186.13515	0.14830
3184.20650	0.14733
3182.27784	0.14622
3180.34919	0.14513
3178.42054	0.14412
3176.49188	0.14312
3174.56323	0.14213
3172.63458	0.14122
3170.70592	0.14032
3168.77727	0.13936
3166.84862	0.13838
3164.91996	0.13750
3162.99131	0.13675
3161.06266	0.13593
3159.13400	0.13499
3157.20535	0.13402
3155.27670	0.13304
3153.34804	0.13203
3151.41939	0.13114
3149.49074	0.13037
3147.56209	0.12965
3145.63343	0.12910
3143.70478	0.12850
3141.77613	0.12767
3139.84747	0.12688
3137.91882	0.12615
3135.99017	0.12525
3134.06151	0.12414
3132.13286	0.12311
3130.20421	0.12254
3128.27555	0.12238
3126.34690	0.12219
3124.41825	0.12175
3122.48959	0.12104
3120.56094	0.12047
3118.63229	0.12051
3116.70363	0.12078
3114.77498	0.12068
3112.84633	0.12043
3110.91767	0.12040
3108.98902	0.12044
3107.06037	0.12050
3105.13171	0.12067
3103.20306	0.12085
3101.27441	0.12097
3099.34575	0.12103
3097.41710	0.12101
3095.48845	0.12098
3093.55979	0.12123
3091.63114	0.12188
3089.70249	0.12254
3087.77383	0.12287
3085.84518	0.12288
3083.91653	0.12290
3081.98787	0.12308
3080.05922	0.12330
3078.13057	0.12354
3076.20192	0.12372
3074.27326	0.12355
3072.34461	0.12311
3070.41596	0.12275
3068.48730	0.12256
3066.55865	0.12233
3064.63000	0.12194
3062.70134	0.12148
3060.77269	0.12100
3058.84404	0.12052
3056.91538	0.11999
3054.98673	0.11936
3053.05808	0.11869
3051.12942	0.11810
3049.20077	0.11749
3047.27212	0.11666
3045.34346	0.11558
3043.41481	0.11441
3041.48616	0.11341
3039.55750	0.11258
3037.62885	0.11173
3035.70020	0.11085
3033.77154	0.11008
3031.84289	0.10947
3029.91424	0.10901
3027.98558	0.10857
3026.05693	0.10797
3024.12828	0.10724
3022.19962	0.10640
3020.27097	0.10540
3018.34232	0.10443
3016.41366	0.10376
3014.48501	0.10338
3012.55636	0.10314
3010.62771	0.10297
3008.69905	0.10297
3006.77040	0.10304
3004.84175	0.10289
3002.91309	0.10253
3000.98444	0.10231
2999.05579	0.10240
2997.12713	0.10265
2995.19848	0.10304
2993.26983	0.10347
2991.34117	0.10374
2989.41252	0.10409
2987.48387	0.10467
2985.55521	0.10517
2983.62656	0.10559
2981.69791	0.10622
2979.76925	0.10698
2977.84060	0.10747
2975.91195	0.10772
2973.98329	0.10807
2972.05464	0.10857
2970.12599	0.10907
2968.19733	0.10951
2966.26868	0.10988
2964.34003	0.11025
2962.41137	0.11082
2960.48272	0.11153
2958.55407	0.11198
2956.62541	0.11209
2954.69676	0.11219
2952.76811	0.11234
2950.83945	0.11227
2948.91080	0.11213
2946.98215	0.11228
2945.05349	0.11263
2943.12484	0.11302
2941.19619	0.11361
2939.26754	0.11440
2937.33888	0.11504
2935.41023	0.11537
2933.48158	0.11552
2931.55292	0.11561
2929.62427	0.11576
2927.69562	0.11607
2925.76696	0.11623
2923.83831	0.11601
2921.90966	0.11543
2919.98100	0.11450
2918.05235	0.11336
2916.12370	0.11203
2914.19504	0.11041
2912.26639	0.10864
2910.33774	0.10688
2908.40908	0.10523
2906.48043	0.10389
2904.55178	0.10286
2902.62312	0.10203
2900.69447	0.10145
2898.76582	0.10097
2896.83716	0.10040
2894.90851	0.09985
2892.97986	0.09933
2891.05120	0.09895
2889.12255	0.09897
2887.19390	0.09922
2885.26524	0.09940
2883.33659	0.09935
2881.40794	0.09910
2879.47928	0.09890
2877.55063	0.09879
2875.62198	0.09866
2873.69333	0.09837
2871.76467	0.09787
2869.83602	0.09731
2867.90737	0.09676
2865.97871	0.09611
2864.05006	0.09543
2862.12141	0.09478
2860.19275	0.09425
2858.26410	0.09388
2856.33545	0.09372
2854.40679	0.09376
2852.47814	0.09372
2850.54949	0.09324
2848.62083	0.09219
2846.69218	0.09089
2844.76353	0.08971
2842.83487	0.08860
2840.90622	0.08755
2838.97757	0.08671
2837.04891	0.08608
2835.12026	0.08561
2833.19161	0.08518
2831.26295	0.08470
2829.33430	0.08412
2827.40565	0.08348
2825.47699	0.08295
2823.54834	0.08257
2821.61969	0.08218
2819.69103	0.08179
2817.76238	0.08154
2815.83373	0.08133
2813.90507	0.08109
2811.97642	0.08089
2810.04777	0.08061
2808.11912	0.08017
2806.19046	0.07982
2804.26181	0.07960
2802.33316	0.07939
2800.40450	0.07924
2798.47585	0.07910
2796.54720	0.07875
2794.61854	0.07833
2792.68989	0.07808
2790.76124	0.07781
2788.83258	0.07729
2786.90393	0.07675
2784.97528	0.07653
2783.04662	0.07651
2781.11797	0.07632
2779.18932	0.07592
2777.26066	0.07567
2775.33201	0.07570
2773.40336	0.07568
2771.47470	0.07531
2769.54605	0.07470
2767.61740	0.07409
2765.68874	0.07367
2763.76009	0.07351
2761.83144	0.07350
2759.90278	0.07346
2757.97413	0.07324
2756.04548	0.07282
2754.11682	0.07241
2752.18817	0.07218
2750.25952	0.07200
2748.33086	0.07176
2746.40221	0.07163
2744.47356	0.07159
2742.54490	0.07138
2740.61625	0.07097
2738.68760	0.07056
2736.75895	0.07037
2734.83029	0.07026
2732.90164	0.07013
2730.97299	0.07001
2729.04433	0.06983
2727.11568	0.06963
2725.18703	0.06951
2723.25837	0.06939
2721.32972	0.06923
2719.40107	0.06892
2717.47241	0.06842
2715.54376	0.06802
2713.61511	0.06786
2711.68645	0.06771
2709.75780	0.06755
2707.82915	0.06746
2705.90049	0.06737
2703.97184	0.06719
2702.04319	0.06696
2700.11453	0.06674
2698.18588	0.06653
2696.25723	0.06624
2694.32857	0.06581
2692.39992	0.06543
2690.47127	0.06536
2688.54261	0.06543
2686.61396	0.06536
2684.68531	0.06518
2682.75665	0.06503
2680.82800	0.06486
2678.89935	0.06468
2676.97069	0.06459
2675.04204	0.06449
2673.11339	0.06439
2671.18474	0.06432
2669.25608	0.06418
2667.32743	0.06397
2665.39878	0.06381
2663.47012	0.06379
2661.54147	0.06372
2659.61282	0.06333
2657.68416	0.06276
2655.75551	0.06229
2653.82686	0.06194
2651.89820	0.06174
2649.96955	0.06167
2648.04090	0.06149
2646.11224	0.06115
2644.18359	0.06073
2642.25494	0.06025
2640.32628	0.05985
2638.39763	0.05960
2636.46898	0.05928
2634.54032	0.05883
2632.61167	0.05831
2630.68302	0.05782
2628.75436	0.05749
2626.82571	0.05730
2624.89706	0.05714
2622.96840	0.05694
2621.03975	0.05669
2619.11110	0.05639
2617.18244	0.05604
2615.25379	0.05570
2613.32514	0.05540
2611.39648	0.05513
2609.46783	0.05484
2607.53918	0.05447
2605.61052	0.05419
2603.68187	0.05412
2601.75322	0.05420
2599.82457	0.05412
2597.89591	0.05368
2595.96726	0.05320
2594.03861	0.05308
2592.10995	0.05322
2590.18130	0.05319
2588.25265	0.05269
2586.32399	0.05204
2584.39534	0.05164
2582.46669	0.05163
2580.53803	0.05162
2578.60938	0.05115
2576.68073	0.05068
2574.75207	0.05067
2572.82342	0.05079
2570.89477	0.05080
2568.96611	0.05072
2567.03746	0.05039
2565.10881	0.04984
2563.18015	0.04948
2561.25150	0.04933
2559.32285	0.04921
2557.39419	0.04922
2555.46554	0.04948
2553.53689	0.04975
2551.60823	0.04961
2549.67958	0.04913
2547.75093	0.04884
2545.82227	0.04885
2543.89362	0.04891
2541.96497	0.04873
2540.03631	0.04842
2538.10766	0.04832
2536.17901	0.04811
2534.25036	0.04762
2532.32170	0.04747
2530.39305	0.04767
2528.46440	0.04762
2526.53574	0.04730
2524.60709	0.04704
2522.67844	0.04691
2520.74978	0.04677
2518.82113	0.04660
2516.89248	0.04652
2514.96382	0.04647
2513.03517	0.04643
2511.10652	0.04621
2509.17786	0.04577
2507.24921	0.04555
2505.32056	0.04561
2503.39190	0.04558
2501.46325	0.04541
2499.53460	0.04518
2497.60594	0.04493
2495.67729	0.04493
2493.74864	0.04535
2491.81998	0.04571
2489.89133	0.04552
2487.96268	0.04506
2486.03402	0.04493
2484.10537	0.04506
2482.17672	0.04499
2480.24806	0.04466
2478.31941	0.04435
2476.39076	0.04411
2474.46210	0.04387
2472.53345	0.04365
2470.60480	0.04368
2468.67615	0.04389
2466.74749	0.04396
2464.81884	0.04392
2462.89019	0.04389
2460.96153	0.04367
2459.03288	0.04328
2457.10423	0.04302
2455.17557	0.04291
2453.24692	0.04278
2451.31827	0.04270
2449.38961	0.04268
2447.46096	0.04248
2445.53231	0.04228
2443.60365	0.04226
2441.67500	0.04228
2439.74635	0.04240
2437.81769	0.04266
2435.88904	0.04274
2433.96039	0.04256
2432.03173	0.04242
2430.10308	0.04247
2428.17443	0.04235
2426.24577	0.04195
2424.31712	0.04182
2422.38847	0.04210
2420.45981	0.04224
2418.53116	0.04236
2416.60251	0.04269
2414.67385	0.04274
2412.74520	0.04243
2410.81655	0.04217
2408.88789	0.04204
2406.95924	0.04187
2405.03059	0.04162
2403.10193	0.04146
2401.17328	0.04154
2399.24463	0.04158
2397.31598	0.04152
2395.38732	0.04158
2393.45867	0.04204
2391.53002	0.04252
2389.60136	0.04258
2387.67271	0.04247
2385.74406	0.04250
2383.81540	0.04252
2381.88675	0.04247
2379.95810	0.04257
2378.02944	0.04277
2376.10079	0.04264
2374.17214	0.04246
2372.24348	0.04235
2370.31483	0.04295
2368.38618	0.04207
2366.45752	0.04155
2364.52887	0.04173
2362.60022	0.04112
2360.67156	0.04237
2358.74291	0.04371
2356.81426	0.04293
2354.88560	0.04253
2352.95695	0.04289
2351.02830	0.04252
2349.09964	0.04230
2347.17099	0.04227
2345.24234	0.04247
2343.31368	0.04233
2341.38503	0.04181
2339.45638	0.04335
2337.52772	0.04177
2335.59907	0.04177
2333.67042	0.04203
2331.74177	0.04180
2329.81311	0.04140
2327.88446	0.04098
2325.95581	0.04069
2324.02715	0.04069
2322.09850	0.04096
2320.16985	0.04111
2318.24119	0.04092
2316.31254	0.04047
2314.38389	0.04002
2312.45523	0.03979
2310.52658	0.03979
2308.59793	0.03972
2306.66927	0.03936
2304.74062	0.03886
2302.81197	0.03823
2300.88331	0.03785
2298.95466	0.03767
2297.02601	0.03732
2295.09735	0.03677
2293.16870	0.03620
2291.24005	0.03574
2289.31139	0.03540
2287.38274	0.03516
2285.45409	0.03492
2283.52543	0.03469
2281.59678	0.03469
2279.66813	0.03471
2277.73947	0.03439
2275.81082	0.03388
2273.88217	0.03358
2271.95351	0.03350
2270.02486	0.03350
2268.09621	0.03335
2266.16755	0.03289
2264.23890	0.03253
2262.31025	0.03253
2260.38160	0.03243
2258.45294	0.03194
2256.52429	0.03152
2254.59564	0.03117
2252.66698	0.03045
2250.73833	0.02958
2248.80968	0.02936
2246.88102	0.02934
2244.95237	0.02925
2243.02372	0.02897
2241.09506	0.02882
2239.16641	0.02871
2237.23776	0.02845
2235.30910	0.02823
2233.38045	0.02813
2231.45180	0.02820
2229.52314	0.02861
2227.59449	0.02902
2225.66584	0.02874
2223.73718	0.02783
2221.80853	0.02693
2219.87988	0.02610
2217.95122	0.02546
2216.02257	0.02520
2214.09392	0.02482
2212.16526	0.02441
2210.23661	0.02438
2208.30796	0.02437
2206.37930	0.02383
2204.45065	0.02278
2202.52200	0.02232
2200.59334	0.02319
2198.66469	0.02423
2196.73604	0.02434
2194.80739	0.02383
2192.87873	0.02336
2190.95008	0.02326
2189.02143	0.02350
2187.09277	0.02348
2185.16412	0.02268
2183.23547	0.02173
2181.30681	0.02155
2179.37816	0.02185
2177.44951	0.02172
2175.52085	0.02038
2173.59220	0.01836
2171.66355	0.01726
2169.73489	0.01729
2167.80624	0.01771
2165.87759	0.01765
2163.94893	0.01671
2162.02028	0.01577
2160.09163	0.01565
2158.16297	0.01686
2156.23432	0.01883
2154.30567	0.01950
2152.37701	0.01883
2150.44836	0.01894
2148.51971	0.02017
2146.59105	0.02141
2144.66240	0.02245
2142.73375	0.02332
2140.80509	0.02398
2138.87644	0.02437
2136.94779	0.02435
2135.01913	0.02438
2133.09048	0.02485
2131.16183	0.02553
2129.23318	0.02608
2127.30452	0.02647
2125.37587	0.02697
2123.44722	0.02752
2121.51856	0.02762
2119.58991	0.02734
2117.66126	0.02702
2115.73260	0.02677
2113.80395	0.02671
2111.87530	0.02682
2109.94664	0.02686
2108.01799	0.02675
2106.08934	0.02653
2104.16068	0.02634
2102.23203	0.02574
2100.30338	0.02453
2098.37472	0.02382
2096.44607	0.02438
2094.51742	0.02542
2092.58876	0.02597
2090.66011	0.02601
2088.73146	0.02585
2086.80280	0.02564
2084.87415	0.02554
2082.94550	0.02547
2081.01684	0.02507
2079.08819	0.02420
2077.15954	0.02364
2075.23088	0.02359
2073.30223	0.02334
2071.37358	0.02287
2069.44492	0.02236
2067.51627	0.02163
2065.58762	0.02083
2063.65896	0.02016
2061.73031	0.01982
2059.80166	0.02002
2057.87301	0.02046
2055.94435	0.02075
2054.01570	0.02073
2052.08705	0.02026
2050.15839	0.01944
2048.22974	0.01877
2046.30109	0.01860
2044.37243	0.01860
2042.44378	0.01839
2040.51513	0.01792
2038.58647	0.01727
2036.65782	0.01697
2034.72917	0.01728
2032.80051	0.01718
2030.87186	0.01611
2028.94321	0.01469
2027.01455	0.01356
2025.08590	0.01314
2023.15725	0.01332
2021.22859	0.01401
2019.29994	0.01508
2017.37129	0.01569
2015.44263	0.01586
2013.51398	0.01641
2011.58533	0.01706
2009.65667	0.01701
2007.72802	0.01613
2005.79937	0.01532
2003.87071	0.01559
2001.94206	0.01648
2000.01341	0.01711
1998.08475	0.01750
1996.15610	0.01757
1994.22745	0.01731
1992.29880	0.01727
1990.37014	0.01748
1988.44149	0.01762
1986.51284	0.01793
1984.58418	0.01836
1982.65553	0.01833
1980.72688	0.01731
1978.79822	0.01562
1976.86957	0.01448
1974.94092	0.01429
1973.01226	0.01423
1971.08361	0.01419
1969.15496	0.01449
1967.22630	0.01494
1965.29765	0.01564
1963.36900	0.01679
1961.44034	0.01771
1959.51169	0.01789
1957.58304	0.01774
1955.65438	0.01768
1953.72573	0.01763
1951.79708	0.01750
1949.86842	0.01744
1947.93977	0.01780
1946.01112	0.01875
1944.08246	0.01988
1942.15381	0.02064
1940.22516	0.02108
1938.29650	0.02129
1936.36785	0.02102
1934.43920	0.02056
1932.51054	0.02034
1930.58189	0.02008
1928.65324	0.01964
1926.72458	0.01949
1924.79593	0.01999
1922.86728	0.02096
1920.93863	0.02152
1919.00997	0.02134
1917.08132	0.02126
1915.15267	0.02152
1913.22401	0.02170
1911.29536	0.02167
1909.36671	0.02144
1907.43805	0.02124
1905.50940	0.02132
1903.58075	0.02152
1901.65209	0.02161
1899.72344	0.02152
1897.79479	0.02130
1895.86613	0.02121
1893.93748	0.02118
1892.00883	0.02109
1890.08017	0.02126
1888.15152	0.02163
1886.22287	0.02172
1884.29421	0.02155
1882.36556	0.02147
1880.43691	0.02144
1878.50825	0.02137
1876.57960	0.02133
1874.65095	0.02140
1872.72229	0.02158
1870.79364	0.02165
1868.86499	0.02145
1866.93633	0.02129
1865.00768	0.02127
1863.07903	0.02124
1861.15037	0.02130
1859.22172	0.02143
1857.29307	0.02155
1855.36442	0.02171
1853.43576	0.02162
1851.50711	0.02116
1849.57846	0.02073
1847.64980	0.02064
1845.72115	0.02079
1843.79250	0.02101
1841.86384	0.02113
1839.93519	0.02100
1838.00654	0.02080
1836.07788	0.02077
1834.14923	0.02077
1832.22058	0.02066
1830.29192	0.02068
1828.36327	0.02090
1826.43462	0.02106
1824.50596	0.02096
1822.57731	0.02070
1820.64866	0.02050
1818.72000	0.02046
1816.79135	0.02054
1814.86270	0.02065
1812.93404	0.02067
1811.00539	0.02059
1809.07674	0.02046
1807.14808	0.02033
1805.21943	0.02025
1803.29078	0.02030
1801.36212	0.02041
1799.43347	0.02042
1797.50482	0.02035
1795.57616	0.02035
1793.64751	0.02037
1791.71886	0.02034
1789.79021	0.02027
1787.86155	0.02012
1785.93290	0.02001
1784.00425	0.02011
1782.07559	0.02024
1780.14694	0.02020
1778.21829	0.02003
1776.28963	0.01981
1774.36098	0.01968
1772.43233	0.01980
1770.50367	0.02000
1768.57502	0.02007
1766.64637	0.02005
1764.71771	0.02008
1762.78906	0.02015
1760.86041	0.02016
1758.93175	0.02014
1757.00310	0.02024
1755.07445	0.02046
1753.14579	0.02067
1751.21714	0.02093
1749.28849	0.02138
1747.35983	0.02186
1745.43118	0.02221
1743.50253	0.02257
1741.57387	0.02299
1739.64522	0.02335
1737.71657	0.02364
1735.78791	0.02402
1733.85926	0.02449
1731.93061	0.02491
1730.00195	0.02528
1728.07330	0.02574
1726.14465	0.02623
1724.21599	0.02669
1722.28734	0.02723
1720.35869	0.02779
1718.43004	0.02836
1716.50138	0.02913
1714.57273	0.03020
1712.64408	0.03149
1710.71542	0.03302
1708.78677	0.03491
1706.85812	0.03726
1704.92946	0.04010
1703.00081	0.04332
1701.07216	0.04695
1699.14350	0.05101
1697.21485	0.05529
1695.28620	0.05961
1693.35754	0.06385
1691.42889	0.06806
1689.50024	0.07237
1687.57158	0.07688
1685.64293	0.08171
1683.71428	0.08685
1681.78562	0.09224
1679.85697	0.09802
1677.92832	0.10424
1675.99966	0.11079
1674.07101	0.11755
1672.14236	0.12453
1670.21370	0.13181
1668.28505	0.13922
1666.35640	0.14644
1664.42774	0.15339
1662.49909	0.16011
1660.57044	0.16637
1658.64178	0.17192
1656.71313	0.17680
1654.78448	0.18122
1652.85583	0.18521
1650.92717	0.18853
1648.99852	0.19123
1647.06987	0.19371
1645.14121	0.19607
1643.21256	0.19817
1641.28391	0.20004
1639.35525	0.20179
1637.42660	0.20338
1635.49795	0.20463
1633.56929	0.20527
1631.64064	0.20513
1629.71199	0.20400
1627.78333	0.20161
1625.85468	0.19774
1623.92603	0.19245
1621.99737	0.18613
1620.06872	0.17930
1618.14007	0.17218
1616.21141	0.16490
1614.28276	0.15769
1612.35411	0.15069
1610.42545	0.14400
1608.49680	0.13764
1606.56815	0.13164
1604.63949	0.12606
1602.71084	0.12105
1600.78219	0.11664
1598.85353	0.11280
1596.92488	0.10947
1594.99623	0.10662
1593.06757	0.10428
1591.13892	0.10257
1589.21027	0.10148
1587.28161	0.10085
1585.35296	0.10058
1583.42431	0.10073
1581.49566	0.10143
1579.56700	0.10270
1577.63835	0.10451
1575.70970	0.10688
1573.78104	0.10975
1571.85239	0.11311
1569.92374	0.11697
1567.99508	0.12115
1566.06643	0.12549
1564.13778	0.12994
1562.20912	0.13446
1560.28047	0.13896
1558.35182	0.14334
1556.42316	0.14736
1554.49451	0.15083
1552.56586	0.15367
1550.63720	0.15589
1548.70855	0.15765
1546.77990	0.15906
1544.85124	0.16004
1542.92259	0.16048
1540.99394	0.16047
1539.06528	0.16014
1537.13663	0.15952
1535.20798	0.15859
1533.27932	0.15737
1531.35067	0.15590
1529.42202	0.15419
1527.49336	0.15229
1525.56471	0.15021
1523.63606	0.14798
1521.70740	0.14566
1519.77875	0.14329
1517.85010	0.14080
1515.92145	0.13804
1513.99279	0.13481
1512.06414	0.13110
1510.13549	0.12712
1508.20683	0.12297
1506.27818	0.11865
1504.34953	0.11433
1502.42087	0.11010
1500.49222	0.10594
1498.56357	0.10183
1496.63491	0.09784
1494.70626	0.09401
1492.77761	0.09040
1490.84895	0.08712
1488.92030	0.08428
1486.99165	0.08200
1485.06299	0.08034
1483.13434	0.07932
1481.20569	0.07889
1479.27703	0.07902
1477.34838	0.07968
1475.41973	0.08088
1473.49107	0.08258
1471.56242	0.08465
1469.63377	0.08693
1467.70511	0.08936
1465.77646	0.09182
1463.84781	0.09427
1461.91915	0.09675
1459.99050	0.09929
1458.06185	0.10185
1456.13319	0.10417
1454.20454	0.10594
1452.27589	0.10704
1450.34724	0.10740
1448.41858	0.10704
1446.48993	0.10618
1444.56128	0.10504
1442.63262	0.10368
1440.70397	0.10211
1438.77532	0.10029
1436.84666	0.09820
1434.91801	0.09590
1432.98936	0.09361
1431.06070	0.09158
1429.13205	0.09005
1427.20340	0.08906
1425.27474	0.08853
1423.34609	0.08828
1421.41744	0.08813
1419.48878	0.08803
1417.56013	0.08806
1415.63148	0.08824
1413.70282	0.08855
1411.77417	0.08898
1409.84552	0.08958
1407.91686	0.09035
1405.98821	0.09115
1404.05956	0.09179
1402.13090	0.09211
1400.20225	0.09208
1398.27360	0.09181
1396.34494	0.09145
1394.41629	0.09097
1392.48764	0.09043
1390.55898	0.08990
1388.63033	0.08938
1386.70168	0.08881
1384.77302	0.08820
1382.84437	0.08751
1380.91572	0.08679
1378.98707	0.08602
1377.05841	0.08511
1375.12976	0.08397
1373.20111	0.08263
1371.27245	0.08117
1369.34380	0.07964
1367.41515	0.07809
1365.48649	0.07656
1363.55784	0.07513
1361.62919	0.07393
1359.70053	0.07306
1357.77188	0.07261
1355.84323	0.07260
1353.91457	0.07294
1351.98592	0.07356
1350.05727	0.07447
1348.12861	0.07570
1346.19996	0.07715
1344.27131	0.07859
1342.34265	0.07987
1340.41400	0.08092
1338.48535	0.08157
1336.55669	0.08178
1334.62804	0.08156
1332.69939	0.08082
1330.77073	0.07960
1328.84208	0.07819
1326.91343	0.07694
1324.98477	0.07595
1323.05612	0.07522
1321.12747	0.07473
1319.19881	0.07437
1317.27016	0.07399
1315.34151	0.07353
1313.41286	0.07297
1311.48420	0.07230
1309.55555	0.07165
1307.62690	0.07112
1305.69824	0.07069
1303.76959	0.07035
1301.84094	0.07001
1299.91228	0.06961
1297.98363	0.06928
1296.05498	0.06927
1294.12632	0.06963
1292.19767	0.07029
1290.26902	0.07114
1288.34036	0.07213
1286.41171	0.07316
1284.48306	0.07408
1282.55440	0.07479
1280.62575	0.07528
1278.69710	0.07555
1276.76844	0.07563
1274.83979	0.07560
1272.91114	0.07560
1270.98248	0.07578
1269.05383	0.07615
1267.12518	0.07662
1265.19652	0.07722
1263.26787	0.07799
1261.33922	0.07894
1259.41056	0.08003
1257.48191	0.08120
1255.55326	0.08248
1253.62460	0.08392
1251.69595	0.08547
1249.76730	0.08707
1247.83864	0.08872
1245.90999	0.09038
1243.98134	0.09199
1242.05269	0.09351
1240.12403	0.09479
1238.19538	0.09560
1236.26673	0.09592
1234.33807	0.09580
1232.40942	0.09516
1230.48077	0.09391
1228.55211	0.09216
1226.62346	0.09001
1224.69481	0.08756
1222.76615	0.08502
1220.83750	0.08263
1218.90885	0.08057
1216.98019	0.07895
1215.05154	0.07784
1213.12289	0.07728
1211.19423	0.07727
1209.26558	0.07765
1207.33693	0.07819
1205.40827	0.07864
1203.47962	0.07874
1201.55097	0.07833
1199.62231	0.07742
1197.69366	0.07602
1195.76501	0.07427
1193.83635	0.07241
1191.90770	0.07068
1189.97905	0.06910
1188.05039	0.06767
1186.12174	0.06645
1184.19309	0.06544
1182.26443	0.06470
1180.33578	0.06422
1178.40713	0.06385
1176.47848	0.06352
1174.54982	0.06324
1172.62117	0.06302
1170.69252	0.06290
1168.76386	0.06289
1166.83521	0.06295
1164.90656	0.06304
1162.97790	0.06303
1161.04925	0.06272
1159.12060	0.06206
1157.19194	0.06124
1155.26329	0.06040
1153.33464	0.05942
1151.40598	0.05830
1149.47733	0.05714
1147.54868	0.05609
1145.62002	0.05526
1143.69137	0.05455
1141.76272	0.05386
1139.83406	0.05322
1137.90541	0.05269
1135.97676	0.05229
1134.04810	0.05211
1132.11945	0.05214
1130.19080	0.05217
1128.26214	0.05209
1126.33349	0.05199
1124.40484	0.05193
1122.47618	0.05191
1120.54753	0.05193
1118.61888	0.05203
1116.69022	0.05228
1114.76157	0.05262
1112.83292	0.05290
1110.90427	0.05330
1108.97561	0.05392
1107.04696	0.05449
1105.11831	0.05495
1103.18965	0.05552
1101.26100	0.05622
1099.33235	0.05700
1097.40369	0.05784
1095.47504	0.05861
1093.54639	0.05939
1091.61773	0.06052
1089.68908	0.06204
1087.76043	0.06364
1085.83177	0.06510
1083.90312	0.06645
1081.97447	0.06749
1080.04581	0.06798
1078.11716	0.06799
1076.18851	0.06764
1074.25985	0.06705
1072.33120	0.06646
1070.40255	0.06610
1068.47389	0.06594
1066.54524	0.06592
1064.61659	0.06605
1062.68793	0.06620
1060.75928	0.06612
1058.83063	0.06576
1056.90197	0.06524
1054.97332	0.06474
1053.04467	0.06434
1051.11601	0.06397
1049.18736	0.06360
1047.25871	0.06337
1045.33005	0.06334
1043.40140	0.06339
1041.47275	0.06348
1039.54410	0.06376
1037.61544	0.06430
1035.68679	0.06506
1033.75814	0.06577
1031.82948	0.06617
1029.90083	0.06606
1027.97218	0.06543
1026.04352	0.06447
1024.11487	0.06344
1022.18622	0.06246
1020.25756	0.06157
1018.32891	0.06081
1016.40026	0.06018
1014.47160	0.05957
1012.54295	0.05884
1010.61430	0.05796
1008.68564	0.05700
1006.75699	0.05610
1004.82834	0.05530
1002.89968	0.05453
1000.97103	0.05369
999.04238	0.05280
997.11372	0.05197
995.18507	0.05122
993.25642	0.05052
991.32776	0.04985
989.39911	0.04927
987.47046	0.04880
985.54180	0.04839
983.61315	0.04805
981.68450	0.04780
979.75584	0.04770
977.82719	0.04772
975.89854	0.04772
973.96989	0.04753
972.04123	0.04712
970.11258	0.04656
968.18393	0.04602
966.25527	0.04560
964.32662	0.04521
962.39797	0.04480
960.46931	0.04451
958.54066	0.04429
956.61201	0.04397
954.68335	0.04358
952.75470	0.04318
950.82605	0.04274
948.89739	0.04244
946.96874	0.04246
945.04009	0.04262
943.11143	0.04274
941.18278	0.04270
939.25413	0.04246
937.32547	0.04218
935.39682	0.04201
933.46817	0.04182
931.53951	0.04156
929.61086	0.04131
927.68221	0.04109
925.75355	0.04092
923.82490	0.04086
921.89625	0.04080
919.96759	0.04066
918.03894	0.04051
916.11029	0.04033
914.18163	0.04004
912.25298	0.03967
910.32433	0.03922
908.39567	0.03880
906.46702	0.03858
904.53837	0.03852
902.60972	0.03845
900.68106	0.03823
898.75241	0.03795
896.82376	0.03781
894.89510	0.03774
892.96645	0.03762
891.03780	0.03752
889.10914	0.03747
887.18049	0.03734
885.25184	0.03715
883.32318	0.03719
881.39453	0.03765
879.46588	0.03821
877.53722	0.03846
875.60857	0.03841
873.67992	0.03827
871.75126	0.03807
869.82261	0.03784
867.89396	0.03766
865.96530	0.03748
864.03665	0.03732
862.10800	0.03728
860.17934	0.03728
858.25069	0.03724
856.32204	0.03729
854.39338	0.03739
852.46473	0.03742
850.53608	0.03738
848.60742	0.03729
846.67877	0.03721
844.75012	0.03725
842.82146	0.03733
840.89281	0.03721
838.96416	0.03692
837.03551	0.03673
835.10685	0.03671
833.17820	0.03672
831.24955	0.03677
829.32089	0.03689
827.39224	0.03707
825.46359	0.03731
823.53493	0.03764
821.60628	0.03807
819.67763	0.03850
817.74897	0.03880
815.82032	0.03897
813.89167	0.03912
811.96301	0.03928
810.03436	0.03943
808.10571	0.03966
806.17705	0.03994
804.24840	0.04016
802.31975	0.04036
800.39109	0.04056
798.46244	0.04072
796.53379	0.04101
794.60513	0.04142
792.67648	0.04175
790.74783	0.04207
788.81917	0.04238
786.89052	0.04257
784.96187	0.04273
783.03321	0.04300
781.10456	0.04337
779.17591	0.04365
777.24725	0.04384
775.31860	0.04410
773.38995	0.04449
771.46130	0.04494
769.53264	0.04541
767.60399	0.04583
765.67534	0.04622
763.74668	0.04649
761.81803	0.04652
759.88938	0.04656
757.96072	0.04689
756.03207	0.04747
754.10342	0.04808
752.17476	0.04847
750.24611	0.04868
748.31746	0.04891
746.38880	0.04915
744.46015	0.04931
742.53150	0.04942
740.60284	0.04963
738.67419	0.04995
736.74554	0.05036
734.81688	0.05092
732.88823	0.05151
730.95958	0.05207
729.03092	0.05259
727.10227	0.05289
725.17362	0.05306
723.24496	0.05318
721.31631	0.05367
719.38766	0.05423
717.45900	0.05475
715.53035	0.05512
713.60170	0.05539
711.67304	0.05574
709.74439	0.05615
707.81574	0.05651
705.88708	0.05685
703.95843	0.05722
702.02978	0.05759
700.10113	0.05787
698.17247	0.05810
696.24382	0.05831
694.31517	0.05846
692.38651	0.05860
690.45786	0.05883
688.52921	0.05906
686.60055	0.05935
684.67190	0.05966
682.74325	0.06002
680.81459	0.06046
678.88594	0.06074
676.95729	0.06092
675.02863	0.06103
673.09998	0.06115
671.17133	0.06136
669.24267	0.06168
667.31402	0.06196
665.38537	0.06222
663.45671	0.06245
661.52806	0.06266
659.59941	0.06281
657.67075	0.06290
655.74210	0.06300
653.81345	0.06303
651.88479	0.06308
649.95614	0.06325
648.02749	0.06351
646.09883	0.06367
644.17018	0.06368
642.24153	0.06356
640.31287	0.06347
638.38422	0.06357
636.45557	0.06381
634.52692	0.06405
632.59826	0.06414
630.66961	0.06417
628.74096	0.06438
626.81230	0.06346
624.88365	0.06288
622.95500	0.06443
621.02634	0.06658
619.09769	0.06567
617.16904	0.06409
615.24038	0.06430
613.31173	0.06479
611.38308	0.06544
609.45442	0.06666
607.52577	0.06697
605.59712	0.06666
603.66846	0.06711
601.73981	0.06797
599.81116	0.06830
597.88250	0.06812
595.95385	0.06761
594.02520	0.06699
592.09654	0.06671
590.16789	0.06670
588.23924	0.06645
586.31058	0.06605
584.38193	0.06594
582.45328	0.06614
580.52462	0.06637
578.59597	0.06656
576.66732	0.06678
574.73866	0.06716
572.81001	0.06759
570.88136	0.06793
568.95270	0.06821
567.02405	0.06858
565.09540	0.06899
563.16675	0.06932
561.23809	0.06944
559.30944	0.06939
557.38079	0.06930
555.45213	0.06926
553.52348	0.06922
551.59483	0.06914
549.66617	0.06888
547.73752	0.06836
545.80887	0.06779
543.88021	0.06745
541.95156	0.06729
540.02291	0.06713
538.09425	0.06696
536.16560	0.06690
534.23695	0.06692
532.30829	0.06681
530.37964	0.06652
528.45099	0.06627
526.52233	0.06614
524.59368	0.06585
522.66503	0.06521
520.73637	0.06448
518.80772	0.06389
516.87907	0.06347
514.95041	0.06321
513.02176	0.06305
511.09311	0.06285
509.16445	0.06253
507.23580	0.06207
505.30715	0.06141
503.37849	0.06071
501.44984	0.06024
499.52119	0.06002
497.59254	0.05977
495.66388	0.05931
493.73523	0.05876
491.80658	0.05824
489.87792	0.05768
487.94927	0.05708
486.02062	0.05661
484.09196	0.05622
482.16331	0.05573
480.23466	0.05514
478.30600	0.05462
476.37735	0.05435
474.44870	0.05423
472.52004	0.05399
470.59139	0.05354
468.66274	0.05306
466.73408	0.05272
464.80543	0.05240
462.87678	0.05194
460.94812	0.05133
459.01947	0.05073
457.09082	0.05020
455.16216	0.04966
453.23351	0.04906
451.30486	0.04856
449.37620	0.04820
447.44755	0.04788
445.51890	0.04757
443.59024	0.04726
441.66159	0.04690
439.73294	0.04647
437.80428	0.04610
435.87563	0.04583
433.94698	0.04560
432.01833	0.04533
430.08967	0.04496
428.16102	0.04449
426.23237	0.04400
424.30371	0.04365
422.37506	0.04340
420.44641	0.04305
418.51775	0.04266
416.58910	0.04238
414.66045	0.04213
412.73179	0.04187
410.80314	0.04167
408.87449	0.04148
406.94583	0.04126
405.01718	0.04100
403.08853	0.04064
401.15987	0.04029
399.23122	0.04004
