3997.45528	0.07226
3996.16951	0.07176
3994.88374	0.07144
3993.59798	0.07153
3992.31221	0.07201
3991.02644	0.07261
3989.74067	0.07307
3988.45490	0.07323
3987.16913	0.07305
3985.88336	0.07253
3984.59759	0.07185
3983.31183	0.07125
3982.02606	0.07089
3980.74029	0.07076
3979.45452	0.07080
3978.16875	0.07107
3976.88298	0.07156
3975.59721	0.07205
3974.31144	0.07225
3973.02567	0.07203
3971.73991	0.07153
3970.45414	0.07100
3969.16837	0.07081
3967.88260	0.07119
3966.59683	0.07199
3965.31106	0.07262
3964.02529	0.07259
3962.73952	0.07197
3961.45376	0.07127
3960.16799	0.07087
3958.88222	0.07074
3957.59645	0.07068
3956.31068	0.07053
3955.02491	0.07030
3953.73914	0.07009
3952.45337	0.07001
3951.16760	0.07005
3949.88184	0.07001
3948.59607	0.06967
3947.31030	0.06913
3946.02453	0.06877
3944.73876	0.06886
3943.45299	0.06924
3942.16722	0.06954
3940.88145	0.06963
3939.59569	0.06968
3938.30992	0.06981
3937.02415	0.06985
3935.73838	0.06953
3934.45261	0.06883
3933.16684	0.06801
3931.88107	0.06740
3930.59530	0.06718
3929.30953	0.06733
3928.02377	0.06774
3926.73800	0.06832
3925.45223	0.06890
3924.16646	0.06933
3922.88069	0.06955
3921.59492	0.06958
3920.30915	0.06943
3919.02338	0.06899
3917.73762	0.06814
3916.45185	0.06701
3915.16608	0.06608
3913.88031	0.06589
3912.59454	0.06660
3911.30877	0.06781
3910.02300	0.06878
3908.73723	0.06898
3907.45146	0.06838
3906.16570	0.06754
3904.87993	0.06714
3903.59416	0.06744
3902.30839	0.06810
3901.02262	0.06855
3899.73685	0.06855
3898.45108	0.06824
3897.16531	0.06788
3895.87955	0.06759
3894.59378	0.06731
3893.30801	0.06692
3892.02224	0.06643
3890.73647	0.06606
3889.45070	0.06605
3888.16493	0.06629
3886.87916	0.06648
3885.59339	0.06645
3884.30763	0.06643
3883.02186	0.06673
3881.73609	0.06736
3880.45032	0.06794
3879.16455	0.06813
3877.87878	0.06791
3876.59301	0.06757
3875.30724	0.06735
3874.02148	0.06728
3872.73571	0.06722
3871.44994	0.06716
3870.16417	0.06722
3868.87840	0.06740
3867.59263	0.06744
3866.30686	0.06708
3865.02109	0.06642
3863.73532	0.06593
3862.44956	0.06593
3861.16379	0.06624
3859.87802	0.06636
3858.59225	0.06604
3857.30648	0.06553
3856.02071	0.06528
3854.73494	0.06550
3853.44917	0.06599
3852.16341	0.06633
3850.87764	0.06621
3849.59187	0.06569
3848.30610	0.06513
3847.02033	0.06485
3845.73456	0.06482
3844.44879	0.06467
3843.16302	0.06414
3841.87725	0.06339
3840.59149	0.06291
3839.30572	0.06302
3838.01995	0.06363
3836.73418	0.06431
3835.44841	0.06464
3834.16264	0.06453
3832.87687	0.06417
3831.59110	0.06377
3830.30534	0.06337
3829.01957	0.06301
3827.73380	0.06284
3826.44803	0.06306
3825.16226	0.06371
3823.87649	0.06462
3822.59072	0.06539
3821.30495	0.06570
3820.01918	0.06551
3818.73342	0.06500
3817.44765	0.06440
3816.16188	0.06380
3814.87611	0.06325
3813.59034	0.06275
3812.30457	0.06234
3811.01880	0.06208
3809.73303	0.06201
3808.44726	0.06209
3807.16150	0.06218
3805.87573	0.06222
3804.58996	0.06231
3803.30419	0.06250
3802.01842	0.06266
3800.73265	0.06253
3799.44688	0.06202
3798.16111	0.06128
3796.87535	0.06059
3795.58958	0.06016
3794.30381	0.05999
3793.01804	0.06004
3791.73227	0.06017
3790.44650	0.06022
3789.16073	0.06003
3787.87496	0.05967
3786.58919	0.05938
3785.30343	0.05936
3784.01766	0.05966
3782.73189	0.06018
3781.44612	0.06075
3780.16035	0.06119
3778.87458	0.06136
3777.58881	0.06129
3776.30304	0.06105
3775.01728	0.06071
3773.73151	0.06025
3772.44574	0.05975
3771.15997	0.05941
3769.87420	0.05947
3768.58843	0.05998
3767.30266	0.06078
3766.01689	0.06148
3764.73112	0.06165
3763.44536	0.06106
3762.15959	0.05993
3760.87382	0.05879
3759.58805	0.05816
3758.30228	0.05815
3757.01651	0.05849
3755.73074	0.05884
3754.44497	0.05908
3753.15921	0.05925
3751.87344	0.05938
3750.58767	0.05949
3749.30190	0.05962
3748.01613	0.05989
3746.73036	0.06027
3745.44459	0.06053
3744.15882	0.06049
3742.87305	0.06021
3741.58729	0.05999
3740.30152	0.06004
3739.01575	0.06030
3737.72998	0.06048
3736.44421	0.06026
3735.15844	0.05950
3733.87267	0.05843
3732.58690	0.05756
3731.30114	0.05729
3730.01537	0.05765
3728.72960	0.05827
3727.44383	0.05866
3726.15806	0.05849
3724.87229	0.05778
3723.58652	0.05685
3722.30075	0.05612
3721.01498	0.05589
3719.72922	0.05615
3718.44345	0.05654
3717.15768	0.05665
3715.87191	0.05628
3714.58614	0.05562
3713.30037	0.05498
3712.01460	0.05449
3710.72883	0.05419
3709.44307	0.05413
3708.15730	0.05427
3706.87153	0.05446
3705.58576	0.05455
3704.29999	0.05461
3703.01422	0.05483
3701.72845	0.05520
3700.44268	0.05547
3699.15691	0.05542
3697.87115	0.05525
3696.58538	0.05540
3695.29961	0.05606
3694.01384	0.05686
3692.72807	0.05723
3691.44230	0.05697
3690.15653	0.05635
3688.87076	0.05589
3687.58500	0.05580
3686.29923	0.05591
3685.01346	0.05591
3683.72769	0.05571
3682.44192	0.05551
3681.15615	0.05545
3679.87038	0.05558
3678.58461	0.05587
3677.29884	0.05632
3676.01308	0.05684
3674.72731	0.05727
3673.44154	0.05752
3672.15577	0.05768
3670.87000	0.05789
3669.58423	0.05812
3668.29846	0.05822
3667.01269	0.05809
3665.72693	0.05782
3664.44116	0.05762
3663.15539	0.05760
3661.86962	0.05765
3660.58385	0.05759
3659.29808	0.05741
3658.01231	0.05732
3656.72654	0.05744
3655.44077	0.05772
3654.15501	0.05805
3652.86924	0.05839
3651.58347	0.05876
3650.29770	0.05914
3649.01193	0.05951
3647.72616	0.05989
3646.44039	0.06032
3645.15462	0.06079
3643.86886	0.06128
3642.58309	0.06173
3641.29732	0.06205
3640.01155	0.06219
3638.72578	0.06230
3637.44001	0.06263
3636.15424	0.06329
3634.86847	0.06405
3633.58270	0.06452
3632.29694	0.06451
3631.01117	0.06427
3629.72540	0.06428
3628.43963	0.06476
3627.15386	0.06553
3625.86809	0.06623
3624.58232	0.06666
3623.29655	0.06683
3622.01079	0.06685
3620.72502	0.06687
3619.43925	0.06706
3618.15348	0.06747
3616.86771	0.06802
3615.58194	0.06864
3614.29617	0.06934
3613.01040	0.07011
3611.72463	0.07084
3610.43887	0.07140
3609.15310	0.07184
3607.86733	0.07241
3606.58156	0.07331
3605.29579	0.07450
3604.01002	0.07570
3602.72425	0.07656
3601.43848	0.07683
3600.15272	0.07658
3598.86695	0.07618
3597.58118	0.07616
3596.29541	0.07687
3595.00964	0.07815
3593.72387	0.07947
3592.43810	0.08036
3591.15233	0.08084
3589.86656	0.08123
3588.58080	0.08171
3587.29503	0.08218
3586.00926	0.08239
3584.72349	0.08235
3583.43772	0.08238
3582.15195	0.08279
3580.86618	0.08365
3579.58041	0.08478
3578.29464	0.08595
3577.00888	0.08700
3575.72311	0.08788
3574.43734	0.08861
3573.15157	0.08930
3571.86580	0.09008
3570.58003	0.09097
3569.29426	0.09178
3568.00849	0.09225
3566.72273	0.09235
3565.43696	0.09230
3564.15119	0.09235
3562.86542	0.09256
3561.57965	0.09297
3560.29388	0.09366
3559.00811	0.09474
3557.72234	0.09612
3556.43657	0.09752
3555.15081	0.09861
3553.86504	0.09931
3552.57927	0.09982
3551.29350	0.10050
3550.00773	0.10151
3548.72196	0.10265
3547.43619	0.10347
3546.15042	0.10367
3544.86466	0.10338
3543.57889	0.10306
3542.29312	0.10309
3541.00735	0.10356
3539.72158	0.10427
3538.43581	0.10502
3537.15004	0.10576
3535.86427	0.10663
3534.57850	0.10775
3533.29274	0.10900
3532.00697	0.11013
3530.72120	0.11099
3529.43543	0.11169
3528.14966	0.11240
3526.86389	0.11313
3525.57812	0.11376
3524.29235	0.11433
3523.00659	0.11503
3521.72082	0.11596
3520.43505	0.11700
3519.14928	0.11794
3517.86351	0.11875
3516.57774	0.11947
3515.29197	0.12009
3514.00620	0.12051
3512.72043	0.12066
3511.43467	0.12054
3510.14890	0.12033
3508.86313	0.12032
3507.57736	0.12076
3506.29159	0.12168
3505.00582	0.12283
3503.72005	0.12382
3502.43428	0.12437
3501.14852	0.12452
3499.86275	0.12452
3498.57698	0.12468
3497.29121	0.12510
3496.00544	0.12572
3494.71967	0.12643
3493.43390	0.12712
3492.14813	0.12777
3490.86236	0.12842
3489.57660	0.12913
3488.29083	0.12987
3487.00506	0.13054
3485.71929	0.13112
3484.43352	0.13175
3483.14775	0.13255
3481.86198	0.13341
3480.57621	0.13400
3479.29045	0.13411
3478.00468	0.13393
3476.71891	0.13392
3475.43314	0.13433
3474.14737	0.13500
3472.86160	0.13563
3471.57583	0.13605
3470.29006	0.13626
3469.00429	0.13643
3467.71853	0.13672
3466.43276	0.13725
3465.14699	0.13797
3463.86122	0.13872
3462.57545	0.13942
3461.28968	0.14011
3460.00391	0.14088
3458.71814	0.14172
3457.43238	0.14247
3456.14661	0.14291
3454.86084	0.14294
3453.57507	0.14270
3452.28930	0.14254
3451.00353	0.14272
3449.71776	0.14333
3448.43199	0.14423
3447.14622	0.14516
3445.86046	0.14590
3444.57469	0.14633
3443.28892	0.14654
3442.00315	0.14675
3440.71738	0.14715
3439.43161	0.14766
3438.14584	0.14814
3436.86007	0.14850
3435.57431	0.14883
3434.28854	0.14919
3433.00277	0.14956
3431.71700	0.15000
3430.43123	0.15066
3429.14546	0.15158
3427.85969	0.15258
3426.57392	0.15337
3425.28815	0.15384
3424.00239	0.15418
3422.71662	0.15467
3421.43085	0.15535
3420.14508	0.15590
3418.85931	0.15598
3417.57354	0.15562
3416.28777	0.15523
3415.00200	0.15535
3413.71624	0.15623
3412.43047	0.15773
3411.14470	0.15939
3409.85893	0.16071
3408.57316	0.16146
3407.28739	0.16178
3406.00162	0.16203
3404.71585	0.16253
3403.43008	0.16329
3402.14432	0.16401
3400.85855	0.16432
3399.57278	0.16420
3398.28701	0.16396
3397.00124	0.16391
3395.71547	0.16416
3394.42970	0.16460
3393.14393	0.16512
3391.85817	0.16571
3390.57240	0.16632
3389.28663	0.16685
3388.00086	0.16722
3386.71509	0.16749
3385.42932	0.16782
3384.14355	0.16837
3382.85778	0.16919
3381.57201	0.17017
3380.28625	0.17112
3379.00048	0.17187
3377.71471	0.17242
3376.42894	0.17296
3375.14317	0.17370
3373.85740	0.17464
3372.57163	0.17562
3371.28586	0.17649
3370.00010	0.17724
3368.71433	0.17804
3367.42856	0.17911
3366.14279	0.18052
3364.85702	0.18203
3363.57125	0.18323
3362.28548	0.18397
3360.99971	0.18448
3359.71394	0.18519
3358.42818	0.18631
3357.14241	0.18759
3355.85664	0.18861
3354.57087	0.18924
3353.28510	0.18965
3351.99933	0.19016
3350.71356	0.19085
3349.42779	0.19171
3348.14202	0.19263
3346.85626	0.19354
3345.57049	0.19443
3344.28472	0.19536
3342.99895	0.19645
3341.71318	0.19767
3340.42741	0.19888
3339.14164	0.19997
3337.85587	0.20102
3336.57011	0.20218
3335.28434	0.20355
3333.99857	0.20496
3332.71280	0.20608
3331.42703	0.20669
3330.14126	0.20689
3328.85549	0.20703
3327.56972	0.20742
3326.28395	0.20810
3324.99819	0.20888
3323.71242	0.20957
3322.42665	0.21013
3321.14088	0.21068
3319.85511	0.21128
3318.56934	0.21178
3317.28357	0.21197
3315.99780	0.21184
3314.71204	0.21170
3313.42627	0.21201
3312.14050	0.21286
3310.85473	0.21399
3309.56896	0.21503
3308.28319	0.21585
3306.99742	0.21657
3305.71165	0.21729
3304.42588	0.21797
3303.14012	0.21844
3301.85435	0.21856
3300.56858	0.21832
3299.28281	0.21792
3297.99704	0.21766
3296.71127	0.21778
3295.42550	0.21829
3294.13973	0.21904
3292.85397	0.21984
3291.56820	0.22050
3290.28243	0.22085
3288.99666	0.22077
3287.71089	0.22033
3286.42512	0.21978
3285.13935	0.21931
3283.85358	0.21893
3282.56781	0.21852
3281.28205	0.21805
3279.99628	0.21761
3278.71051	0.21734
3277.42474	0.21732
3276.13897	0.21749
3274.85320	0.21762
3273.56743	0.21747
3272.28166	0.21696
3270.99590	0.21620
3269.71013	0.21541
3268.42436	0.21478
3267.13859	0.21435
3265.85282	0.21402
3264.56705	0.21370
3263.28128	0.21341
3261.99551	0.21317
3260.70974	0.21296
3259.42398	0.21263
3258.13821	0.21202
3256.85244	0.21110
3255.56667	0.21002
3254.28090	0.20895
3252.99513	0.20803
3251.70936	0.20737
3250.42359	0.20699
3249.13783	0.20680
3247.85206	0.20653
3246.56629	0.20590
3245.28052	0.20492
3243.99475	0.20384
3242.70898	0.20301
3241.42321	0.20258
3240.13744	0.20246
3238.85167	0.20238
3237.56591	0.20213
3236.28014	0.20169
3234.99437	0.20118
3233.70860	0.20073
3232.42283	0.20034
3231.13706	0.19994
3229.85129	0.19947
3228.56552	0.19889
3227.27976	0.19811
3225.99399	0.19713
3224.70822	0.19612
3223.42245	0.19549
3222.13668	0.19553
3220.85091	0.19606
3219.56514	0.19648
3218.27937	0.19628
3216.99360	0.19546
3215.70784	0.19447
3214.42207	0.19379
3213.13630	0.19354
3211.85053	0.19335
3210.56476	0.19284
3209.27899	0.19202
3207.99322	0.19131
3206.70745	0.19104
3205.42169	0.19107
3204.13592	0.19101
3202.85015	0.19062
3201.56438	0.18997
3200.27861	0.18922
3198.99284	0.18844
3197.70707	0.18766
3196.42130	0.18690
3195.13553	0.18619
3193.84977	0.18555
3192.56400	0.18493
3191.27823	0.18424
3189.99246	0.18346
3188.70669	0.18274
3187.42092	0.18222
3186.13515	0.18189
3184.84938	0.18154
3183.56362	0.18084
3182.27785	0.17969
3180.99208	0.17829
3179.70631	0.17703
3178.42054	0.17617
3177.13477	0.17561
3175.84900	0.17506
3174.56323	0.17437
3173.27746	0.17362
3171.99170	0.17304
3170.70593	0.17270
3169.42016	0.17242
3168.13439	0.17196
3166.84862	0.17120
3165.56285	0.17027
3164.27708	0.16934
3162.99131	0.16855
3161.70555	0.16789
3160.41978	0.16732
3159.13401	0.16675
3157.84824	0.16606
3156.56247	0.16519
3155.27670	0.16414
3153.99093	0.16303
3152.70516	0.16200
3151.41939	0.16112
3150.13363	0.16036
3148.84786	0.15964
3147.56209	0.15892
3146.27632	0.15823
3144.99055	0.15759
3143.70478	0.15691
3142.41901	0.15605
3141.13324	0.15500
3139.84748	0.15395
3138.56171	0.15316
3137.27594	0.15273
3135.99017	0.15252
3134.70440	0.15230
3133.41863	0.15197
3132.13286	0.15155
3130.84709	0.15113
3129.56132	0.15070
3128.27556	0.15020
3126.98979	0.14957
3125.70402	0.14889
3124.41825	0.14843
3123.13248	0.14834
3121.84671	0.14848
3120.56094	0.14855
3119.27517	0.14839
3117.98940	0.14811
3116.70364	0.14787
3115.41787	0.14766
3114.13210	0.14741
3112.84633	0.14711
3111.56056	0.14692
3110.27479	0.14697
3108.98902	0.14722
3107.70325	0.14750
3106.41749	0.14767
3105.13172	0.14778
3103.84595	0.14796
3102.56018	0.14826
3101.27441	0.14858
3099.98864	0.14886
3098.70287	0.14916
3097.41710	0.14956
3096.13133	0.15004
3094.84557	0.15046
3093.55980	0.15069
3092.27403	0.15071
3090.98826	0.15057
3089.70249	0.15035
3088.41672	0.15012
3087.13095	0.14997
3085.84518	0.14998
3084.55942	0.15019
3083.27365	0.15053
3081.98788	0.15095
3080.70211	0.15136
3079.41634	0.15168
3078.13057	0.15186
3076.84480	0.15181
3075.55903	0.15155
3074.27326	0.15118
3072.98750	0.15081
3071.70173	0.15056
3070.41596	0.15049
3069.13019	0.15060
3067.84442	0.15084
3066.55865	0.15108
3065.27288	0.15115
3063.98711	0.15089
3062.70135	0.15031
3061.41558	0.14953
3060.12981	0.14869
3058.84404	0.14793
3057.55827	0.14732
3056.27250	0.14685
3054.98673	0.14648
3053.70096	0.14615
3052.41519	0.14585
3051.12943	0.14550
3049.84366	0.14498
3048.55789	0.14426
3047.27212	0.14342
3045.98635	0.14264
3044.70058	0.14198
3043.41481	0.14137
3042.12904	0.14074
3040.84328	0.14008
3039.55751	0.13941
3038.27174	0.13866
3036.98597	0.13775
3035.70020	0.13670
3034.41443	0.13565
3033.12866	0.13477
3031.84289	0.13414
3030.55712	0.13368
3029.27136	0.13320
3027.98559	0.13259
3026.69982	0.13187
3025.41405	0.13115
3024.12828	0.13048
3022.84251	0.12984
3021.55674	0.12926
3020.27097	0.12879
3018.98521	0.12844
3017.69944	0.12809
3016.41367	0.12758
3015.12790	0.12695
3013.84213	0.12639
3012.55636	0.12604
3011.27059	0.12580
3009.98482	0.12553
3008.69905	0.12521
3007.41329	0.12494
3006.12752	0.12478
3004.84175	0.12468
3003.55598	0.12462
3002.27021	0.12462
3000.98444	0.12476
2999.69867	0.12503
2998.41290	0.12542
2997.12714	0.12582
2995.84137	0.12615
2994.55560	0.12632
2993.26983	0.12635
2991.98406	0.12632
2990.69829	0.12646
2989.41252	0.12698
2988.12675	0.12785
2986.84098	0.12877
2985.55522	0.12944
2984.26945	0.12984
2982.98368	0.13020
2981.69791	0.13071
2980.41214	0.13135
2979.12637	0.13195
2977.84060	0.13241
2976.55483	0.13271
2975.26907	0.13292
2973.98330	0.13306
2972.69753	0.13322
2971.41176	0.13354
2970.12599	0.13406
2968.84022	0.13470
2967.55445	0.13527
2966.26868	0.13574
2964.98291	0.13618
2963.69715	0.13666
2962.41138	0.13714
2961.12561	0.13757
2959.83984	0.13790
2958.55407	0.13813
2957.26830	0.13824
2955.98253	0.13820
2954.69676	0.13812
2953.41100	0.13811
2952.12523	0.13822
2950.83946	0.13836
2949.55369	0.13845
2948.26792	0.13846
2946.98215	0.13840
2945.69638	0.13829
2944.41061	0.13822
2943.12484	0.13825
2941.83908	0.13835
2940.55331	0.13847
2939.26754	0.13859
2937.98177	0.13872
2936.69600	0.13885
2935.41023	0.13891
2934.12446	0.13885
2932.83869	0.13865
2931.55293	0.13832
2930.26716	0.13788
2928.98139	0.13743
2927.69562	0.13704
2926.40985	0.13670
2925.12408	0.13630
2923.83831	0.13579
2922.55254	0.13515
2921.26677	0.13448
2919.98101	0.13381
2918.69524	0.13313
2917.40947	0.13245
2916.12370	0.13179
2914.83793	0.13113
2913.55216	0.13041
2912.26639	0.12960
2910.98062	0.12876
2909.69486	0.12802
2908.40909	0.12739
2907.12332	0.12679
2905.83755	0.12610
2904.55178	0.12527
2903.26601	0.12439
2901.98024	0.12362
2900.69447	0.12304
2899.40870	0.12256
2898.12294	0.12212
2896.83717	0.12175
2895.55140	0.12154
2894.26563	0.12144
2892.97986	0.12136
2891.69409	0.12125
2890.40832	0.12109
2889.12255	0.12092
2887.83678	0.12077
2886.55102	0.12076
2885.26525	0.12097
2883.97948	0.12131
2882.69371	0.12158
2881.40794	0.12161
2880.12217	0.12143
2878.83640	0.12126
2877.55063	0.12128
2876.26487	0.12145
2874.97910	0.12156
2873.69333	0.12134
2872.40756	0.12075
2871.12179	0.11987
2869.83602	0.11889
2868.55025	0.11797
2867.26448	0.11714
2865.97871	0.11636
2864.69295	0.11557
2863.40718	0.11481
2862.12141	0.11411
2860.83564	0.11351
2859.54987	0.11302
2858.26410	0.11262
2856.97833	0.11225
2855.69256	0.11181
2854.40680	0.11120
2853.12103	0.11045
2851.83526	0.10971
2850.54949	0.10914
2849.26372	0.10878
2847.97795	0.10849
2846.69218	0.10807
2845.40641	0.10752
2844.12064	0.10700
2842.83488	0.10663
2841.54911	0.10638
2840.26334	0.10614
2838.97757	0.10584
2837.69180	0.10541
2836.40603	0.10479
2835.12026	0.10405
2833.83449	0.10336
2832.54873	0.10289
2831.26296	0.10269
2829.97719	0.10265
2828.69142	0.10269
2827.40565	0.10271
2826.11988	0.10260
2824.83411	0.10228
2823.54834	0.10181
2822.26257	0.10132
2820.97681	0.10089
2819.69104	0.10048
2818.40527	0.10006
2817.11950	0.09966
2815.83373	0.09929
2814.54796	0.09895
2813.26219	0.09861
2811.97642	0.09828
2810.69066	0.09800
2809.40489	0.09783
2808.11912	0.09773
2806.83335	0.09758
2805.54758	0.09731
2804.26181	0.09695
2802.97604	0.09662
2801.69027	0.09640
2800.40450	0.09630
2799.11874	0.09623
2797.83297	0.09614
2796.54720	0.09601
2795.26143	0.09585
2793.97566	0.09565
2792.68989	0.09538
2791.40412	0.09507
2790.11835	0.09476
2788.83259	0.09443
2787.54682	0.09401
2786.26105	0.09356
2784.97528	0.09327
2783.68951	0.09327
2782.40374	0.09345
2781.11797	0.09353
2779.83220	0.09331
2778.54643	0.09283
2777.26067	0.09236
2775.97490	0.09210
2774.68913	0.09208
2773.40336	0.09212
2772.11759	0.09202
2770.83182	0.09171
2769.54605	0.09130
2768.26028	0.09098
2766.97452	0.09081
2765.68875	0.09071
2764.40298	0.09054
2763.11721	0.09028
2761.83144	0.09004
2760.54567	0.08995
2759.25990	0.08996
2757.97413	0.08986
2756.68836	0.08951
2755.40260	0.08901
2754.11683	0.08856
2752.83106	0.08826
2751.54529	0.08807
2750.25952	0.08792
2748.97375	0.08778
2747.68798	0.08763
2746.40221	0.08741
2745.11645	0.08713
2743.83068	0.08690
2742.54491	0.08675
2741.25914	0.08662
2739.97337	0.08637
2738.68760	0.08593
2737.40183	0.08539
2736.11606	0.08494
2734.83029	0.08472
2733.54453	0.08476
2732.25876	0.08492
2730.97299	0.08502
2729.68722	0.08491
2728.40145	0.08462
2727.11568	0.08431
2725.82991	0.08411
2724.54414	0.08396
2723.25838	0.08370
2721.97261	0.08330
2720.68684	0.08288
2719.40107	0.08257
2718.11530	0.08233
2716.82953	0.08209
2715.54376	0.08191
2714.25799	0.08190
2712.97222	0.08206
2711.68646	0.08224
2710.40069	0.08232
2709.11492	0.08221
2707.82915	0.08193
2706.54338	0.08153
2705.25761	0.08114
2703.97184	0.08089
2702.68607	0.08081
2701.40031	0.08079
2700.11454	0.08068
2698.82877	0.08043
2697.54300	0.08009
2696.25723	0.07975
2694.97146	0.07952
2693.68569	0.07945
2692.39992	0.07950
2691.11415	0.07955
2689.82839	0.07948
2688.54262	0.07928
2687.25685	0.07903
2685.97108	0.07883
2684.68531	0.07870
2683.39954	0.07861
2682.11377	0.07854
2680.82800	0.07854
2679.54224	0.07865
2678.25647	0.07882
2676.97070	0.07895
2675.68493	0.07892
2674.39916	0.07874
2673.11339	0.07848
2671.82762	0.07821
2670.54185	0.07796
2669.25608	0.07775
2667.97032	0.07761
2666.68455	0.07753
2665.39878	0.07754
2664.11301	0.07760
2662.82724	0.07764
2661.54147	0.07761
2660.25570	0.07755
2658.96993	0.07747
2657.68417	0.07736
2656.39840	0.07715
2655.11263	0.07683
2653.82686	0.07639
2652.54109	0.07592
2651.25532	0.07551
2649.96955	0.07525
2648.68378	0.07510
2647.39801	0.07495
2646.11225	0.07470
2644.82648	0.07437
2643.54071	0.07408
2642.25494	0.07388
2640.96917	0.07369
2639.68340	0.07341
2638.39763	0.07302
2637.11186	0.07262
2635.82609	0.07230
2634.54033	0.07208
2633.25456	0.07190
2631.96879	0.07171
2630.68302	0.07148
2629.39725	0.07125
2628.11148	0.07104
2626.82571	0.07086
2625.53994	0.07063
2624.25418	0.07029
2622.96841	0.06982
2621.68264	0.06934
2620.39687	0.06895
2619.11110	0.06866
2617.82533	0.06843
2616.53956	0.06823
2615.25379	0.06809
2613.96802	0.06803
2612.68226	0.06804
2611.39649	0.06809
2610.11072	0.06808
2608.82495	0.06791
2607.53918	0.06758
2606.25341	0.06726
2604.96764	0.06708
2603.68187	0.06700
2602.39611	0.06686
2601.11034	0.06653
2599.82457	0.06608
2598.53880	0.06568
2597.25303	0.06550
2595.96726	0.06553
2594.68149	0.06566
2593.39572	0.06577
2592.10995	0.06584
2590.82419	0.06587
2589.53842	0.06582
2588.25265	0.06558
2586.96688	0.06514
2585.68111	0.06464
2584.39534	0.06426
2583.10957	0.06403
2581.82380	0.06387
2580.53804	0.06377
2579.25227	0.06375
2577.96650	0.06384
2576.68073	0.06397
2575.39496	0.06405
2574.10919	0.06396
2572.82342	0.06361
2571.53765	0.06306
2570.25188	0.06248
2568.96612	0.06207
2567.68035	0.06183
2566.39458	0.06169
2565.10881	0.06156
2563.82304	0.06148
2562.53727	0.06149
2561.25150	0.06150
2559.96573	0.06132
2558.67997	0.06089
2557.39420	0.06042
2556.10843	0.06020
2554.82266	0.06031
2553.53689	0.06052
2552.25112	0.06052
2550.96535	0.06015
2549.67958	0.05954
2548.39381	0.05899
2547.10805	0.05875
2545.82228	0.05880
2544.53651	0.05894
2543.25074	0.05894
2541.96497	0.05875
2540.67920	0.05852
2539.39343	0.05834
2538.10766	0.05813
2536.82190	0.05775
2535.53613	0.05727
2534.25036	0.05690
2532.96459	0.05678
2531.67882	0.05682
2530.39305	0.05692
2529.10728	0.05707
2527.82151	0.05731
2526.53574	0.05762
2525.24998	0.05789
2523.96421	0.05798
2522.67844	0.05781
2521.39267	0.05741
2520.10690	0.05697
2518.82113	0.05672
2517.53536	0.05671
2516.24959	0.05682
2514.96383	0.05685
2513.67806	0.05673
2512.39229	0.05655
2511.10652	0.05640
2509.82075	0.05625
2508.53498	0.05603
2507.24921	0.05578
2505.96344	0.05568
2504.67767	0.05582
2503.39191	0.05607
2502.10614	0.05614
2500.82037	0.05595
2499.53460	0.05568
2498.24883	0.05547
2496.96306	0.05519
2495.67729	0.05464
2494.39152	0.05396
2493.10576	0.05358
2491.81999	0.05375
2490.53422	0.05425
2489.24845	0.05461
2487.96268	0.05452
2486.67691	0.05408
2485.39114	0.05364
2484.10537	0.05341
2482.81960	0.05333
2481.53384	0.05324
2480.24807	0.05315
2478.96230	0.05323
2477.67653	0.05351
2476.39076	0.05382
2475.10499	0.05391
2473.81922	0.05380
2472.53345	0.05376
2471.24769	0.05397
2469.96192	0.05430
2468.67615	0.05441
2467.39038	0.05418
2466.10461	0.05378
2464.81884	0.05346
2463.53307	0.05329
2462.24730	0.05316
2460.96153	0.05302
2459.67577	0.05294
2458.39000	0.05300
2457.10423	0.05319
2455.81846	0.05342
2454.53269	0.05359
2453.24692	0.05369
2451.96115	0.05374
2450.67538	0.05376
2449.38962	0.05378
2448.10385	0.05378
2446.81808	0.05365
2445.53231	0.05332
2444.24654	0.05286
2442.96077	0.05245
2441.67500	0.05216
2440.38923	0.05191
2439.10346	0.05168
2437.81770	0.05158
2436.53193	0.05172
2435.24616	0.05204
2433.96039	0.05237
2432.67462	0.05252
2431.38885	0.05248
2430.10308	0.05231
2428.81731	0.05217
2427.53155	0.05215
2426.24578	0.05223
2424.96001	0.05228
2423.67424	0.05221
2422.38847	0.05201
2421.10270	0.05182
2419.81693	0.05172
2418.53116	0.05167
2417.24539	0.05162
2415.95963	0.05157
2414.67386	0.05154
2413.38809	0.05152
2412.10232	0.05143
2410.81655	0.05124
2409.53078	0.05103
2408.24501	0.05087
2406.95924	0.05081
2405.67347	0.05080
2404.38771	0.05076
2403.10194	0.05069
2401.81617	0.05065
2400.53040	0.05069
2399.24463	0.05071
2397.95886	0.05068
2396.67309	0.05055
2395.38732	0.05039
2394.10156	0.05035
2392.81579	0.05046
2391.53002	0.05064
2390.24425	0.05076
2388.95848	0.05081
2387.67271	0.05085
2386.38694	0.05094
2385.10117	0.05111
2383.81540	0.05130
2382.52964	0.05142
2381.24387	0.05140
2379.95810	0.05129
2378.67233	0.05124
2377.38656	0.05129
2376.10079	0.05138
2374.81502	0.05144
2373.52925	0.05148
2372.24349	0.05149
2370.95772	0.05144
2369.67195	0.05140
2368.38618	0.05151
2367.10041	0.05181
2365.81464	0.05217
2364.52887	0.05244
2363.24310	0.05256
2361.95733	0.05261
2360.67157	0.05270
2359.38580	0.05277
2358.10003	0.05269
2356.81426	0.05243
2355.52849	0.05211
2354.24272	0.05187
2352.95695	0.05173
2351.67118	0.05170
2350.38542	0.05168
2349.09965	0.05166
2347.81388	0.05170
2346.52811	0.05184
2345.24234	0.05184
2343.95657	0.05154
2342.67080	0.05115
2341.38503	0.05118
2340.09926	0.05158
2338.81350	0.05176
2337.52773	0.05164
2336.24196	0.05176
2334.95619	0.05205
2333.67042	0.05200
2332.38465	0.05167
2331.09888	0.05159
2329.81311	0.05145
2328.52735	0.05123
2327.24158	0.05149
2325.95581	0.05204
2324.67004	0.05241
2323.38427	0.05244
2322.09850	0.05219
2320.81273	0.05162
2319.52696	0.05111
2318.24119	0.05083
2316.95543	0.05072
2315.66966	0.05073
2314.38389	0.05068
2313.09812	0.05043
2311.81235	0.05000
2310.52658	0.04945
2309.24081	0.04894
2307.95504	0.04861
2306.66928	0.04835
2305.38351	0.04809
2304.09774	0.04783
2302.81197	0.04765
2301.52620	0.04756
2300.24043	0.04745
2298.95466	0.04722
2297.66889	0.04686
2296.38312	0.04642
2295.09736	0.04599
2293.81159	0.04567
2292.52582	0.04552
2291.24005	0.04550
2289.95428	0.04547
2288.66851	0.04529
2287.38274	0.04492
2286.09697	0.04441
2284.81121	0.04386
2283.52544	0.04331
2282.23967	0.04285
2280.95390	0.04255
2279.66813	0.04245
2278.38236	0.04251
2277.09659	0.04257
2275.81082	0.04244
2274.52505	0.04203
2273.23929	0.04138
2271.95352	0.04067
2270.66775	0.04003
2269.38198	0.03948
2268.09621	0.03897
2266.81044	0.03856
2265.52467	0.03847
2264.23890	0.03882
2262.95314	0.03950
2261.66737	0.04020
2260.38160	0.04056
2259.09583	0.04050
2257.81006	0.04013
2256.52429	0.03961
2255.23852	0.03901
2253.95275	0.03835
2252.66698	0.03775
2251.38122	0.03733
2250.09545	0.03719
2248.80968	0.03731
2247.52391	0.03723
2246.23814	0.03710
2244.95237	0.03704
2243.66660	0.03721
2242.38083	0.03759
2241.09507	0.03801
2239.80930	0.03830
2238.52353	0.03837
2237.23776	0.03823
2235.95199	0.03794
2234.66622	0.03766
2233.38045	0.03755
2232.09468	0.03755
2230.80891	0.03751
2229.52315	0.03733
2228.23738	0.03708
2226.95161	0.03681
2225.66584	0.03649
2224.38007	0.03609
2223.09430	0.03560
2221.80853	0.03510
2220.52276	0.03457
2219.23700	0.03386
2217.95123	0.03281
2216.66546	0.03158
2215.37969	0.03068
2214.09392	0.03058
2212.80815	0.03119
2211.52238	0.03206
2210.23661	0.03280
2208.95084	0.03330
2207.66508	0.03357
2206.37931	0.03358
2205.09354	0.03333
2203.80777	0.03290
2202.52200	0.03235
2201.23623	0.03163
2199.95046	0.03074
2198.66469	0.02977
2197.37893	0.02891
2196.09316	0.02828
2194.80739	0.02809
2193.52162	0.02856
2192.23585	0.02954
2190.95008	0.03036
2189.66431	0.03029
2188.37854	0.02936
2187.09277	0.02828
2185.80701	0.02762
2184.52124	0.02735
2183.23547	0.02727
2181.94970	0.02750
2180.66393	0.02814
2179.37816	0.02884
2178.09239	0.02900
2176.80662	0.02847
2175.52085	0.02770
2174.23509	0.02728
2172.94932	0.02731
2171.66355	0.02740
2170.37778	0.02699
2169.09201	0.02589
2167.80624	0.02447
2166.52047	0.02324
2165.23470	0.02236
2163.94894	0.02170
2162.66317	0.02110
2161.37740	0.02055
2160.09163	0.02014
2158.80586	0.02006
2157.52009	0.02046
2156.23432	0.02121
2154.94855	0.02206
2153.66278	0.02296
2152.37702	0.02390
2151.09125	0.02465
2149.80548	0.02492
2148.51971	0.02478
2147.23394	0.02464
2145.94817	0.02481
2144.66240	0.02534
2143.37663	0.02606
2142.09087	0.02673
2140.80510	0.02717
2139.51933	0.02739
2138.23356	0.02751
2136.94779	0.02757
2135.66202	0.02761
2134.37625	0.02772
2133.09048	0.02796
2131.80471	0.02833
2130.51895	0.02888
2129.23318	0.02970
2127.94741	0.03064
2126.66164	0.03145
2125.37587	0.03206
2124.09010	0.03262
2122.80433	0.03319
2121.51856	0.03360
2120.23280	0.03371
2118.94703	0.03359
2117.66126	0.03347
2116.37549	0.03346
2115.08972	0.03339
2113.80395	0.03309
2112.51818	0.03266
2111.23241	0.03243
2109.94664	0.03257
2108.66088	0.03293
2107.37511	0.03328
2106.08934	0.03351
2104.80357	0.03353
2103.51780	0.03328
2102.23203	0.03285
2100.94626	0.03239
2099.66049	0.03166
2098.37473	0.03098
2097.08896	0.03046
2095.80319	0.03035
2094.51742	0.03082
2093.23165	0.03165
2091.94588	0.03233
2090.66011	0.03248
2089.37434	0.03216
2088.08857	0.03177
2086.80281	0.03164
2085.51704	0.03167
2084.23127	0.03153
2082.94550	0.03100
2081.65973	0.03026
2080.37396	0.02971
2079.08819	0.02960
2077.80242	0.02977
2076.51666	0.02989
2075.23089	0.02971
2073.94512	0.02928
2072.65935	0.02880
2071.37358	0.02843
2070.08781	0.02824
2068.80204	0.02823
2067.51627	0.02839
2066.23050	0.02871
2064.94474	0.02909
2063.65897	0.02921
2062.37320	0.02870
2061.08743	0.02762
2059.80166	0.02649
2058.51589	0.02589
2057.23012	0.02587
2055.94435	0.02594
2054.65859	0.02562
2053.37282	0.02482
2052.08705	0.02384
2050.80128	0.02295
2049.51551	0.02216
2048.22974	0.02145
2046.94397	0.02101
2045.65820	0.02117
2044.37243	0.02203
2043.08667	0.02312
2041.80090	0.02366
2040.51513	0.02321
2039.22936	0.02200
2037.94359	0.02072
2036.65782	0.01996
2035.37205	0.01992
2034.08628	0.02040
2032.80052	0.02101
2031.51475	0.02141
2030.22898	0.02154
2028.94321	0.02165
2027.65744	0.02202
2026.37167	0.02273
2025.08590	0.02352
2023.80013	0.02403
2022.51436	0.02395
2021.22860	0.02319
2019.94283	0.02203
2018.65706	0.02097
2017.37129	0.02033
2016.08552	0.02007
2014.79975	0.02003
2013.51398	0.02020
2012.22821	0.02059
2010.94245	0.02098
2009.65668	0.02110
2008.37091	0.02081
2007.08514	0.02027
2005.79937	0.01986
2004.51360	0.01993
2003.22783	0.02058
2001.94206	0.02156
2000.65629	0.02238
1999.37053	0.02273
1998.08476	0.02262
1996.79899	0.02233
1995.51322	0.02225
1994.22745	0.02268
1992.94168	0.02354
1991.65591	0.02432
1990.37014	0.02452
1989.08438	0.02416
1987.79861	0.02371
1986.51284	0.02350
1985.22707	0.02349
1983.94130	0.02336
1982.65553	0.02288
1981.36976	0.02206
1980.08399	0.02109
1978.79822	0.02014
1977.51246	0.01932
1976.22669	0.01874
1974.94092	0.01863
1973.65515	0.01919
1972.36938	0.02026
1971.08361	0.02138
1969.79784	0.02203
1968.51207	0.02198
1967.22631	0.02144
1965.94054	0.02086
1964.65477	0.02060
1963.36900	0.02070
1962.08323	0.02096
1960.79746	0.02121
1959.51169	0.02148
1958.22592	0.02195
1956.94015	0.02273
1955.65439	0.02364
1954.36862	0.02426
1953.08285	0.02434
1951.79708	0.02402
1950.51131	0.02364
1949.22554	0.02338
1947.93977	0.02319
1946.65400	0.02301
1945.36823	0.02293
1944.08247	0.02302
1942.79670	0.02327
1941.51093	0.02357
1940.22516	0.02382
1938.93939	0.02400
1937.65362	0.02413
1936.36785	0.02423
1935.08208	0.02431
1933.79632	0.02440
1932.51055	0.02455
1931.22478	0.02484
1929.93901	0.02523
1928.65324	0.02566
1927.36747	0.02602
1926.08170	0.02627
1924.79593	0.02643
1923.51016	0.02652
1922.22440	0.02657
1920.93863	0.02657
1919.65286	0.02650
1918.36709	0.02630
1917.08132	0.02606
1915.79555	0.02591
1914.50978	0.02592
1913.22401	0.02603
1911.93825	0.02607
1910.65248	0.02601
1909.36671	0.02589
1908.08094	0.02582
1906.79517	0.02586
1905.50940	0.02604
1904.22363	0.02630
1902.93786	0.02648
1901.65209	0.02642
1900.36633	0.02615
1899.08056	0.02584
1897.79479	0.02571
1896.50902	0.02578
1895.22325	0.02596
1893.93748	0.02613
1892.65171	0.02632
1891.36594	0.02655
1890.08018	0.02678
1888.79441	0.02696
1887.50864	0.02704
1886.22287	0.02704
1884.93710	0.02695
1883.65133	0.02677
1882.36556	0.02655
1881.07979	0.02632
1879.79402	0.02618
1878.50826	0.02620
1877.22249	0.02635
1875.93672	0.02649
1874.65095	0.02652
1873.36518	0.02650
1872.07941	0.02653
1870.79364	0.02663
1869.50787	0.02668
1868.22211	0.02660
1866.93634	0.02641
1865.65057	0.02617
1864.36480	0.02590
1863.07903	0.02562
1861.79326	0.02539
1860.50749	0.02528
1859.22172	0.02527
1857.93595	0.02525
1856.65019	0.02518
1855.36442	0.02509
1854.07865	0.02505
1852.79288	0.02504
1851.50711	0.02503
1850.22134	0.02505
1848.93557	0.02516
1847.64980	0.02538
1846.36404	0.02564
1845.07827	0.02583
1843.79250	0.02590
1842.50673	0.02586
1841.22096	0.02573
1839.93519	0.02557
1838.64942	0.02540
1837.36365	0.02521
1836.07788	0.02502
1834.79212	0.02493
1833.50635	0.02501
1832.22058	0.02524
1830.93481	0.02545
1829.64904	0.02553
1828.36327	0.02547
1827.07750	0.02536
1825.79173	0.02524
1824.50597	0.02513
1823.22020	0.02501
1821.93443	0.02484
1820.64866	0.02461
1819.36289	0.02437
1818.07712	0.02425
1816.79135	0.02430
1815.50558	0.02452
1814.21981	0.02474
1812.93405	0.02484
1811.64828	0.02476
1810.36251	0.02459
1809.07674	0.02447
1807.79097	0.02444
1806.50520	0.02445
1805.21943	0.02443
1803.93366	0.02436
1802.64790	0.02429
1801.36213	0.02426
1800.07636	0.02427
1798.79059	0.02428
1797.50482	0.02430
1796.21905	0.02434
1794.93328	0.02441
1793.64751	0.02450
1792.36174	0.02455
1791.07598	0.02452
1789.79021	0.02440
1788.50444	0.02421
1787.21867	0.02400
1785.93290	0.02388
1784.64713	0.02386
1783.36136	0.02388
1782.07559	0.02385
1780.78983	0.02374
1779.50406	0.02361
1778.21829	0.02357
1776.93252	0.02368
1775.64675	0.02387
1774.36098	0.02402
1773.07521	0.02404
1771.78944	0.02395
1770.50367	0.02383
1769.21791	0.02376
1767.93214	0.02374
1766.64637	0.02374
1765.36060	0.02375
1764.07483	0.02374
1762.78906	0.02370
1761.50329	0.02366
1760.21752	0.02363
1758.93176	0.02366
1757.64599	0.02375
1756.36022	0.02386
1755.07445	0.02399
1753.78868	0.02418
1752.50291	0.02441
1751.21714	0.02464
1749.93137	0.02483
1748.64560	0.02498
1747.35984	0.02511
1746.07407	0.02529
1744.78830	0.02554
1743.50253	0.02585
1742.21676	0.02618
1740.93099	0.02650
1739.64522	0.02683
1738.35945	0.02722
1737.07369	0.02769
1735.78792	0.02816
1734.50215	0.02857
1733.21638	0.02891
1731.93061	0.02921
1730.64484	0.02950
1729.35907	0.02980
1728.07330	0.03010
1726.78753	0.03045
1725.50177	0.03089
1724.21600	0.03144
1722.93023	0.03204
1721.64446	0.03267
1720.35869	0.03330
1719.07292	0.03395
1717.78715	0.03459
1716.50138	0.03520
1715.21561	0.03584
1713.92985	0.03662
1712.64408	0.03766
1711.35831	0.03901
1710.07254	0.04065
1708.78677	0.04253
1707.50100	0.04460
1706.21523	0.04685
1704.92946	0.04928
1703.64370	0.05194
1702.35793	0.05482
1701.07216	0.05786
1699.78639	0.06097
1698.50062	0.06412
1697.21485	0.06736
1695.92908	0.07071
1694.64331	0.07410
1693.35754	0.07741
1692.07178	0.08063
1690.78601	0.08384
1689.50024	0.08716
1688.21447	0.09065
1686.92870	0.09436
1685.64293	0.09826
1684.35716	0.10222
1683.07139	0.10613
1681.78563	0.11002
1680.49986	0.11402
1679.21409	0.11826
1677.92832	0.12274
1676.64255	0.12740
1675.35678	0.13215
1674.07101	0.13696
1672.78524	0.14187
1671.49947	0.14696
1670.21371	0.15221
1668.92794	0.15749
1667.64217	0.16264
1666.35640	0.16760
1665.07063	0.17247
1663.78486	0.17731
1662.49909	0.18210
1661.21332	0.18675
1659.92756	0.19114
1658.64179	0.19524
1657.35602	0.19908
1656.07025	0.20279
1654.78448	0.20647
1653.49871	0.21005
1652.21294	0.21334
1650.92717	0.21620
1649.64140	0.21872
1648.35564	0.22109
1647.06987	0.22345
1645.78410	0.22576
1644.49833	0.22798
1643.21256	0.23011
1641.92679	0.23219
1640.64102	0.23423
1639.35525	0.23620
1638.06949	0.23809
1636.78372	0.23985
1635.49795	0.24140
1634.21218	0.24267
1632.92641	0.24359
1631.64064	0.24414
1630.35487	0.24426
1629.06910	0.24387
1627.78333	0.24292
1626.49757	0.24139
1625.21180	0.23927
1623.92603	0.23659
1622.64026	0.23336
1621.35449	0.22965
1620.06872	0.22556
1618.78295	0.22120
1617.49718	0.21662
1616.21142	0.21189
1614.92565	0.20704
1613.63988	0.20208
1612.35411	0.19702
1611.06834	0.19191
1609.78257	0.18682
1608.49680	0.18181
1607.21103	0.17696
1605.92526	0.17229
1604.63950	0.16781
1603.35373	0.16352
1602.06796	0.15941
1600.78219	0.15547
1599.49642	0.15176
1598.21065	0.14830
1596.92488	0.14511
1595.63911	0.14220
1594.35335	0.13953
1593.06758	0.13711
1591.78181	0.13498
1590.49604	0.13320
1589.21027	0.13177
1587.92450	0.13069
1586.63873	0.12991
1585.35296	0.12940
1584.06719	0.12909
1582.78143	0.12896
1581.49566	0.12901
1580.20989	0.12933
1578.92412	0.13002
1577.63835	0.13110
1576.35258	0.13254
1575.06681	0.13424
1573.78104	0.13612
1572.49528	0.13815
1571.20951	0.14035
1569.92374	0.14275
1568.63797	0.14535
1567.35220	0.14812
1566.06643	0.15101
1564.78066	0.15399
1563.49489	0.15708
1562.20912	0.16030
1560.92336	0.16367
1559.63759	0.16708
1558.35182	0.17033
1557.06605	0.17328
1555.78028	0.17596
1554.49451	0.17847
1553.20874	0.18086
1551.92297	0.18308
1550.63721	0.18513
1549.35144	0.18700
1548.06567	0.18871
1546.77990	0.19026
1545.49413	0.19164
1544.20836	0.19285
1542.92259	0.19390
1541.63682	0.19480
1540.35105	0.19554
1539.06529	0.19607
1537.77952	0.19636
1536.49375	0.19645
1535.20798	0.19643
1533.92221	0.19636
1532.63644	0.19623
1531.35067	0.19601
1530.06490	0.19565
1528.77914	0.19518
1527.49337	0.19458
1526.20760	0.19390
1524.92183	0.19314
1523.63606	0.19234
1522.35029	0.19146
1521.06452	0.19042
1519.77875	0.18919
1518.49298	0.18778
1517.20722	0.18620
1515.92145	0.18443
1514.63568	0.18244
1513.34991	0.18022
1512.06414	0.17779
1510.77837	0.17518
1509.49260	0.17244
1508.20683	0.16954
1506.92107	0.16644
1505.63530	0.16310
1504.34953	0.15954
1503.06376	0.15588
1501.77799	0.15227
1500.49222	0.14878
1499.20645	0.14538
1497.92068	0.14198
1496.63491	0.13849
1495.34915	0.13491
1494.06338	0.13135
1492.77761	0.12791
1491.49184	0.12462
1490.20607	0.12152
1488.92030	0.11864
1487.63453	0.11607
1486.34876	0.11386
1485.06299	0.11199
1483.77723	0.11045
1482.49146	0.10923
1481.20569	0.10839
1479.91992	0.10795
1478.63415	0.10789
1477.34838	0.10816
1476.06261	0.10872
1474.77684	0.10956
1473.49108	0.11066
1472.20531	0.11195
1470.91954	0.11337
1469.63377	0.11486
1468.34800	0.11637
1467.06223	0.11796
1465.77646	0.11966
1464.49069	0.12154
1463.20492	0.12356
1461.91916	0.12570
1460.63339	0.12790
1459.34762	0.13016
1458.06185	0.13243
1456.77608	0.13461
1455.49031	0.13657
1454.20454	0.13818
1452.91877	0.13942
1451.63301	0.14030
1450.34724	0.14088
1449.06147	0.14118
1447.77570	0.14119
1446.48993	0.14091
1445.20416	0.14039
1443.91839	0.13968
1442.63262	0.13884
1441.34685	0.13789
1440.06109	0.13683
1438.77532	0.13565
1437.48955	0.13428
1436.20378	0.13267
1434.91801	0.13084
1433.63224	0.12891
1432.34647	0.12702
1431.06070	0.12529
1429.77494	0.12376
1428.48917	0.12245
1427.20340	0.12136
1425.91763	0.12047
1424.63186	0.11978
1423.34609	0.11927
1422.06032	0.11892
1420.77455	0.11872
1419.48878	0.11861
1418.20302	0.11853
1416.91725	0.11846
1415.63148	0.11844
1414.34571	0.11854
1413.05994	0.11877
1411.77417	0.11910
1410.48840	0.11947
1409.20263	0.11985
1407.91687	0.12025
1406.63110	0.12068
1405.34533	0.12111
1404.05956	0.12150
1402.77379	0.12182
1401.48802	0.12203
1400.20225	0.12210
1398.91648	0.12201
1397.63071	0.12180
1396.34495	0.12151
1395.05918	0.12121
1393.77341	0.12091
1392.48764	0.12061
1391.20187	0.12029
1389.91610	0.11993
1388.63033	0.11952
1387.34456	0.11905
1386.05880	0.11854
1384.77303	0.11803
1383.48726	0.11754
1382.20149	0.11708
1380.91572	0.11662
1379.62995	0.11612
1378.34418	0.11553
1377.05841	0.11484
1375.77264	0.11404
1374.48688	0.11315
1373.20111	0.11217
1371.91534	0.11110
1370.62957	0.10995
1369.34380	0.10871
1368.05803	0.10739
1366.77226	0.10603
1365.48649	0.10469
1364.20073	0.10345
1362.91496	0.10235
1361.62919	0.10141
1360.34342	0.10060
1359.05765	0.09994
1357.77188	0.09947
1356.48611	0.09921
1355.20034	0.09920
1353.91457	0.09943
1352.62881	0.09988
1351.34304	0.10051
1350.05727	0.10126
1348.77150	0.10213
1347.48573	0.10307
1346.19996	0.10408
1344.91419	0.10509
1343.62842	0.10610
1342.34266	0.10709
1341.05689	0.10803
1339.77112	0.10885
1338.48535	0.10948
1337.19958	0.10986
1335.91381	0.10999
1334.62804	0.10985
1333.34227	0.10946
1332.05650	0.10884
1330.77074	0.10803
1329.48497	0.10710
1328.19920	0.10615
1326.91343	0.10522
1325.62766	0.10438
1324.34189	0.10363
1323.05612	0.10301
1321.77035	0.10252
1320.48459	0.10213
1319.19882	0.10180
1317.91305	0.10146
1316.62728	0.10109
1315.34151	0.10068
1314.05574	0.10021
1312.76997	0.09970
1311.48420	0.09914
1310.19843	0.09855
1308.91267	0.09795
1307.62690	0.09738
1306.34113	0.09691
1305.05536	0.09654
1303.76959	0.09622
1302.48382	0.09590
1301.19805	0.09555
1299.91228	0.09522
1298.62652	0.09492
1297.34075	0.09469
1296.05498	0.09455
1294.76921	0.09455
1293.48344	0.09472
1292.19767	0.09504
1290.91190	0.09548
1289.62613	0.09602
1288.34036	0.09665
1287.05460	0.09734
1285.76883	0.09805
1284.48306	0.09871
1283.19729	0.09929
1281.91152	0.09977
1280.62575	0.10015
1279.33998	0.10045
1278.05421	0.10068
1276.76845	0.10086
1275.48268	0.10098
1274.19691	0.10105
1272.91114	0.10110
1271.62537	0.10116
1270.33960	0.10127
1269.05383	0.10150
1267.76806	0.10186
1266.48229	0.10235
1265.19653	0.10292
1263.91076	0.10351
1262.62499	0.10410
1261.33922	0.10472
1260.05345	0.10540
1258.76768	0.10613
1257.48191	0.10690
1256.19614	0.10771
1254.91037	0.10858
1253.62461	0.10955
1252.33884	0.11062
1251.05307	0.11177
1249.76730	0.11298
1248.48153	0.11423
1247.19576	0.11555
1245.90999	0.11691
1244.62422	0.11829
1243.33846	0.11961
1242.05269	0.12086
1240.76692	0.12197
1239.48115	0.12293
1238.19538	0.12368
1236.90961	0.12424
1235.62384	0.12459
1234.33807	0.12476
1233.05230	0.12473
1231.76654	0.12448
1230.48077	0.12398
1229.19500	0.12324
1227.90923	0.12226
1226.62346	0.12106
1225.33769	0.11965
1224.05192	0.11811
1222.76615	0.11649
1221.48039	0.11486
1220.19462	0.11325
1218.90885	0.11168
1217.62308	0.11018
1216.33731	0.10884
1215.05154	0.10777
1213.76577	0.10705
1212.48000	0.10665
1211.19423	0.10650
1209.90847	0.10652
1208.62270	0.10666
1207.33693	0.10691
1206.05116	0.10723
1204.76539	0.10754
1203.47962	0.10772
1202.19385	0.10765
1200.90808	0.10727
1199.62232	0.10660
1198.33655	0.10565
1197.05078	0.10455
1195.76501	0.10335
1194.47924	0.10209
1193.19347	0.10077
1191.90770	0.09943
1190.62193	0.09810
1189.33616	0.09682
1188.05040	0.09559
1186.76463	0.09443
1185.47886	0.09337
1184.19309	0.09244
1182.90732	0.09164
1181.62155	0.09097
1180.33578	0.09042
1179.05001	0.08995
1177.76425	0.08950
1176.47848	0.08902
1175.19271	0.08855
1173.90694	0.08817
1172.62117	0.08796
1171.33540	0.08789
1170.04963	0.08787
1168.76386	0.08782
1167.47809	0.08770
1166.19233	0.08753
1164.90656	0.08738
1163.62079	0.08728
1162.33502	0.08720
1161.04925	0.08711
1159.76348	0.08693
1158.47771	0.08655
1157.19194	0.08593
1155.90618	0.08509
1154.62041	0.08411
1153.33464	0.08310
1152.04887	0.08212
1150.76310	0.08117
1149.47733	0.08022
1148.19156	0.07925
1146.90579	0.07832
1145.62002	0.07749
1144.33426	0.07674
1143.04849	0.07602
1141.76272	0.07528
1140.47695	0.07454
1139.19118	0.07385
1137.90541	0.07324
1136.61964	0.07274
1135.33387	0.07233
1134.04811	0.07202
1132.76234	0.07175
1131.47657	0.07146
1130.19080	0.07112
1128.90503	0.07078
1127.61926	0.07051
1126.33349	0.07035
1125.04772	0.07022
1123.76195	0.07003
1122.47619	0.06980
1121.19042	0.06959
1119.90465	0.06947
1118.61888	0.06944
1117.33311	0.06946
1116.04734	0.06951
1114.76157	0.06958
1113.47580	0.06971
1112.19004	0.06993
1110.90427	0.07017
1109.61850	0.07038
1108.33273	0.07053
1107.04696	0.07070
1105.76119	0.07094
1104.47542	0.07128
1103.18965	0.07170
1101.90388	0.07217
1100.61812	0.07264
1099.33235	0.07308
1098.04658	0.07350
1096.76081	0.07391
1095.47504	0.07439
1094.18927	0.07500
1092.90350	0.07573
1091.61773	0.07656
1090.33197	0.07747
1089.04620	0.07852
1087.76043	0.07975
1086.47466	0.08114
1085.18889	0.08256
1083.90312	0.08382
1082.61735	0.08475
1081.33158	0.08527
1080.04581	0.08540
1078.76005	0.08522
1077.47428	0.08485
1076.18851	0.08436
1074.90274	0.08382
1073.61697	0.08329
1072.33120	0.08279
1071.04543	0.08237
1069.75966	0.08206
1068.47390	0.08184
1067.18813	0.08169
1065.90236	0.08156
1064.61659	0.08143
1063.33082	0.08126
1062.04505	0.08105
1060.75928	0.08079
1059.47351	0.08049
1058.18774	0.08018
1056.90198	0.07984
1055.61621	0.07941
1054.33044	0.07893
1053.04467	0.07843
1051.75890	0.07795
1050.47313	0.07747
1049.18736	0.07702
1047.90159	0.07667
1046.61583	0.07648
1045.33006	0.07640
1044.04429	0.07635
1042.75852	0.07629
1041.47275	0.07628
1040.18698	0.07640
1038.90121	0.07668
1037.61544	0.07705
1036.32967	0.07746
1035.04391	0.07787
1033.75814	0.07829
1032.47237	0.07866
1031.18660	0.07888
1029.90083	0.07885
1028.61506	0.07849
1027.32929	0.07782
1026.04352	0.07693
1024.75775	0.07592
1023.47199	0.07494
1022.18622	0.07404
1020.90045	0.07325
1019.61468	0.07255
1018.32891	0.07198
1017.04314	0.07155
1015.75737	0.07121
1014.47160	0.07085
1013.18584	0.07037
1011.90007	0.06973
1010.61430	0.06898
1009.32853	0.06821
1008.04276	0.06746
1006.75699	0.06674
1005.47122	0.06603
1004.18545	0.06529
1002.89968	0.06456
1001.61392	0.06386
1000.32815	0.06321
999.04238	0.06259
997.75661	0.06199
996.47084	0.06146
995.18507	0.06099
993.89930	0.06053
992.61353	0.06005
991.32777	0.05950
990.04200	0.05893
988.75623	0.05840
987.47046	0.05800
986.18469	0.05775
984.89892	0.05758
983.61315	0.05742
982.32738	0.05724
981.04161	0.05712
979.75585	0.05716
978.47008	0.05740
977.18431	0.05775
975.89854	0.05805
974.61277	0.05819
973.32700	0.05814
972.04123	0.05791
970.75546	0.05760
969.46970	0.05724
968.18393	0.05682
966.89816	0.05632
965.61239	0.05580
964.32662	0.05536
963.04085	0.05507
961.75508	0.05486
960.46931	0.05462
959.18354	0.05427
957.89778	0.05387
956.61201	0.05353
955.32624	0.05330
954.04047	0.05315
952.75470	0.05297
951.46893	0.05274
950.18316	0.05252
948.89739	0.05237
947.61163	0.05228
946.32586	0.05222
945.04009	0.05219
943.75432	0.05221
942.46855	0.05230
941.18278	0.05238
939.89701	0.05240
938.61124	0.05237
937.32547	0.05232
936.03971	0.05228
934.75394	0.05220
933.46817	0.05205
932.18240	0.05188
930.89663	0.05172
929.61086	0.05157
928.32509	0.05145
927.03932	0.05140
925.75356	0.05146
924.46779	0.05159
923.18202	0.05167
921.89625	0.05160
920.61048	0.05138
919.32471	0.05113
918.03894	0.05093
916.75317	0.05075
915.46740	0.05053
914.18164	0.05023
912.89587	0.04987
911.61010	0.04950
910.32433	0.04917
909.03856	0.04892
907.75279	0.04882
906.46702	0.04881
905.18125	0.04880
903.89549	0.04870
902.60972	0.04852
901.32395	0.04831
900.03818	0.04810
898.75241	0.04789
897.46664	0.04771
896.18087	0.04761
894.89510	0.04759
893.60933	0.04758
892.32357	0.04751
891.03780	0.04743
889.75203	0.04740
888.46626	0.04743
887.18049	0.04746
885.89472	0.04744
884.60895	0.04741
883.32318	0.04742
882.03742	0.04748
880.75165	0.04751
879.46588	0.04750
878.18011	0.04748
876.89434	0.04750
875.60857	0.04753
874.32280	0.04748
873.03703	0.04733
871.75126	0.04717
870.46550	0.04706
869.17973	0.04703
867.89396	0.04703
866.60819	0.04700
865.32242	0.04694
864.03665	0.04689
862.75088	0.04686
861.46511	0.04685
860.17935	0.04687
858.89358	0.04687
857.60781	0.04685
856.32204	0.04682
855.03627	0.04678
853.75050	0.04673
852.46473	0.04671
851.17896	0.04676
849.89319	0.04685
848.60743	0.04690
847.32166	0.04680
846.03589	0.04659
844.75012	0.04635
843.46435	0.04615
842.17858	0.04600
840.89281	0.04590
839.60704	0.04587
838.32128	0.04591
837.03551	0.04597
835.74974	0.04597
834.46397	0.04590
833.17820	0.04581
831.89243	0.04579
830.60666	0.04587
829.32089	0.04603
828.03512	0.04623
826.74936	0.04641
825.46359	0.04658
824.17782	0.04673
822.89205	0.04692
821.60628	0.04717
820.32051	0.04749
819.03474	0.04782
817.74897	0.04812
816.46321	0.04835
815.17744	0.04850
813.89167	0.04859
812.60590	0.04869
811.32013	0.04887
810.03436	0.04911
808.74859	0.04936
807.46282	0.04956
806.17705	0.04975
804.89129	0.04990
803.60552	0.05001
802.31975	0.05006
801.03398	0.05009
799.74821	0.05014
798.46244	0.05022
797.17667	0.05037
795.89090	0.05061
794.60513	0.05091
793.31937	0.05122
792.03360	0.05153
790.74783	0.05181
789.46206	0.05201
788.17629	0.05211
786.89052	0.05215
785.60475	0.05225
784.31898	0.05246
783.03322	0.05271
781.74745	0.05291
780.46168	0.05307
779.17591	0.05328
777.89014	0.05356
776.60437	0.05384
775.31860	0.05405
774.03283	0.05421
772.74706	0.05441
771.46130	0.05469
770.17553	0.05501
768.88976	0.05533
767.60399	0.05564
766.31822	0.05596
765.03245	0.05626
763.74668	0.05651
762.46091	0.05673
761.17515	0.05695
759.88938	0.05719
758.60361	0.05741
757.31784	0.05759
756.03207	0.05775
754.74630	0.05792
753.46053	0.05812
752.17476	0.05835
750.88899	0.05859
749.60323	0.05882
748.31746	0.05903
747.03169	0.05927
745.74592	0.05957
744.46015	0.05987
743.17438	0.06015
741.88861	0.06040
740.60284	0.06061
739.31708	0.06077
738.03131	0.06090
736.74554	0.06111
735.45977	0.06149
734.17400	0.06195
732.88823	0.06232
731.60246	0.06256
730.31669	0.06280
729.03092	0.06314
727.74516	0.06353
726.45939	0.06387
725.17362	0.06413
723.88785	0.06433
722.60208	0.06469
721.31631	0.06516
720.03054	0.06562
718.74477	0.06604
717.45901	0.06638
716.17324	0.06663
714.88747	0.06678
713.60170	0.06691
712.31593	0.06709
711.03016	0.06737
709.74439	0.06773
708.45862	0.06814
707.17285	0.06857
705.88709	0.06901
704.60132	0.06940
703.31555	0.06970
702.02978	0.06991
700.74401	0.07008
699.45824	0.07029
698.17247	0.07053
696.88670	0.07080
695.60094	0.07105
694.31517	0.07124
693.02940	0.07133
691.74363	0.07133
690.45786	0.07132
689.17209	0.07138
687.88632	0.07154
686.60055	0.07179
685.31478	0.07208
684.02902	0.07233
682.74325	0.07253
681.45748	0.07267
680.17171	0.07279
678.88594	0.07294
677.60017	0.07315
676.31440	0.07345
675.02863	0.07378
673.74287	0.07407
672.45710	0.07429
671.17133	0.07445
669.88556	0.07463
668.59979	0.07487
667.31402	0.07513
666.02825	0.07538
664.74248	0.07553
663.45671	0.07561
662.17095	0.07565
660.88518	0.07572
659.59941	0.07587
658.31364	0.07607
657.02787	0.07630
655.74210	0.07649
654.45633	0.07667
653.17056	0.07683
651.88480	0.07700
650.59903	0.07714
649.31326	0.07721
648.02749	0.07718
646.74172	0.07711
645.45595	0.07707
644.17018	0.07711
642.88441	0.07722
641.59864	0.07733
640.31288	0.07741
639.02711	0.07745
637.74134	0.07751
636.45557	0.07761
635.16980	0.07774
633.88403	0.07785
632.59826	0.07789
631.31249	0.07781
630.02673	0.07748
628.74096	0.07697
627.45519	0.07684
626.16942	0.07602
624.88365	0.07454
623.59788	0.07277
622.31211	0.07123
621.02634	0.07077
619.74057	0.07202
618.45481	0.07455
617.16904	0.07692
615.88327	0.07783
614.59750	0.07725
613.31173	0.07617
612.02596	0.07543
610.74019	0.07516
609.45442	0.07534
608.16866	0.07609
606.88289	0.07726
605.59712	0.07827
604.31135	0.07879
603.02558	0.07891
601.73981	0.07891
600.45404	0.07891
599.16827	0.07888
597.88250	0.07881
596.59674	0.07873
595.31097	0.07871
594.02520	0.07884
592.73943	0.07906
591.45366	0.07923
590.16789	0.07927
588.88212	0.07917
587.59635	0.07904
586.31059	0.07897
585.02482	0.07902
583.73905	0.07918
582.45328	0.07941
581.16751	0.07963
579.88174	0.07973
578.59597	0.07968
577.31020	0.07952
576.02443	0.07935
574.73867	0.07926
573.45290	0.07925
572.16713	0.07932
570.88136	0.07948
569.59559	0.07977
568.30982	0.08014
567.02405	0.08047
565.73828	0.08069
564.45251	0.08079
563.16675	0.08083
561.88098	0.08088
560.59521	0.08098
559.30944	0.08111
558.02367	0.08119
556.73790	0.08119
555.45213	0.08119
554.16636	0.08128
552.88060	0.08148
551.59483	0.08169
550.30906	0.08184
549.02329	0.08182
547.73752	0.08161
546.45175	0.08126
545.16598	0.08092
543.88021	0.08071
542.59444	0.08061
541.30868	0.08049
540.02291	0.08029
538.73714	0.08011
537.45137	0.08008
536.16560	0.08025
534.87983	0.08052
533.59406	0.08070
532.30829	0.08071
531.02253	0.08060
529.73676	0.08047
528.45099	0.08041
527.16522	0.08037
525.87945	0.08030
524.59368	0.08010
523.30791	0.07976
522.02214	0.07934
520.73637	0.07896
519.45061	0.07868
518.16484	0.07848
516.87907	0.07829
515.59330	0.07812
514.30753	0.07802
513.02176	0.07797
511.73599	0.07789
510.45022	0.07767
509.16446	0.07734
507.87869	0.07699
506.59292	0.07670
505.30715	0.07651
504.02138	0.07642
502.73561	0.07638
501.44984	0.07628
500.16407	0.07603
498.87830	0.07561
497.59254	0.07511
496.30677	0.07466
495.02100	0.07432
493.73523	0.07405
492.44946	0.07381
491.16369	0.07356
489.87792	0.07329
488.59215	0.07303
487.30639	0.07279
486.02062	0.07259
484.73485	0.07239
483.44908	0.07219
482.16331	0.07203
480.87754	0.07190
479.59177	0.07179
478.30600	0.07165
477.02023	0.07146
475.73447	0.07123
474.44870	0.07094
473.16293	0.07055
471.87716	0.07007
470.59139	0.06960
469.30562	0.06924
468.01985	0.06905
466.73408	0.06897
465.44832	0.06886
464.16255	0.06858
462.87678	0.06814
461.59101	0.06767
460.30524	0.06729
459.01947	0.06704
457.73370	0.06685
456.44793	0.06660
455.16216	0.06627
453.87640	0.06586
452.59063	0.06542
451.30486	0.06501
450.01909	0.06468
448.73332	0.06442
447.44755	0.06415
446.16178	0.06383
444.87601	0.06346
443.59025	0.06310
442.30448	0.06276
441.01871	0.06246
439.73294	0.06215
438.44717	0.06184
437.16140	0.06153
435.87563	0.06123
434.58986	0.06096
433.30409	0.06076
432.01833	0.06061
430.73256	0.06047
429.44679	0.06028
428.16102	0.06001
426.87525	0.05970
425.58948	0.05936
424.30371	0.05902
423.01794	0.05869
421.73218	0.05839
420.44641	0.05814
419.16064	0.05791
417.87487	0.05769
416.58910	0.05745
415.30333	0.05721
414.01756	0.05697
412.73179	0.05678
411.44602	0.05663
410.16026	0.05647
408.87449	0.05628
407.58872	0.05607
406.30295	0.05586
405.01718	0.05564
403.73141	0.05536
402.44564	0.05503
401.15987	0.05471
399.87411	0.05441
