3996.16951	0.03552
3994.24086	0.03502
3992.31220	0.03453
3990.38355	0.03442
3988.45490	0.03458
3986.52624	0.03474
3984.59759	0.03503
3982.66894	0.03543
3980.74028	0.03560
3978.81163	0.03548
3976.88298	0.03535
3974.95432	0.03540
3973.02567	0.03561
3971.09702	0.03567
3969.16836	0.03539
3967.23971	0.03512
3965.31106	0.03516
3963.38240	0.03535
3961.45375	0.03552
3959.52510	0.03557
3957.59645	0.03558
3955.66779	0.03567
3953.73914	0.03568
3951.81049	0.03554
3949.88183	0.03528
3947.95318	0.03477
3946.02453	0.03410
3944.09587	0.03363
3942.16722	0.03371
3940.23857	0.03402
3938.30991	0.03387
3936.38126	0.03352
3934.45261	0.03357
3932.52395	0.03391
3930.59530	0.03411
3928.66665	0.03405
3926.73799	0.03402
3924.80934	0.03396
3922.88069	0.03399
3920.95203	0.03412
3919.02338	0.03403
3917.09473	0.03378
3915.16607	0.03380
3913.23742	0.03386
3911.30877	0.03383
3909.38011	0.03415
3907.45146	0.03474
3905.52281	0.03466
3903.59415	0.03386
3901.66550	0.03325
3899.73685	0.03296
3897.80819	0.03304
3895.87954	0.03320
3893.95089	0.03299
3892.02224	0.03254
3890.09358	0.03267
3888.16493	0.03284
3886.23628	0.03259
3884.30762	0.03300
3882.37897	0.03317
3880.45032	0.03259
3878.52166	0.03246
3876.59301	0.03253
3874.66436	0.03266
3872.73570	0.03293
3870.80705	0.03256
3868.87840	0.03268
3866.94974	0.03301
3865.02109	0.03256
3863.09244	0.03231
3861.16378	0.03244
3859.23513	0.03315
3857.30648	0.03399
3855.37782	0.03317
3853.44917	0.03174
3851.52052	0.03180
3849.59186	0.03238
3847.66321	0.03254
3845.73456	0.03192
3843.80590	0.03111
3841.87725	0.03132
3839.94860	0.03178
3838.01994	0.03154
3836.09129	0.03141
3834.16264	0.03131
3832.23398	0.03129
3830.30533	0.03175
3828.37668	0.03201
3826.44803	0.03171
3824.51937	0.03131
3822.59072	0.03081
3820.66207	0.03130
3818.73341	0.03201
3816.80476	0.03108
3814.87611	0.03072
3812.94745	0.03120
3811.01880	0.03124
3809.09015	0.03088
3807.16149	0.03067
3805.23284	0.03155
3803.30419	0.03128
3801.37553	0.02996
3799.44688	0.03027
3797.51823	0.03042
3795.58957	0.02943
3793.66092	0.02880
3791.73227	0.02934
3789.80361	0.03040
3787.87496	0.03100
3785.94631	0.03083
3784.01765	0.03007
3782.08900	0.02950
3780.16035	0.02950
3778.23169	0.02995
3776.30304	0.03040
3774.37439	0.03071
3772.44573	0.03068
3770.51708	0.03005
3768.58843	0.02976
3766.65977	0.02993
3764.73112	0.03015
3762.80247	0.03019
3760.87381	0.02968
3758.94516	0.02946
3757.01651	0.03026
3755.08786	0.03136
3753.15920	0.03132
3751.23055	0.03066
3749.30190	0.03046
3747.37324	0.03062
3745.44459	0.02941
3743.51594	0.02882
3741.58728	0.02962
3739.65863	0.03003
3737.72998	0.02994
3735.80132	0.02952
3733.87267	0.02897
3731.94402	0.02830
3730.01536	0.02834
3728.08671	0.02861
3726.15806	0.02882
3724.22940	0.02891
3722.30075	0.02862
3720.37210	0.02827
3718.44344	0.02810
3716.51479	0.02838
3714.58614	0.02829
3712.65748	0.02747
3710.72883	0.02739
3708.80018	0.02797
3706.87152	0.02823
3704.94287	0.02811
3703.01422	0.02769
3701.08556	0.02738
3699.15691	0.02748
3697.22826	0.02769
3695.29960	0.02824
3693.37095	0.02894
3691.44230	0.02897
3689.51365	0.02768
3687.58499	0.02663
3685.65634	0.02692
3683.72769	0.02751
3681.79903	0.02808
3679.87038	0.02824
3677.94173	0.02752
3676.01307	0.02646
3674.08442	0.02687
3672.15577	0.02711
3670.22711	0.02669
3668.29846	0.02726
3666.36981	0.02756
3664.44115	0.02712
3662.51250	0.02711
3660.58385	0.02784
3658.65519	0.02807
3656.72654	0.02745
3654.79789	0.02753
3652.86923	0.02813
3650.94058	0.02831
3649.01193	0.02863
3647.08327	0.02930
3645.15462	0.02986
3643.22597	0.03007
3641.29731	0.02984
3639.36866	0.02940
3637.44001	0.02920
3635.51135	0.02935
3633.58270	0.02978
3631.65405	0.02984
3629.72539	0.02895
3627.79674	0.02869
3625.86809	0.02908
3623.93943	0.02947
3622.01078	0.03017
3620.08213	0.03097
3618.15348	0.03182
3616.22482	0.03243
3614.29617	0.03235
3612.36752	0.03204
3610.43886	0.03180
3608.51021	0.03166
3606.58156	0.03180
3604.65290	0.03203
3602.72425	0.03254
3600.79560	0.03337
3598.86694	0.03401
3596.93829	0.03391
3595.00964	0.03355
3593.08098	0.03375
3591.15233	0.03421
3589.22368	0.03395
3587.29502	0.03321
3585.36637	0.03307
3583.43772	0.03372
3581.50906	0.03464
3579.58041	0.03542
3577.65176	0.03590
3575.72310	0.03600
3573.79445	0.03603
3571.86580	0.03647
3569.93714	0.03675
3568.00849	0.03637
3566.07984	0.03633
3564.15118	0.03713
3562.22253	0.03798
3560.29388	0.03866
3558.36522	0.03947
3556.43657	0.04012
3554.50792	0.04017
3552.57927	0.03984
3550.65061	0.03983
3548.72196	0.04023
3546.79331	0.04035
3544.86465	0.04008
3542.93600	0.04013
3541.00735	0.04071
3539.07869	0.04115
3537.15004	0.04116
3535.22139	0.04115
3533.29273	0.04151
3531.36408	0.04202
3529.43543	0.04227
3527.50677	0.04238
3525.57812	0.04276
3523.64947	0.04326
3521.72081	0.04347
3519.79216	0.04369
3517.86351	0.04428
3515.93485	0.04484
3514.00620	0.04507
3512.07755	0.04538
3510.14889	0.04600
3508.22024	0.04655
3506.29159	0.04680
3504.36293	0.04681
3502.43428	0.04660
3500.50563	0.04644
3498.57697	0.04682
3496.64832	0.04751
3494.71967	0.04794
3492.79101	0.04821
3490.86236	0.04855
3488.93371	0.04869
3487.00506	0.04844
3485.07640	0.04819
3483.14775	0.04819
3481.21910	0.04828
3479.29044	0.04836
3477.36179	0.04859
3475.43314	0.04903
3473.50448	0.04937
3471.57583	0.04934
3469.64718	0.04933
3467.71852	0.04979
3465.78987	0.05063
3463.86122	0.05119
3461.93256	0.05104
3460.00391	0.05073
3458.07526	0.05109
3456.14660	0.05183
3454.21795	0.05212
3452.28930	0.05216
3450.36064	0.05248
3448.43199	0.05276
3446.50334	0.05268
3444.57468	0.05238
3442.64603	0.05224
3440.71738	0.05245
3438.78872	0.05282
3436.86007	0.05329
3434.93142	0.05392
3433.00276	0.05447
3431.07411	0.05490
3429.14546	0.05515
3427.21680	0.05505
3425.28815	0.05492
3423.35950	0.05510
3421.43084	0.05520
3419.50219	0.05514
3417.57354	0.05539
3415.64489	0.05610
3413.71623	0.05669
3411.78758	0.05675
3409.85893	0.05664
3407.93027	0.05662
3406.00162	0.05654
3404.07297	0.05646
3402.14431	0.05672
3400.21566	0.05738
3398.28701	0.05791
3396.35835	0.05817
3394.42970	0.05850
3392.50105	0.05867
3390.57239	0.05848
3388.64374	0.05839
3386.71509	0.05856
3384.78643	0.05868
3382.85778	0.05870
3380.92913	0.05887
3379.00047	0.05924
3377.07182	0.05949
3375.14317	0.05953
3373.21451	0.05969
3371.28586	0.06010
3369.35721	0.06055
3367.42855	0.06084
3365.49990	0.06102
3363.57125	0.06132
3361.64259	0.06182
3359.71394	0.06238
3357.78529	0.06292
3355.85663	0.06350
3353.92798	0.06405
3351.99933	0.06459
3350.07068	0.06518
3348.14202	0.06577
3346.21337	0.06629
3344.28472	0.06653
3342.35606	0.06659
3340.42741	0.06682
3338.49876	0.06720
3336.57010	0.06748
3334.64145	0.06767
3332.71280	0.06809
3330.78414	0.06896
3328.85549	0.06994
3326.92684	0.07044
3324.99818	0.07035
3323.06953	0.07018
3321.14088	0.07029
3319.21222	0.07047
3317.28357	0.07064
3315.35492	0.07100
3313.42626	0.07143
3311.49761	0.07162
3309.56896	0.07152
3307.64030	0.07144
3305.71165	0.07152
3303.78300	0.07161
3301.85434	0.07183
3299.92569	0.07232
3297.99704	0.07271
3296.06838	0.07267
3294.13973	0.07241
3292.21108	0.07217
3290.28242	0.07189
3288.35377	0.07171
3286.42512	0.07183
3284.49646	0.07215
3282.56781	0.07256
3280.63916	0.07265
3278.71051	0.07220
3276.78185	0.07173
3274.85320	0.07157
3272.92455	0.07138
3270.99589	0.07093
3269.06724	0.07061
3267.13859	0.07066
3265.20993	0.07081
3263.28128	0.07074
3261.35263	0.07049
3259.42397	0.07028
3257.49532	0.07000
3255.56667	0.06949
3253.63801	0.06904
3251.70936	0.06871
3249.78071	0.06833
3247.85205	0.06810
3245.92340	0.06816
3243.99475	0.06804
3242.06609	0.06763
3240.13744	0.06749
3238.20879	0.06763
3236.28013	0.06743
3234.35148	0.06672
3232.42283	0.06608
3230.49417	0.06595
3228.56552	0.06622
3226.63687	0.06644
3224.70821	0.06626
3222.77956	0.06578
3220.85091	0.06539
3218.92225	0.06539
3216.99360	0.06562
3215.06495	0.06552
3213.13630	0.06508
3211.20764	0.06468
3209.27899	0.06449
3207.35034	0.06445
3205.42168	0.06449
3203.49303	0.06456
3201.56438	0.06477
3199.63572	0.06487
3197.70707	0.06436
3195.77842	0.06330
3193.84976	0.06232
3191.92111	0.06180
3189.99246	0.06176
3188.06380	0.06203
3186.13515	0.06221
3184.20650	0.06197
3182.27784	0.06152
3180.34919	0.06116
3178.42054	0.06088
3176.49188	0.06048
3174.56323	0.05996
3172.63458	0.05948
3170.70592	0.05904
3168.77727	0.05866
3166.84862	0.05846
3164.91996	0.05826
3162.99131	0.05777
3161.06266	0.05718
3159.13400	0.05685
3157.20535	0.05665
3155.27670	0.05624
3153.34804	0.05569
3151.41939	0.05528
3149.49074	0.05503
3147.56209	0.05474
3145.63343	0.05451
3143.70478	0.05445
3141.77613	0.05440
3139.84747	0.05418
3137.91882	0.05376
3135.99017	0.05334
3134.06151	0.05306
3132.13286	0.05283
3130.20421	0.05268
3128.27555	0.05261
3126.34690	0.05242
3124.41825	0.05216
3122.48959	0.05195
3120.56094	0.05185
3118.63229	0.05191
3116.70363	0.05185
3114.77498	0.05143
3112.84633	0.05111
3110.91767	0.05127
3108.98902	0.05157
3107.06037	0.05172
3105.13171	0.05187
3103.20306	0.05192
3101.27441	0.05179
3099.34575	0.05164
3097.41710	0.05153
3095.48845	0.05151
3093.55979	0.05164
3091.63114	0.05181
3089.70249	0.05187
3087.77383	0.05180
3085.84518	0.05185
3083.91653	0.05209
3081.98787	0.05243
3080.05922	0.05266
3078.13057	0.05273
3076.20192	0.05261
3074.27326	0.05243
3072.34461	0.05245
3070.41596	0.05262
3068.48730	0.05260
3066.55865	0.05233
3064.63000	0.05208
3062.70134	0.05192
3060.77269	0.05186
3058.84404	0.05183
3056.91538	0.05174
3054.98673	0.05161
3053.05808	0.05144
3051.12942	0.05118
3049.20077	0.05085
3047.27212	0.05043
3045.34346	0.04986
3043.41481	0.04942
3041.48616	0.04929
3039.55750	0.04916
3037.62885	0.04876
3035.70020	0.04827
3033.77154	0.04800
3031.84289	0.04791
3029.91424	0.04781
3027.98558	0.04758
3026.05693	0.04719
3024.12828	0.04676
3022.19962	0.04636
3020.27097	0.04594
3018.34232	0.04546
3016.41366	0.04512
3014.48501	0.04510
3012.55636	0.04521
3010.62771	0.04525
3008.69905	0.04528
3006.77040	0.04537
3004.84175	0.04536
3002.91309	0.04526
3000.98444	0.04531
2999.05579	0.04534
2997.12713	0.04520
2995.19848	0.04510
2993.26983	0.04519
2991.34117	0.04526
2989.41252	0.04522
2987.48387	0.04538
2985.55521	0.04579
2983.62656	0.04633
2981.69791	0.04701
2979.76925	0.04761
2977.84060	0.04771
2975.91195	0.04739
2973.98329	0.04725
2972.05464	0.04751
2970.12599	0.04778
2968.19733	0.04785
2966.26868	0.04793
2964.34003	0.04808
2962.41137	0.04803
2960.48272	0.04792
2958.55407	0.04819
2956.62541	0.04866
2954.69676	0.04882
2952.76811	0.04864
2950.83945	0.04842
2948.91080	0.04844
2946.98215	0.04881
2945.05349	0.04925
2943.12484	0.04943
2941.19619	0.04957
2939.26754	0.04989
2937.33888	0.04997
2935.41023	0.04967
2933.48158	0.04926
2931.55292	0.04876
2929.62427	0.04836
2927.69562	0.04841
2925.76696	0.04865
2923.83831	0.04864
2921.90966	0.04831
2919.98100	0.04789
2918.05235	0.04775
2916.12370	0.04775
2914.19504	0.04737
2912.26639	0.04669
2910.33774	0.04605
2908.40908	0.04552
2906.48043	0.04526
2904.55178	0.04526
2902.62312	0.04510
2900.69447	0.04478
2898.76582	0.04469
2896.83716	0.04482
2894.90851	0.04473
2892.97986	0.04428
2891.05120	0.04390
2889.12255	0.04403
2887.19390	0.04434
2885.26524	0.04433
2883.33659	0.04411
2881.40794	0.04398
2879.47928	0.04397
2877.55063	0.04403
2875.62198	0.04419
2873.69333	0.04428
2871.76467	0.04411
2869.83602	0.04376
2867.90737	0.04333
2865.97871	0.04288
2864.05006	0.04251
2862.12141	0.04224
2860.19275	0.04199
2858.26410	0.04167
2856.33545	0.04142
2854.40679	0.04145
2852.47814	0.04156
2850.54949	0.04143
2848.62083	0.04100
2846.69218	0.04052
2844.76353	0.04033
2842.83487	0.04025
2840.90622	0.03999
2838.97757	0.03964
2837.04891	0.03936
2835.12026	0.03920
2833.19161	0.03910
2831.26295	0.03897
2829.33430	0.03871
2827.40565	0.03832
2825.47699	0.03804
2823.54834	0.03795
2821.61969	0.03784
2819.69103	0.03773
2817.76238	0.03774
2815.83373	0.03777
2813.90507	0.03779
2811.97642	0.03784
2810.04777	0.03775
2808.11912	0.03754
2806.19046	0.03747
2804.26181	0.03749
2802.33316	0.03733
2800.40450	0.03710
2798.47585	0.03697
2796.54720	0.03688
2794.61854	0.03680
2792.68989	0.03676
2790.76124	0.03663
2788.83258	0.03628
2786.90393	0.03590
2784.97528	0.03573
2783.04662	0.03573
2781.11797	0.03570
2779.18932	0.03569
2777.26066	0.03581
2775.33201	0.03587
2773.40336	0.03578
2771.47470	0.03561
2769.54605	0.03539
2767.61740	0.03515
2765.68874	0.03506
2763.76009	0.03510
2761.83144	0.03507
2759.90278	0.03490
2757.97413	0.03471
2756.04548	0.03457
2754.11682	0.03453
2752.18817	0.03451
2750.25952	0.03435
2748.33086	0.03415
2746.40221	0.03418
2744.47356	0.03420
2742.54490	0.03394
2740.61625	0.03362
2738.68760	0.03357
2736.75895	0.03370
2734.83029	0.03381
2732.90164	0.03381
2730.97299	0.03369
2729.04433	0.03346
2727.11568	0.03330
2725.18703	0.03334
2723.25837	0.03348
2721.32972	0.03358
2719.40107	0.03352
2717.47241	0.03319
2715.54376	0.03278
2713.61511	0.03254
2711.68645	0.03241
2709.75780	0.03236
2707.82915	0.03244
2705.90049	0.03251
2703.97184	0.03241
2702.04319	0.03217
2700.11453	0.03203
2698.18588	0.03205
2696.25723	0.03190
2694.32857	0.03152
2692.39992	0.03121
2690.47127	0.03120
2688.54261	0.03135
2686.61396	0.03151
2684.68531	0.03162
2682.75665	0.03166
2680.82800	0.03163
2678.89935	0.03158
2676.97069	0.03150
2675.04204	0.03135
2673.11339	0.03122
2671.18474	0.03114
2669.25608	0.03106
2667.32743	0.03100
2665.39878	0.03101
2663.47012	0.03114
2661.54147	0.03121
2659.61282	0.03098
2657.68416	0.03055
2655.75551	0.03022
2653.82686	0.03010
2651.89820	0.03016
2649.96955	0.03014
2648.04090	0.02996
2646.11224	0.02970
2644.18359	0.02939
2642.25494	0.02920
2640.32628	0.02928
2638.39763	0.02941
2636.46898	0.02927
2634.54032	0.02894
2632.61167	0.02862
2630.68302	0.02838
2628.75436	0.02816
2626.82571	0.02801
2624.89706	0.02809
2622.96840	0.02820
2621.03975	0.02800
2619.11110	0.02750
2617.18244	0.02703
2615.25379	0.02691
2613.32514	0.02710
2611.39648	0.02717
2609.46783	0.02692
2607.53918	0.02651
2605.61052	0.02621
2603.68187	0.02624
2601.75322	0.02653
2599.82457	0.02664
2597.89591	0.02650
2595.96726	0.02633
2594.03861	0.02616
2592.10995	0.02599
2590.18130	0.02582
2588.25265	0.02540
2586.32399	0.02485
2584.39534	0.02461
2582.46669	0.02474
2580.53803	0.02491
2578.60938	0.02496
2576.68073	0.02488
2574.75207	0.02479
2572.82342	0.02493
2570.89477	0.02504
2568.96611	0.02461
2567.03746	0.02391
2565.10881	0.02355
2563.18015	0.02355
2561.25150	0.02355
2559.32285	0.02364
2557.39419	0.02396
2555.46554	0.02426
2553.53689	0.02432
2551.60823	0.02418
2549.67958	0.02394
2547.75093	0.02375
2545.82227	0.02370
2543.89362	0.02383
2541.96497	0.02389
2540.03631	0.02370
2538.10766	0.02328
2536.17901	0.02269
2534.25036	0.02231
2532.32170	0.02246
2530.39305	0.02280
2528.46440	0.02281
2526.53574	0.02239
2524.60709	0.02197
2522.67844	0.02192
2520.74978	0.02206
2518.82113	0.02214
2516.89248	0.02218
2514.96382	0.02211
2513.03517	0.02202
2511.10652	0.02210
2509.17786	0.02215
2507.24921	0.02202
2505.32056	0.02177
2503.39190	0.02165
2501.46325	0.02164
2499.53460	0.02148
2497.60594	0.02134
2495.67729	0.02165
2493.74864	0.02219
2491.81998	0.02236
2489.89133	0.02219
2487.96268	0.02214
2486.03402	0.02226
2484.10537	0.02229
2482.17672	0.02223
2480.24806	0.02217
2478.31941	0.02193
2476.39076	0.02162
2474.46210	0.02150
2472.53345	0.02137
2470.60480	0.02134
2468.67615	0.02141
2466.74749	0.02122
2464.81884	0.02110
2462.89019	0.02146
2460.96153	0.02160
2459.03288	0.02121
2457.10423	0.02089
2455.17557	0.02078
2453.24692	0.02056
2451.31827	0.02043
2449.38961	0.02060
2447.46096	0.02064
2445.53231	0.02047
2443.60365	0.02047
2441.67500	0.02056
2439.74635	0.02063
2437.81769	0.02083
2435.88904	0.02098
2433.96039	0.02085
2432.03173	0.02060
2430.10308	0.02051
2428.17443	0.02049
2426.24577	0.02030
2424.31712	0.02025
2422.38847	0.02058
2420.45981	0.02087
2418.53116	0.02103
2416.60251	0.02129
2414.67385	0.02125
2412.74520	0.02089
2410.81655	0.02081
2408.88789	0.02104
2406.95924	0.02106
2405.03059	0.02066
2403.10193	0.02035
2401.17328	0.02053
2399.24463	0.02084
2397.31598	0.02073
2395.38732	0.02061
2393.45867	0.02086
2391.53002	0.02119
2389.60136	0.02124
2387.67271	0.02117
2385.74406	0.02116
2383.81540	0.02102
2381.88675	0.02083
2379.95810	0.02092
2378.02944	0.02126
2376.10079	0.02152
2374.17214	0.02159
2372.24348	0.02169
2370.31483	0.02217
2368.38618	0.02190
2366.45752	0.02193
2364.52887	0.02179
2362.60022	0.02209
2360.67156	0.02168
2358.74291	0.02219
2356.81426	0.02160
2354.88560	0.02179
2352.95695	0.02189
2351.02830	0.02149
2349.09964	0.02148
2347.17099	0.02164
2345.24234	0.02174
2343.31368	0.02179
2341.38503	0.02220
2339.45638	0.02252
2337.52772	0.02240
2335.59907	0.02198
2333.67042	0.02170
2331.74177	0.02151
2329.81311	0.02131
2327.88446	0.02118
2325.95581	0.02125
2324.02715	0.02144
2322.09850	0.02170
2320.16985	0.02171
2318.24119	0.02136
2316.31254	0.02085
2314.38389	0.02057
2312.45523	0.02057
2310.52658	0.02061
2308.59793	0.02048
2306.66927	0.02016
2304.74062	0.01980
2302.81197	0.01959
2300.88331	0.01952
2298.95466	0.01929
2297.02601	0.01895
2295.09735	0.01872
2293.16870	0.01860
2291.24005	0.01845
2289.31139	0.01844
2287.38274	0.01850
2285.45409	0.01826
2283.52543	0.01774
2281.59678	0.01745
2279.66813	0.01750
2277.73947	0.01750
2275.81082	0.01737
2273.88217	0.01721
2271.95351	0.01694
2270.02486	0.01669
2268.09621	0.01668
2266.16755	0.01671
2264.23890	0.01677
2262.31025	0.01702
2260.38160	0.01717
2258.45294	0.01689
2256.52429	0.01653
2254.59564	0.01627
2252.66698	0.01553
2250.73833	0.01441
2248.80968	0.01421
2246.88102	0.01458
2244.95237	0.01476
2243.02372	0.01450
2241.09506	0.01422
2239.16641	0.01360
2237.23776	0.01270
2235.30910	0.01277
2233.38045	0.01403
2231.45180	0.01506
2229.52314	0.01505
2227.59449	0.01457
2225.66584	0.01413
2223.73718	0.01393
2221.80853	0.01378
2219.87988	0.01320
2217.95122	0.01250
2216.02257	0.01201
2214.09392	0.01158
2212.16526	0.01138
2210.23661	0.01114
2208.30796	0.01086
2206.37930	0.01089
2204.45065	0.01061
2202.52200	0.01014
2200.59334	0.01004
2198.66469	0.00994
2196.73604	0.00999
2194.80739	0.01048
2192.87873	0.01081
2190.95008	0.01087
2189.02143	0.01121
2187.09277	0.01182
2185.16412	0.01160
2183.23547	0.01021
2181.30681	0.00910
2179.37816	0.00903
2177.44951	0.00945
2175.52085	0.00941
2173.59220	0.00823
2171.66355	0.00694
2169.73489	0.00701
2167.80624	0.00761
2165.87759	0.00695
2163.94893	0.00519
2162.02028	0.00356
2160.09163	0.00273
2158.16297	0.00353
2156.23432	0.00607
2154.30567	0.00812
2152.37701	0.00835
2150.44836	0.00790
2148.51971	0.00772
2146.59105	0.00811
2144.66240	0.00912
2142.73375	0.01013
2140.80509	0.01101
2138.87644	0.01175
2136.94779	0.01196
2135.01913	0.01181
2133.09048	0.01158
2131.16183	0.01149
2129.23318	0.01173
2127.30452	0.01216
2125.37587	0.01293
2123.44722	0.01382
2121.51856	0.01403
2119.58991	0.01375
2117.66126	0.01384
2115.73260	0.01405
2113.80395	0.01390
2111.87530	0.01357
2109.94664	0.01330
2108.01799	0.01313
2106.08934	0.01299
2104.16068	0.01264
2102.23203	0.01194
2100.30338	0.01128
2098.37472	0.01092
2096.44607	0.01145
2094.51742	0.01223
2092.58876	0.01277
2090.66011	0.01325
2088.73146	0.01358
2086.80280	0.01336
2084.87415	0.01293
2082.94550	0.01257
2081.01684	0.01193
2079.08819	0.01075
2077.15954	0.00980
2075.23088	0.00972
2073.30223	0.01003
2071.37358	0.00985
2069.44492	0.00914
2067.51627	0.00865
2065.58762	0.00875
2063.65896	0.00931
2061.73031	0.01038
2059.80166	0.01151
2057.87301	0.01197
2055.94435	0.01196
2054.01570	0.01192
2052.08705	0.01147
2050.15839	0.01030
2048.22974	0.00904
2046.30109	0.00833
2044.37243	0.00802
2042.44378	0.00800
2040.51513	0.00800
2038.58647	0.00743
2036.65782	0.00648
2034.72917	0.00588
2032.80051	0.00563
2030.87186	0.00538
2028.94321	0.00491
2027.01455	0.00450
2025.08590	0.00442
2023.15725	0.00422
2021.22859	0.00378
2019.29994	0.00371
2017.37129	0.00420
2015.44263	0.00526
2013.51398	0.00673
2011.58533	0.00774
2009.65667	0.00747
2007.72802	0.00624
2005.79937	0.00546
2003.87071	0.00580
2001.94206	0.00660
2000.01341	0.00745
1998.08475	0.00849
1996.15610	0.00935
1994.22745	0.00935
1992.29880	0.00860
1990.37014	0.00784
1988.44149	0.00756
1986.51284	0.00796
1984.58418	0.00873
1982.65553	0.00903
1980.72688	0.00822
1978.79822	0.00638
1976.86957	0.00451
1974.94092	0.00348
1973.01226	0.00312
1971.08361	0.00351
1969.15496	0.00472
1967.22630	0.00634
1965.29765	0.00774
1963.36900	0.00836
1961.44034	0.00839
1959.51169	0.00826
1957.58304	0.00822
1955.65438	0.00834
1953.72573	0.00819
1951.79708	0.00765
1949.86842	0.00765
1947.93977	0.00849
1946.01112	0.00921
1944.08246	0.00908
1942.15381	0.00862
1940.22516	0.00871
1938.29650	0.00914
1936.36785	0.00929
1934.43920	0.00935
1932.51054	0.00958
1930.58189	0.00963
1928.65324	0.00949
1926.72458	0.00954
1924.79593	0.00979
1922.86728	0.01027
1920.93863	0.01078
1919.00997	0.01074
1917.08132	0.01040
1915.15267	0.01007
1913.22401	0.00988
1911.29536	0.01022
1909.36671	0.01067
1907.43805	0.01063
1905.50940	0.01035
1903.58075	0.01036
1901.65209	0.01075
1899.72344	0.01105
1897.79479	0.01098
1895.86613	0.01082
1893.93748	0.01078
1892.00883	0.01076
1890.08017	0.01082
1888.15152	0.01104
1886.22287	0.01116
1884.29421	0.01107
1882.36556	0.01090
1880.43691	0.01082
1878.50825	0.01099
1876.57960	0.01118
1874.65095	0.01113
1872.72229	0.01093
1870.79364	0.01078
1868.86499	0.01072
1866.93633	0.01082
1865.00768	0.01099
1863.07903	0.01105
1861.15037	0.01102
1859.22172	0.01105
1857.29307	0.01133
1855.36442	0.01171
1853.43576	0.01176
1851.50711	0.01135
1849.57846	0.01092
1847.64980	0.01084
1845.72115	0.01092
1843.79250	0.01108
1841.86384	0.01131
1839.93519	0.01122
1838.00654	0.01104
1836.07788	0.01110
1834.14923	0.01121
1832.22058	0.01114
1830.29192	0.01100
1828.36327	0.01106
1826.43462	0.01095
1824.50596	0.01051
1822.57731	0.01007
1820.64866	0.00979
1818.72000	0.00986
1816.79135	0.01029
1814.86270	0.01080
1812.93404	0.01111
1811.00539	0.01124
1809.07674	0.01129
1807.14808	0.01126
1805.21943	0.01119
1803.29078	0.01108
1801.36212	0.01091
1799.43347	0.01080
1797.50482	0.01091
1795.57616	0.01110
1793.64751	0.01103
1791.71886	0.01088
1789.79021	0.01097
1787.86155	0.01096
1785.93290	0.01075
1784.00425	0.01057
1782.07559	0.01043
1780.14694	0.01034
1778.21829	0.01046
1776.28963	0.01062
1774.36098	0.01054
1772.43233	0.01042
1770.50367	0.01057
1768.57502	0.01060
1766.64637	0.01068
1764.71771	0.01085
1762.78906	0.01078
1760.86041	0.01078
1758.93175	0.01083
1757.00310	0.01085
1755.07445	0.01111
1753.14579	0.01117
1751.21714	0.01105
1749.28849	0.01129
1747.35983	0.01165
1745.43118	0.01188
1743.50253	0.01206
1741.57387	0.01221
1739.64522	0.01241
1737.71657	0.01290
1735.78791	0.01301
1733.85926	0.01290
1731.93061	0.01328
1730.00195	0.01356
1728.07330	0.01381
1726.14465	0.01419
1724.21599	0.01451
1722.28734	0.01488
1720.35869	0.01511
1718.43004	0.01502
1716.50138	0.01531
1714.57273	0.01599
1712.64408	0.01660
1710.71542	0.01723
1708.78677	0.01798
1706.85812	0.01893
1704.92946	0.02032
1703.00081	0.02189
1701.07216	0.02314
1699.14350	0.02505
1697.21485	0.02701
1695.28620	0.02877
1693.35754	0.03111
1691.42889	0.03318
1689.50024	0.03526
1687.57158	0.03751
1685.64293	0.03927
1683.71428	0.04135
1681.78562	0.04417
1679.85697	0.04699
1677.92832	0.04989
1675.99966	0.05270
1674.07101	0.05579
1672.14236	0.05906
1670.21370	0.06211
1668.28505	0.06528
1666.35640	0.06851
1664.42774	0.07142
1662.49909	0.07417
1660.57044	0.07701
1658.64178	0.07980
1656.71313	0.08234
1654.78448	0.08385
1652.85583	0.08505
1650.92717	0.08711
1648.99852	0.08863
1647.06987	0.08940
1645.14121	0.09051
1643.21256	0.09180
1641.28391	0.09286
1639.35525	0.09387
1637.42660	0.09450
1635.49795	0.09487
1633.56929	0.09556
1631.64064	0.09601
1629.71199	0.09583
1627.78333	0.09518
1625.85468	0.09394
1623.92603	0.09201
1621.99737	0.08985
1620.06872	0.08745
1618.14007	0.08434
1616.21141	0.08117
1614.28276	0.07848
1612.35411	0.07559
1610.42545	0.07252
1608.49680	0.06957
1606.56815	0.06678
1604.63949	0.06414
1602.71084	0.06168
1600.78219	0.05946
1598.85353	0.05748
1596.92488	0.05566
1594.99623	0.05402
1593.06757	0.05265
1591.13892	0.05157
1589.21027	0.05071
1587.28161	0.05006
1585.35296	0.04965
1583.42431	0.04948
1581.49566	0.04962
1579.56700	0.05004
1577.63835	0.05032
1575.70970	0.05091
1573.78104	0.05235
1571.85239	0.05383
1569.92374	0.05533
1567.99508	0.05728
1566.06643	0.05933
1564.13778	0.06150
1562.20912	0.06365
1560.28047	0.06513
1558.35182	0.06683
1556.42316	0.06903
1554.49451	0.07075
1552.56586	0.07218
1550.63720	0.07341
1548.70855	0.07454
1546.77990	0.07561
1544.85124	0.07647
1542.92259	0.07697
1540.99394	0.07692
1539.06528	0.07702
1537.13663	0.07758
1535.20798	0.07761
1533.27932	0.07724
1531.35067	0.07708
1529.42202	0.07684
1527.49336	0.07635
1525.56471	0.07578
1523.63606	0.07500
1521.70740	0.07396
1519.77875	0.07326
1517.85010	0.07253
1515.92145	0.07152
1513.99279	0.07036
1512.06414	0.06902
1510.13549	0.06753
1508.20683	0.06543
1506.27818	0.06311
1504.34953	0.06142
1502.42087	0.05969
1500.49222	0.05761
1498.56357	0.05543
1496.63491	0.05328
1494.70626	0.05142
1492.77761	0.04957
1490.84895	0.04759
1488.92030	0.04594
1486.99165	0.04469
1485.06299	0.04377
1483.13434	0.04312
1481.20569	0.04273
1479.27703	0.04265
1477.34838	0.04279
1475.41973	0.04315
1473.49107	0.04367
1471.56242	0.04453
1469.63377	0.04570
1467.70511	0.04678
1465.77646	0.04772
1463.84781	0.04884
1461.91915	0.05021
1459.99050	0.05146
1458.06185	0.05232
1456.13319	0.05328
1454.20454	0.05443
1452.27589	0.05515
1450.34724	0.05550
1448.41858	0.05548
1446.48993	0.05524
1444.56128	0.05486
1442.63262	0.05438
1440.70397	0.05394
1438.77532	0.05327
1436.84666	0.05223
1434.91801	0.05123
1432.98936	0.05017
1431.06070	0.04907
1429.13205	0.04827
1427.20340	0.04777
1425.27474	0.04740
1423.34609	0.04720
1421.41744	0.04699
1419.48878	0.04666
1417.56013	0.04663
1415.63148	0.04678
1413.70282	0.04694
1411.77417	0.04715
1409.84552	0.04741
1407.91686	0.04769
1405.98821	0.04794
1404.05956	0.04815
1402.13090	0.04828
1400.20225	0.04819
1398.27360	0.04801
1396.34494	0.04780
1394.41629	0.04760
1392.48764	0.04760
1390.55898	0.04756
1388.63033	0.04734
1386.70168	0.04714
1384.77302	0.04701
1382.84437	0.04677
1380.91572	0.04645
1378.98707	0.04613
1377.05841	0.04579
1375.12976	0.04534
1373.20111	0.04483
1371.27245	0.04427
1369.34380	0.04355
1367.41515	0.04282
1365.48649	0.04216
1363.55784	0.04151
1361.62919	0.04093
1359.70053	0.04045
1357.77188	0.04011
1355.84323	0.04002
1353.91457	0.04020
1351.98592	0.04055
1350.05727	0.04103
1348.12861	0.04164
1346.19996	0.04232
1344.27131	0.04300
1342.34265	0.04363
1340.41400	0.04420
1338.48535	0.04461
1336.55669	0.04484
1334.62804	0.04487
1332.69939	0.04462
1330.77073	0.04408
1328.84208	0.04342
1326.91343	0.04283
1324.98477	0.04236
1323.05612	0.04196
1321.12747	0.04165
1319.19881	0.04150
1317.27016	0.04141
1315.34151	0.04126
1313.41286	0.04100
1311.48420	0.04063
1309.55555	0.04022
1307.62690	0.03987
1305.69824	0.03968
1303.76959	0.03958
1301.84094	0.03950
1299.91228	0.03934
1297.98363	0.03915
1296.05498	0.03904
1294.12632	0.03914
1292.19767	0.03948
1290.26902	0.03994
1288.34036	0.04040
1286.41171	0.04086
1284.48306	0.04131
1282.55440	0.04172
1280.62575	0.04201
1278.69710	0.04218
1276.76844	0.04225
1274.83979	0.04225
1272.91114	0.04227
1270.98248	0.04241
1269.05383	0.04263
1267.12518	0.04289
1265.19652	0.04320
1263.26787	0.04360
1261.33922	0.04402
1259.41056	0.04447
1257.48191	0.04506
1255.55326	0.04576
1253.62460	0.04647
1251.69595	0.04720
1249.76730	0.04799
1247.83864	0.04884
1245.90999	0.04968
1243.98134	0.05051
1242.05269	0.05137
1240.12403	0.05218
1238.19538	0.05281
1236.26673	0.05321
1234.33807	0.05345
1232.40942	0.05344
1230.48077	0.05307
1228.55211	0.05246
1226.62346	0.05168
1224.69481	0.05070
1222.76615	0.04955
1220.83750	0.04844
1218.90885	0.04750
1216.98019	0.04677
1215.05154	0.04624
1213.12289	0.04589
1211.19423	0.04574
1209.26558	0.04582
1207.33693	0.04608
1205.40827	0.04633
1203.47962	0.04643
1201.55097	0.04633
1199.62231	0.04623
1197.69366	0.04565
1195.76501	0.04489
1193.83635	0.04404
1191.90770	0.04322
1189.97905	0.04243
1188.05039	0.04170
1186.12174	0.04106
1184.19309	0.04046
1182.26443	0.03999
1180.33578	0.03971
1178.40713	0.03950
1176.47848	0.03935
1174.54982	0.03932
1172.62117	0.03930
1170.69252	0.03918
1168.76386	0.03902
1166.83521	0.03891
1164.90656	0.03889
1162.97790	0.03893
1161.04925	0.03891
1159.12060	0.03868
1157.19194	0.03822
1155.26329	0.03770
1153.33464	0.03708
1151.40598	0.03635
1149.47733	0.03566
1147.54868	0.03508
1145.62002	0.03457
1143.69137	0.03412
1141.76272	0.03375
1139.83406	0.03338
1137.90541	0.03294
1135.97676	0.03254
1134.04810	0.03236
1132.11945	0.03232
1130.19080	0.03226
1128.26214	0.03212
1126.33349	0.03196
1124.40484	0.03182
1122.47618	0.03175
1120.54753	0.03163
1118.61888	0.03143
1116.69022	0.03128
1114.76157	0.03117
1112.83292	0.03108
1110.90427	0.03113
1108.97561	0.03136
1107.04696	0.03157
1105.11831	0.03173
1103.18965	0.03192
1101.26100	0.03218
1099.33235	0.03252
1097.40369	0.03294
1095.47504	0.03331
1093.54639	0.03363
1091.61773	0.03411
1089.68908	0.03484
1087.76043	0.03566
1085.83177	0.03643
1083.90312	0.03712
1081.97447	0.03775
1080.04581	0.03820
1078.11716	0.03834
1076.18851	0.03821
1074.25985	0.03792
1072.33120	0.03762
1070.40255	0.03734
1068.47389	0.03716
1066.54524	0.03714
1064.61659	0.03724
1062.68793	0.03730
1060.75928	0.03727
1058.83063	0.03715
1056.90197	0.03688
1054.97332	0.03652
1053.04467	0.03621
1051.11601	0.03592
1049.18736	0.03558
1047.25871	0.03529
1045.33005	0.03514
1043.40140	0.03508
1041.47275	0.03502
1039.54410	0.03501
1037.61544	0.03512
1035.68679	0.03536
1033.75814	0.03567
1031.82948	0.03584
1029.90083	0.03568
1027.97218	0.03523
1026.04352	0.03466
1024.11487	0.03411
1022.18622	0.03356
1020.25756	0.03298
1018.32891	0.03249
1016.40026	0.03211
1014.47160	0.03172
1012.54295	0.03130
1010.61430	0.03095
1008.68564	0.03060
1006.75699	0.03017
1004.82834	0.02973
1002.89968	0.02937
1000.97103	0.02906
999.04238	0.02871
997.11372	0.02832
995.18507	0.02795
993.25642	0.02762
991.32776	0.02735
989.39911	0.02718
987.47046	0.02706
985.54180	0.02689
983.61315	0.02670
981.68450	0.02663
979.75584	0.02675
977.82719	0.02694
975.89854	0.02699
973.96989	0.02690
972.04123	0.02678
970.11258	0.02662
968.18393	0.02640
966.25527	0.02618
964.32662	0.02591
962.39797	0.02558
960.46931	0.02539
958.54066	0.02530
956.61201	0.02518
954.68335	0.02507
952.75470	0.02499
950.82605	0.02483
948.89739	0.02467
946.96874	0.02462
945.04009	0.02466
943.11143	0.02483
941.18278	0.02502
939.25413	0.02507
937.32547	0.02494
935.39682	0.02482
933.46817	0.02483
931.53951	0.02494
929.61086	0.02500
927.68221	0.02495
925.75355	0.02488
923.82490	0.02490
921.89625	0.02496
919.96759	0.02492
918.03894	0.02485
916.11029	0.02483
914.18163	0.02483
912.25298	0.02478
910.32433	0.02462
908.39567	0.02440
906.46702	0.02420
904.53837	0.02392
902.60972	0.02361
900.68106	0.02348
898.75241	0.02354
896.82376	0.02365
894.89510	0.02364
892.96645	0.02346
891.03780	0.02327
889.10914	0.02315
887.18049	0.02302
885.25184	0.02291
883.32318	0.02291
881.39453	0.02303
879.46588	0.02317
877.53722	0.02330
875.60857	0.02344
873.67992	0.02346
871.75126	0.02326
869.82261	0.02305
867.89396	0.02301
865.96530	0.02302
864.03665	0.02298
862.10800	0.02292
860.17934	0.02285
858.25069	0.02275
856.32204	0.02270
854.39338	0.02279
852.46473	0.02295
850.53608	0.02304
848.60742	0.02302
846.67877	0.02295
844.75012	0.02296
842.82146	0.02303
840.89281	0.02297
838.96416	0.02281
837.03551	0.02273
835.10685	0.02274
833.17820	0.02276
831.24955	0.02286
829.32089	0.02302
827.39224	0.02312
825.46359	0.02315
823.53493	0.02325
821.60628	0.02351
819.67763	0.02383
817.74897	0.02407
815.82032	0.02421
813.89167	0.02421
811.96301	0.02412
810.03436	0.02411
808.10571	0.02421
806.17705	0.02441
804.24840	0.02461
802.31975	0.02475
800.39109	0.02485
798.46244	0.02490
796.53379	0.02503
794.60513	0.02529
792.67648	0.02556
790.74783	0.02581
788.81917	0.02600
786.89052	0.02608
784.96187	0.02614
783.03321	0.02624
781.10456	0.02626
779.17591	0.02624
777.24725	0.02638
775.31860	0.02668
773.38995	0.02698
771.46130	0.02725
769.53264	0.02744
767.60399	0.02749
765.67534	0.02755
763.74668	0.02780
761.81803	0.02804
759.88938	0.02818
757.96072	0.02842
756.03207	0.02876
754.10342	0.02906
752.17476	0.02933
750.24611	0.02966
748.31746	0.02990
746.38880	0.02996
744.46015	0.03001
742.53150	0.03012
740.60284	0.03021
738.67419	0.03028
736.74554	0.03050
734.81688	0.03096
732.88823	0.03142
730.95958	0.03169
729.03092	0.03189
727.10227	0.03210
725.17362	0.03223
723.24496	0.03229
721.31631	0.03256
719.38766	0.03287
717.45900	0.03319
715.53035	0.03347
713.60170	0.03363
711.67304	0.03373
709.74439	0.03391
707.81574	0.03418
705.88708	0.03446
703.95843	0.03475
702.02978	0.03504
700.10113	0.03529
698.17247	0.03550
696.24382	0.03569
694.31517	0.03580
692.38651	0.03583
690.45786	0.03593
688.52921	0.03614
686.60055	0.03633
684.67190	0.03644
682.74325	0.03658
680.81459	0.03682
678.88594	0.03705
676.95729	0.03723
675.02863	0.03738
673.09998	0.03752
671.17133	0.03766
669.24267	0.03785
667.31402	0.03807
665.38537	0.03827
663.45671	0.03846
661.52806	0.03867
659.59941	0.03883
657.67075	0.03890
655.74210	0.03892
653.81345	0.03890
651.88479	0.03895
649.95614	0.03909
648.02749	0.03925
646.09883	0.03935
644.17018	0.03936
642.24153	0.03937
640.31287	0.03949
638.38422	0.03968
636.45557	0.03983
634.52692	0.03996
632.59826	0.03987
630.66961	0.04033
628.74096	0.04297
626.81230	0.03989
624.88365	0.03556
622.95500	0.03324
621.02634	0.03257
619.09769	0.03255
617.16904	0.03513
615.24038	0.03975
613.31173	0.04240
611.38308	0.04190
609.45442	0.04077
607.52577	0.03982
605.59712	0.03838
603.66846	0.03786
601.73981	0.03899
599.81116	0.04026
597.88250	0.04069
595.95385	0.04041
594.02520	0.04001
592.09654	0.04015
590.16789	0.04080
588.23924	0.04130
586.31058	0.04134
584.38193	0.04117
582.45328	0.04100
580.52462	0.04092
578.59597	0.04096
576.66732	0.04106
574.73866	0.04112
572.81001	0.04106
570.88136	0.04081
568.95270	0.04047
567.02405	0.04038
565.09540	0.04063
563.16675	0.04099
561.23809	0.04137
559.30944	0.04171
557.38079	0.04190
555.45213	0.04197
553.52348	0.04205
551.59483	0.04210
549.66617	0.04209
547.73752	0.04213
545.80887	0.04221
543.88021	0.04217
541.95156	0.04202
540.02291	0.04188
538.09425	0.04182
536.16560	0.04187
534.23695	0.04203
532.30829	0.04222
530.37964	0.04236
528.45099	0.04230
526.52233	0.04202
524.59368	0.04167
522.66503	0.04126
520.73637	0.04084
518.80772	0.04058
516.87907	0.04048
514.95041	0.04045
513.02176	0.04042
511.09311	0.04035
509.16445	0.04028
507.23580	0.04013
505.30715	0.03972
503.37849	0.03920
501.44984	0.03897
499.52119	0.03906
497.59254	0.03914
495.66388	0.03909
493.73523	0.03896
491.80658	0.03868
489.87792	0.03816
487.94927	0.03772
486.02062	0.03762
484.09196	0.03750
482.16331	0.03714
480.23466	0.03678
478.30600	0.03662
476.37735	0.03662
474.44870	0.03659
472.52004	0.03630
470.59139	0.03585
468.66274	0.03550
466.73408	0.03536
464.80543	0.03530
462.87678	0.03510
460.94812	0.03468
459.01947	0.03418
457.09082	0.03383
455.16216	0.03363
453.23351	0.03338
451.30486	0.03312
449.37620	0.03293
447.44755	0.03273
445.51890	0.03255
443.59024	0.03247
441.66159	0.03235
439.73294	0.03212
437.80428	0.03193
435.87563	0.03185
433.94698	0.03178
432.01833	0.03158
430.08967	0.03130
428.16102	0.03103
426.23237	0.03075
424.30371	0.03050
422.37506	0.03039
420.44641	0.03027
418.51775	0.03002
416.58910	0.02972
414.66045	0.02948
412.73179	0.02937
410.80314	0.02925
408.87449	0.02908
406.94583	0.02899
405.01718	0.02891
403.08853	0.02876
401.15987	0.02855
399.23122	0.02826
