3996.16951	0.03179
3994.24086	0.03237
3992.31221	0.03277
3990.38355	0.03249
3988.45490	0.03186
3986.52625	0.03172
3984.59759	0.03181
3982.66894	0.03147
3980.74029	0.03121
3978.81163	0.03175
3976.88298	0.03261
3974.95433	0.03283
3973.02567	0.03231
3971.09702	0.03181
3969.16837	0.03179
3967.23972	0.03189
3965.31106	0.03168
3963.38241	0.03142
3961.45376	0.03105
3959.52510	0.03030
3957.59645	0.02987
3955.66780	0.03029
3953.73914	0.03086
3951.81049	0.03104
3949.88184	0.03111
3947.95318	0.03119
3946.02453	0.03120
3944.09588	0.03133
3942.16722	0.03153
3940.23857	0.03142
3938.30992	0.03115
3936.38126	0.03117
3934.45261	0.03132
3932.52396	0.03090
3930.59530	0.03021
3928.66665	0.03013
3926.73800	0.03049
3924.80934	0.03085
3922.88069	0.03091
3920.95204	0.03047
3919.02338	0.03011
3917.09473	0.03037
3915.16608	0.03083
3913.23742	0.03099
3911.30877	0.03077
3909.38012	0.03038
3907.45146	0.03015
3905.52281	0.03029
3903.59416	0.03051
3901.66550	0.03041
3899.73685	0.03010
3897.80820	0.02998
3895.87955	0.02990
3893.95089	0.02957
3892.02224	0.02920
3890.09359	0.02900
3888.16493	0.02894
3886.23628	0.02894
3884.30763	0.02891
3882.37897	0.02894
3880.45032	0.02920
3878.52167	0.02956
3876.59301	0.02967
3874.66436	0.02959
3872.73571	0.02960
3870.80705	0.02948
3868.87840	0.02905
3866.94975	0.02908
3865.02109	0.02985
3863.09244	0.03024
3861.16379	0.02962
3859.23513	0.02863
3857.30648	0.02806
3855.37783	0.02816
3853.44917	0.02843
3851.52052	0.02834
3849.59187	0.02816
3847.66321	0.02796
3845.73456	0.02764
3843.80591	0.02766
3841.87725	0.02807
3839.94860	0.02822
3838.01995	0.02797
3836.09129	0.02790
3834.16264	0.02810
3832.23399	0.02811
3830.30534	0.02810
3828.37668	0.02844
3826.44803	0.02854
3824.51938	0.02794
3822.59072	0.02738
3820.66207	0.02746
3818.73342	0.02784
3816.80476	0.02782
3814.87611	0.02728
3812.94746	0.02697
3811.01880	0.02743
3809.09015	0.02810
3807.16150	0.02830
3805.23284	0.02815
3803.30419	0.02804
3801.37554	0.02816
3799.44688	0.02829
3797.51823	0.02804
3795.58958	0.02745
3793.66092	0.02692
3791.73227	0.02674
3789.80362	0.02693
3787.87496	0.02728
3785.94631	0.02748
3784.01766	0.02726
3782.08900	0.02659
3780.16035	0.02594
3778.23170	0.02594
3776.30304	0.02653
3774.37439	0.02703
3772.44574	0.02716
3770.51708	0.02696
3768.58843	0.02654
3766.65978	0.02643
3764.73112	0.02669
3762.80247	0.02673
3760.87382	0.02648
3758.94517	0.02627
3757.01651	0.02613
3755.08786	0.02625
3753.15921	0.02667
3751.23055	0.02681
3749.30190	0.02647
3747.37325	0.02618
3745.44459	0.02623
3743.51594	0.02635
3741.58729	0.02635
3739.65863	0.02632
3737.72998	0.02628
3735.80133	0.02608
3733.87267	0.02561
3731.94402	0.02516
3730.01537	0.02506
3728.08671	0.02516
3726.15806	0.02532
3724.22941	0.02532
3722.30075	0.02494
3720.37210	0.02458
3718.44345	0.02471
3716.51479	0.02534
3714.58614	0.02595
3712.65749	0.02590
3710.72883	0.02535
3708.80018	0.02487
3706.87153	0.02462
3704.94287	0.02463
3703.01422	0.02499
3701.08557	0.02546
3699.15691	0.02562
3697.22826	0.02535
3695.29961	0.02488
3693.37095	0.02454
3691.44230	0.02446
3689.51365	0.02462
3687.58500	0.02522
3685.65634	0.02579
3683.72769	0.02560
3681.79904	0.02520
3679.87038	0.02529
3677.94173	0.02538
3676.01308	0.02497
3674.08442	0.02432
3672.15577	0.02413
3670.22712	0.02460
3668.29846	0.02517
3666.36981	0.02554
3664.44116	0.02585
3662.51250	0.02605
3660.58385	0.02605
3658.65520	0.02609
3656.72654	0.02645
3654.79789	0.02693
3652.86924	0.02727
3650.94058	0.02759
3649.01193	0.02790
3647.08328	0.02805
3645.15462	0.02830
3643.22597	0.02877
3641.29732	0.02892
3639.36866	0.02865
3637.44001	0.02858
3635.51136	0.02870
3633.58270	0.02892
3631.65405	0.02972
3629.72540	0.03079
3627.79674	0.03134
3625.86809	0.03120
3623.93944	0.03100
3622.01079	0.03146
3620.08213	0.03214
3618.15348	0.03219
3616.22483	0.03215
3614.29617	0.03272
3612.36752	0.03338
3610.43887	0.03377
3608.51021	0.03443
3606.58156	0.03526
3604.65291	0.03557
3602.72425	0.03556
3600.79560	0.03574
3598.86695	0.03602
3596.93829	0.03618
3595.00964	0.03636
3593.08099	0.03671
3591.15233	0.03703
3589.22368	0.03716
3587.29503	0.03744
3585.36637	0.03821
3583.43772	0.03900
3581.50907	0.03950
3579.58041	0.04013
3577.65176	0.04095
3575.72311	0.04150
3573.79445	0.04177
3571.86580	0.04208
3569.93715	0.04258
3568.00849	0.04323
3566.07984	0.04396
3564.15119	0.04463
3562.22253	0.04501
3560.29388	0.04521
3558.36523	0.04581
3556.43657	0.04675
3554.50792	0.04742
3552.57927	0.04779
3550.65062	0.04817
3548.72196	0.04867
3546.79331	0.04930
3544.86466	0.05005
3542.93600	0.05099
3541.00735	0.05188
3539.07870	0.05234
3537.15004	0.05245
3535.22139	0.05267
3533.29274	0.05319
3531.36408	0.05386
3529.43543	0.05439
3527.50678	0.05474
3525.57812	0.05509
3523.64947	0.05551
3521.72082	0.05611
3519.79216	0.05672
3517.86351	0.05689
3515.93486	0.05686
3514.00620	0.05718
3512.07755	0.05791
3510.14890	0.05880
3508.22024	0.05952
3506.29159	0.05990
3504.36294	0.06006
3502.43428	0.06020
3500.50563	0.06061
3498.57698	0.06131
3496.64832	0.06184
3494.71967	0.06201
3492.79102	0.06233
3490.86236	0.06292
3488.93371	0.06330
3487.00506	0.06344
3485.07641	0.06360
3483.14775	0.06382
3481.21910	0.06413
3479.29045	0.06464
3477.36179	0.06512
3475.43314	0.06554
3473.50449	0.06608
3471.57583	0.06661
3469.64718	0.06707
3467.71853	0.06749
3465.78987	0.06784
3463.86122	0.06808
3461.93257	0.06832
3460.00391	0.06872
3458.07526	0.06917
3456.14661	0.06942
3454.21795	0.06961
3452.28930	0.06990
3450.36065	0.07004
3448.43199	0.07012
3446.50334	0.07072
3444.57469	0.07156
3442.64603	0.07193
3440.71738	0.07199
3438.78873	0.07212
3436.86007	0.07245
3434.93142	0.07303
3433.00277	0.07376
3431.07411	0.07442
3429.14546	0.07492
3427.21681	0.07524
3425.28815	0.07536
3423.35950	0.07550
3421.43085	0.07567
3419.50219	0.07554
3417.57354	0.07543
3415.64489	0.07606
3413.71624	0.07710
3411.78758	0.07778
3409.85893	0.07804
3407.93028	0.07816
3406.00162	0.07822
3404.07297	0.07821
3402.14432	0.07823
3400.21566	0.07843
3398.28701	0.07895
3396.35836	0.07957
3394.42970	0.08008
3392.50105	0.08054
3390.57240	0.08103
3388.64374	0.08128
3386.71509	0.08125
3384.78644	0.08136
3382.85778	0.08167
3380.92913	0.08210
3379.00048	0.08283
3377.07182	0.08371
3375.14317	0.08424
3373.21452	0.08431
3371.28586	0.08419
3369.35721	0.08433
3367.42856	0.08491
3365.49990	0.08580
3363.57125	0.08671
3361.64260	0.08740
3359.71394	0.08783
3357.78529	0.08836
3355.85664	0.08916
3353.92798	0.08992
3351.99933	0.09041
3350.07068	0.09097
3348.14202	0.09190
3346.21337	0.09275
3344.28472	0.09302
3342.35607	0.09301
3340.42741	0.09353
3338.49876	0.09474
3336.57011	0.09603
3334.64145	0.09699
3332.71280	0.09760
3330.78415	0.09781
3328.85549	0.09767
3326.92684	0.09752
3324.99819	0.09774
3323.06953	0.09848
3321.14088	0.09937
3319.21223	0.09982
3317.28357	0.09987
3315.35492	0.10015
3313.42627	0.10095
3311.49761	0.10185
3309.56896	0.10247
3307.64031	0.10274
3305.71165	0.10262
3303.78300	0.10241
3301.85435	0.10244
3299.92569	0.10251
3297.99704	0.10259
3296.06839	0.10294
3294.13973	0.10328
3292.21108	0.10332
3290.28243	0.10306
3288.35377	0.10277
3286.42512	0.10282
3284.49647	0.10297
3282.56781	0.10300
3280.63916	0.10301
3278.71051	0.10293
3276.78186	0.10267
3274.85320	0.10214
3272.92455	0.10147
3270.99590	0.10105
3269.06724	0.10083
3267.13859	0.10060
3265.20994	0.10035
3263.28128	0.10026
3261.35263	0.10040
3259.42398	0.10051
3257.49532	0.10030
3255.56667	0.09985
3253.63802	0.09928
3251.70936	0.09863
3249.78071	0.09803
3247.85206	0.09749
3245.92340	0.09684
3243.99475	0.09610
3242.06610	0.09566
3240.13744	0.09585
3238.20879	0.09649
3236.28014	0.09690
3234.35148	0.09656
3232.42283	0.09559
3230.49418	0.09472
3228.56552	0.09434
3226.63687	0.09423
3224.70822	0.09434
3222.77956	0.09451
3220.85091	0.09438
3218.92226	0.09404
3216.99360	0.09366
3215.06495	0.09311
3213.13630	0.09254
3211.20764	0.09226
3209.27899	0.09216
3207.35034	0.09214
3205.42169	0.09208
3203.49303	0.09166
3201.56438	0.09094
3199.63573	0.09043
3197.70707	0.09019
3195.77842	0.08983
3193.84977	0.08926
3191.92111	0.08872
3189.99246	0.08838
3188.06381	0.08801
3186.13515	0.08742
3184.20650	0.08675
3182.27785	0.08623
3180.34919	0.08594
3178.42054	0.08570
3176.49189	0.08510
3174.56323	0.08419
3172.63458	0.08358
3170.70593	0.08327
3168.77727	0.08283
3166.84862	0.08225
3164.91997	0.08174
3162.99131	0.08139
3161.06266	0.08115
3159.13401	0.08063
3157.20535	0.07976
3155.27670	0.07901
3153.34805	0.07857
3151.41939	0.07804
3149.49074	0.07728
3147.56209	0.07664
3145.63343	0.07619
3143.70478	0.07574
3141.77613	0.07552
3139.84748	0.07558
3137.91882	0.07542
3135.99017	0.07477
3134.06152	0.07406
3132.13286	0.07365
3130.20421	0.07324
3128.27556	0.07253
3126.34690	0.07185
3124.41825	0.07163
3122.48960	0.07158
3120.56094	0.07142
3118.63229	0.07136
3116.70364	0.07155
3114.77498	0.07178
3112.84633	0.07165
3110.91768	0.07117
3108.98902	0.07080
3107.06037	0.07072
3105.13172	0.07076
3103.20306	0.07094
3101.27441	0.07138
3099.34576	0.07176
3097.41710	0.07166
3095.48845	0.07144
3093.55980	0.07151
3091.63114	0.07173
3089.70249	0.07212
3087.77384	0.07273
3085.84518	0.07313
3083.91653	0.07304
3081.98788	0.07288
3080.05922	0.07304
3078.13057	0.07329
3076.20192	0.07330
3074.27326	0.07325
3072.34461	0.07324
3070.41596	0.07311
3068.48731	0.07286
3066.55865	0.07258
3064.63000	0.07225
3062.70135	0.07192
3060.77269	0.07155
3058.84404	0.07115
3056.91539	0.07085
3054.98673	0.07073
3053.05808	0.07060
3051.12943	0.07019
3049.20077	0.06955
3047.27212	0.06899
3045.34347	0.06864
3043.41481	0.06824
3041.48616	0.06757
3039.55751	0.06681
3037.62885	0.06620
3035.70020	0.06577
3033.77155	0.06543
3031.84289	0.06503
3029.91424	0.06456
3027.98559	0.06417
3026.05693	0.06391
3024.12828	0.06350
3022.19963	0.06282
3020.27097	0.06229
3018.34232	0.06208
3016.41367	0.06180
3014.48501	0.06135
3012.55636	0.06097
3010.62771	0.06067
3008.69905	0.06049
3006.77040	0.06049
3004.84175	0.06051
3002.91309	0.06050
3000.98444	0.06049
2999.05579	0.06046
2997.12714	0.06043
2995.19848	0.06049
2993.26983	0.06075
2991.34118	0.06121
2989.41252	0.06172
2987.48387	0.06199
2985.55522	0.06202
2983.62656	0.06205
2981.69791	0.06210
2979.76926	0.06223
2977.84060	0.06251
2975.91195	0.06288
2973.98330	0.06332
2972.05464	0.06380
2970.12599	0.06434
2968.19734	0.06486
2966.26868	0.06507
2964.34003	0.06506
2962.41138	0.06516
2960.48272	0.06545
2958.55407	0.06576
2956.62542	0.06583
2954.69676	0.06574
2952.76811	0.06586
2950.83946	0.06604
2948.91080	0.06591
2946.98215	0.06561
2945.05350	0.06556
2943.12484	0.06587
2941.19619	0.06616
2939.26754	0.06618
2937.33888	0.06614
2935.41023	0.06620
2933.48158	0.06628
2931.55293	0.06626
2929.62427	0.06613
2927.69562	0.06612
2925.76697	0.06619
2923.83831	0.06599
2921.90966	0.06532
2919.98101	0.06443
2918.05235	0.06371
2916.12370	0.06324
2914.19505	0.06293
2912.26639	0.06261
2910.33774	0.06214
2908.40909	0.06158
2906.48043	0.06104
2904.55178	0.06045
2902.62313	0.05980
2900.69447	0.05919
2898.76582	0.05866
2896.83717	0.05826
2894.90851	0.05805
2892.97986	0.05791
2891.05121	0.05778
2889.12255	0.05770
2887.19390	0.05767
2885.26525	0.05770
2883.33659	0.05787
2881.40794	0.05810
2879.47929	0.05817
2877.55063	0.05802
2875.62198	0.05786
2873.69333	0.05771
2871.76467	0.05749
2869.83602	0.05722
2867.90737	0.05692
2865.97871	0.05646
2864.05006	0.05582
2862.12141	0.05510
2860.19276	0.05450
2858.26410	0.05409
2856.33545	0.05373
2854.40680	0.05337
2852.47814	0.05307
2850.54949	0.05276
2848.62084	0.05250
2846.69218	0.05230
2844.76353	0.05192
2842.83488	0.05133
2840.90622	0.05087
2838.97757	0.05069
2837.04892	0.05062
2835.12026	0.05043
2833.19161	0.05002
2831.26296	0.04950
2829.33430	0.04910
2827.40565	0.04903
2825.47700	0.04918
2823.54834	0.04913
2821.61969	0.04883
2819.69104	0.04864
2817.76238	0.04845
2815.83373	0.04795
2813.90508	0.04731
2811.97642	0.04695
2810.04777	0.04703
2808.11912	0.04725
2806.19046	0.04724
2804.26181	0.04709
2802.33316	0.04696
2800.40450	0.04671
2798.47585	0.04641
2796.54720	0.04623
2794.61855	0.04613
2792.68989	0.04598
2790.76124	0.04562
2788.83259	0.04523
2786.90393	0.04515
2784.97528	0.04523
2783.04663	0.04510
2781.11797	0.04476
2779.18932	0.04454
2777.26067	0.04454
2775.33201	0.04454
2773.40336	0.04436
2771.47471	0.04400
2769.54605	0.04358
2767.61740	0.04334
2765.68875	0.04332
2763.76009	0.04340
2761.83144	0.04350
2759.90279	0.04354
2757.97413	0.04328
2756.04548	0.04268
2754.11683	0.04225
2752.18817	0.04219
2750.25952	0.04210
2748.33087	0.04189
2746.40221	0.04175
2744.47356	0.04165
2742.54491	0.04154
2740.61625	0.04138
2738.68760	0.04119
2736.75895	0.04110
2734.83029	0.04111
2732.90164	0.04104
2730.97299	0.04074
2729.04433	0.04032
2727.11568	0.04007
2725.18703	0.04010
2723.25838	0.04018
2721.32972	0.04016
2719.40107	0.04000
2717.47242	0.03975
2715.54376	0.03953
2713.61511	0.03932
2711.68646	0.03911
2709.75780	0.03898
2707.82915	0.03897
2705.90050	0.03903
2703.97184	0.03903
2702.04319	0.03888
2700.11454	0.03865
2698.18588	0.03849
2696.25723	0.03836
2694.32858	0.03826
2692.39992	0.03819
2690.47127	0.03803
2688.54262	0.03774
2686.61396	0.03761
2684.68531	0.03782
2682.75666	0.03803
2680.82800	0.03800
2678.89935	0.03776
2676.97070	0.03754
2675.04204	0.03747
2673.11339	0.03746
2671.18474	0.03739
2669.25608	0.03736
2667.32743	0.03738
2665.39878	0.03736
2663.47012	0.03725
2661.54147	0.03712
2659.61282	0.03696
2657.68417	0.03668
2655.75551	0.03636
2653.82686	0.03621
2651.89821	0.03609
2649.96955	0.03582
2648.04090	0.03561
2646.11225	0.03564
2644.18359	0.03562
2642.25494	0.03517
2640.32629	0.03458
2638.39763	0.03431
2636.46898	0.03440
2634.54033	0.03448
2632.61167	0.03437
2630.68302	0.03412
2628.75437	0.03382
2626.82571	0.03355
2624.89706	0.03325
2622.96841	0.03280
2621.03975	0.03244
2619.11110	0.03243
2617.18245	0.03266
2615.25379	0.03289
2613.32514	0.03277
2611.39649	0.03229
2609.46783	0.03181
2607.53918	0.03145
2605.61053	0.03112
2603.68187	0.03091
2601.75322	0.03080
2599.82457	0.03073
2597.89591	0.03066
2595.96726	0.03044
2594.03861	0.03000
2592.10995	0.02970
2590.18130	0.02987
2588.25265	0.03023
2586.32400	0.03027
2584.39534	0.02990
2582.46669	0.02938
2580.53804	0.02901
2578.60938	0.02886
2576.68073	0.02891
2574.75208	0.02912
2572.82342	0.02938
2570.89477	0.02959
2568.96612	0.02951
2567.03746	0.02897
2565.10881	0.02816
2563.18016	0.02753
2561.25150	0.02738
2559.32285	0.02761
2557.39420	0.02790
2555.46554	0.02799
2553.53689	0.02788
2551.60824	0.02773
2549.67958	0.02757
2547.75093	0.02743
2545.82228	0.02742
2543.89362	0.02748
2541.96497	0.02733
2540.03632	0.02705
2538.10766	0.02714
2536.17901	0.02748
2534.25036	0.02750
2532.32170	0.02716
2530.39305	0.02664
2528.46440	0.02615
2526.53574	0.02612
2524.60709	0.02649
2522.67844	0.02676
2520.74978	0.02684
2518.82113	0.02679
2516.89248	0.02657
2514.96383	0.02640
2513.03517	0.02640
2511.10652	0.02621
2509.17787	0.02570
2507.24921	0.02528
2505.32056	0.02518
2503.39191	0.02529
2501.46325	0.02539
2499.53460	0.02546
2497.60595	0.02566
2495.67729	0.02582
2493.74864	0.02572
2491.81999	0.02539
2489.89133	0.02500
2487.96268	0.02503
2486.03403	0.02569
2484.10537	0.02613
2482.17672	0.02580
2480.24807	0.02522
2478.31941	0.02490
2476.39076	0.02484
2474.46211	0.02477
2472.53345	0.02456
2470.60480	0.02445
2468.67615	0.02470
2466.74749	0.02501
2464.81884	0.02497
2462.89019	0.02465
2460.96153	0.02433
2459.03288	0.02418
2457.10423	0.02421
2455.17557	0.02425
2453.24692	0.02419
2451.31827	0.02414
2449.38962	0.02417
2447.46096	0.02428
2445.53231	0.02436
2443.60366	0.02416
2441.67500	0.02397
2439.74635	0.02404
2437.81770	0.02399
2435.88904	0.02372
2433.96039	0.02359
2432.03174	0.02355
2430.10308	0.02340
2428.17443	0.02343
2426.24578	0.02377
2424.31712	0.02407
2422.38847	0.02413
2420.45982	0.02406
2418.53116	0.02397
2416.60251	0.02398
2414.67386	0.02415
2412.74520	0.02427
2410.81655	0.02410
2408.88790	0.02384
2406.95924	0.02379
2405.03059	0.02397
2403.10194	0.02409
2401.17328	0.02388
2399.24463	0.02364
2397.31598	0.02388
2395.38732	0.02416
2393.45867	0.02415
2391.53002	0.02410
2389.60136	0.02415
2387.67271	0.02402
2385.74406	0.02376
2383.81540	0.02365
2381.88675	0.02366
2379.95810	0.02371
2378.02945	0.02404
2376.10079	0.02461
2374.17214	0.02488
2372.24349	0.02475
2370.31483	0.02460
2368.38618	0.02445
2366.45753	0.02457
2364.52887	0.02474
2362.60022	0.02494
2360.67157	0.02510
2358.74291	0.02479
2356.81426	0.02503
2354.88561	0.02491
2352.95695	0.02470
2351.02830	0.02506
2349.09965	0.02545
2347.17099	0.02530
2345.24234	0.02522
2343.31369	0.02504
2341.38503	0.02423
2339.45638	0.02380
2337.52773	0.02379
2335.59907	0.02429
2333.67042	0.02487
2331.74177	0.02510
2329.81311	0.02519
2327.88446	0.02509
2325.95581	0.02516
2324.02715	0.02511
2322.09850	0.02487
2320.16985	0.02448
2318.24119	0.02436
2316.31254	0.02428
2314.38389	0.02411
2312.45524	0.02371
2310.52658	0.02322
2308.59793	0.02301
2306.66928	0.02304
2304.74062	0.02310
2302.81197	0.02303
2300.88332	0.02283
2298.95466	0.02259
2297.02601	0.02253
2295.09736	0.02274
2293.16870	0.02288
2291.24005	0.02260
2289.31140	0.02200
2287.38274	0.02139
2285.45409	0.02090
2283.52544	0.02037
2281.59678	0.01987
2279.66813	0.01971
2277.73948	0.01983
2275.81082	0.01974
2273.88217	0.01941
2271.95352	0.01935
2270.02486	0.01975
2268.09621	0.02005
2266.16756	0.01983
2264.23890	0.01926
2262.31025	0.01849
2260.38160	0.01757
2258.45294	0.01703
2256.52429	0.01745
2254.59564	0.01827
2252.66698	0.01824
2250.73833	0.01756
2248.80968	0.01738
2246.88102	0.01721
2244.95237	0.01670
2243.02372	0.01634
2241.09507	0.01684
2239.16641	0.01751
2237.23776	0.01729
2235.30911	0.01660
2233.38045	0.01622
2231.45180	0.01634
2229.52315	0.01669
2227.59449	0.01685
2225.66584	0.01667
2223.73719	0.01633
2221.80853	0.01622
2219.87988	0.01620
2217.95123	0.01607
2216.02257	0.01595
2214.09392	0.01555
2212.16527	0.01518
2210.23661	0.01543
2208.30796	0.01554
2206.37931	0.01505
2204.45065	0.01471
2202.52200	0.01472
2200.59335	0.01464
2198.66469	0.01418
2196.73604	0.01370
2194.80739	0.01389
2192.87873	0.01455
2190.95008	0.01497
2189.02143	0.01520
2187.09277	0.01509
2185.16412	0.01379
2183.23547	0.01194
2181.30681	0.01110
2179.37816	0.01122
2177.44951	0.01181
2175.52085	0.01288
2173.59220	0.01350
2171.66355	0.01297
2169.73490	0.01213
2167.80624	0.01165
2165.87759	0.01137
2163.94894	0.01089
2162.02028	0.00988
2160.09163	0.00888
2158.16298	0.00913
2156.23432	0.01067
2154.30567	0.01222
2152.37702	0.01284
2150.44836	0.01259
2148.51971	0.01230
2146.59106	0.01275
2144.66240	0.01309
2142.73375	0.01254
2140.80510	0.01227
2138.87644	0.01289
2136.94779	0.01346
2135.01914	0.01336
2133.09048	0.01317
2131.16183	0.01366
2129.23318	0.01474
2127.30452	0.01564
2125.37587	0.01583
2123.44722	0.01576
2121.51856	0.01621
2119.58991	0.01678
2117.66126	0.01670
2115.73260	0.01634
2113.80395	0.01645
2111.87530	0.01679
2109.94664	0.01664
2108.01799	0.01595
2106.08934	0.01511
2104.16069	0.01455
2102.23203	0.01449
2100.30338	0.01463
2098.37473	0.01460
2096.44607	0.01467
2094.51742	0.01503
2092.58877	0.01533
2090.66011	0.01530
2088.73146	0.01517
2086.80281	0.01514
2084.87415	0.01498
2082.94550	0.01451
2081.01685	0.01419
2079.08819	0.01445
2077.15954	0.01490
2075.23089	0.01488
2073.30223	0.01434
2071.37358	0.01348
2069.44493	0.01244
2067.51627	0.01143
2065.58762	0.01072
2063.65897	0.01086
2061.73031	0.01195
2059.80166	0.01275
2057.87301	0.01247
2055.94435	0.01214
2054.01570	0.01247
2052.08705	0.01270
2050.15839	0.01203
2048.22974	0.01080
2046.30109	0.00997
2044.37243	0.00982
2042.44378	0.00947
2040.51513	0.00877
2038.58647	0.00905
2036.65782	0.01014
2034.72917	0.01026
2032.80052	0.00950
2030.87186	0.00914
2028.94321	0.00927
2027.01456	0.00942
2025.08590	0.00931
2023.15725	0.00932
2021.22860	0.00980
2019.29994	0.00974
2017.37129	0.00853
2015.44264	0.00757
2013.51398	0.00799
2011.58533	0.00920
2009.65668	0.01016
2007.72802	0.01025
2005.79937	0.00996
2003.87072	0.01008
2001.94206	0.01036
2000.01341	0.01029
1998.08476	0.01002
1996.15610	0.00980
1994.22745	0.00952
1992.29880	0.00941
1990.37014	0.01001
1988.44149	0.01110
1986.51284	0.01180
1984.58418	0.01196
1982.65553	0.01176
1980.72688	0.01073
1978.79822	0.00915
1976.86957	0.00815
1974.94092	0.00808
1973.01226	0.00867
1971.08361	0.00973
1969.15496	0.01065
1967.22631	0.01093
1965.29765	0.01087
1963.36900	0.01081
1961.44035	0.01058
1959.51169	0.01022
1957.58304	0.01025
1955.65439	0.01069
1953.72573	0.01120
1951.79708	0.01152
1949.86843	0.01123
1947.93977	0.01064
1946.01112	0.01070
1944.08247	0.01139
1942.15381	0.01212
1940.22516	0.01237
1938.29651	0.01193
1936.36785	0.01146
1934.43920	0.01183
1932.51055	0.01262
1930.58189	0.01291
1928.65324	0.01267
1926.72459	0.01236
1924.79593	0.01224
1922.86728	0.01243
1920.93863	0.01290
1919.00997	0.01336
1917.08132	0.01346
1915.15267	0.01310
1913.22401	0.01248
1911.29536	0.01201
1909.36671	0.01190
1907.43805	0.01206
1905.50940	0.01217
1903.58075	0.01206
1901.65209	0.01201
1899.72344	0.01225
1897.79479	0.01254
1895.86614	0.01265
1893.93748	0.01254
1892.00883	0.01231
1890.08018	0.01231
1888.15152	0.01267
1886.22287	0.01303
1884.29422	0.01321
1882.36556	0.01332
1880.43691	0.01341
1878.50826	0.01339
1876.57960	0.01316
1874.65095	0.01294
1872.72230	0.01297
1870.79364	0.01318
1868.86499	0.01335
1866.93634	0.01338
1865.00768	0.01336
1863.07903	0.01333
1861.15038	0.01324
1859.22172	0.01317
1857.29307	0.01315
1855.36442	0.01308
1853.43576	0.01294
1851.50711	0.01278
1849.57846	0.01271
1847.64980	0.01282
1845.72115	0.01283
1843.79250	0.01258
1841.86384	0.01240
1839.93519	0.01256
1838.00654	0.01277
1836.07788	0.01272
1834.14923	0.01249
1832.22058	0.01234
1830.29192	0.01236
1828.36327	0.01247
1826.43462	0.01247
1824.50597	0.01236
1822.57731	0.01233
1820.64866	0.01235
1818.72001	0.01227
1816.79135	0.01225
1814.86270	0.01246
1812.93405	0.01268
1811.00539	0.01272
1809.07674	0.01269
1807.14809	0.01279
1805.21943	0.01290
1803.29078	0.01275
1801.36213	0.01252
1799.43347	0.01249
1797.50482	0.01253
1795.57617	0.01246
1793.64751	0.01233
1791.71886	0.01223
1789.79021	0.01216
1787.86155	0.01210
1785.93290	0.01213
1784.00425	0.01225
1782.07559	0.01230
1780.14694	0.01219
1778.21829	0.01205
1776.28963	0.01200
1774.36098	0.01204
1772.43233	0.01207
1770.50367	0.01201
1768.57502	0.01189
1766.64637	0.01185
1764.71771	0.01183
1762.78906	0.01180
1760.86041	0.01180
1758.93176	0.01188
1757.00310	0.01197
1755.07445	0.01203
1753.14580	0.01204
1751.21714	0.01203
1749.28849	0.01207
1747.35984	0.01221
1745.43118	0.01237
1743.50253	0.01252
1741.57388	0.01273
1739.64522	0.01291
1737.71657	0.01289
1735.78792	0.01279
1733.85926	0.01281
1731.93061	0.01299
1730.00196	0.01326
1728.07330	0.01353
1726.14465	0.01374
1724.21600	0.01396
1722.28734	0.01430
1720.35869	0.01468
1718.43004	0.01505
1716.50138	0.01557
1714.57273	0.01635
1712.64408	0.01737
1710.71542	0.01855
1708.78677	0.01984
1706.85812	0.02136
1704.92946	0.02319
1703.00081	0.02528
1701.07216	0.02763
1699.14350	0.03022
1697.21485	0.03285
1695.28620	0.03542
1693.35754	0.03793
1691.42889	0.04045
1689.50024	0.04309
1687.57159	0.04589
1685.64293	0.04880
1683.71428	0.05184
1681.78563	0.05499
1679.85697	0.05823
1677.92832	0.06157
1675.99967	0.06512
1674.07101	0.06883
1672.14236	0.07260
1670.21371	0.07644
1668.28505	0.08029
1666.35640	0.08406
1664.42775	0.08782
1662.49909	0.09150
1660.57044	0.09487
1658.64179	0.09782
1656.71313	0.10045
1654.78448	0.10288
1652.85583	0.10526
1650.92717	0.10748
1648.99852	0.10935
1647.06987	0.11097
1645.14121	0.11249
1643.21256	0.11395
1641.28391	0.11530
1639.35525	0.11652
1637.42660	0.11767
1635.49795	0.11879
1633.56929	0.11972
1631.64064	0.12021
1629.71199	0.12013
1627.78333	0.11944
1625.85468	0.11812
1623.92603	0.11618
1621.99738	0.11371
1620.06872	0.11087
1618.14007	0.10771
1616.21142	0.10428
1614.28276	0.10072
1612.35411	0.09711
1610.42546	0.09352
1608.49680	0.09007
1606.56815	0.08690
1604.63950	0.08398
1602.71084	0.08122
1600.78219	0.07860
1598.85354	0.07622
1596.92488	0.07421
1594.99623	0.07258
1593.06758	0.07118
1591.13892	0.06996
1589.21027	0.06903
1587.28162	0.06844
1585.35296	0.06817
1583.42431	0.06823
1581.49566	0.06855
1579.56700	0.06904
1577.63835	0.06978
1575.70970	0.07093
1573.78104	0.07240
1571.85239	0.07409
1569.92374	0.07599
1567.99508	0.07811
1566.06643	0.08034
1564.13778	0.08261
1562.20912	0.08490
1560.28047	0.08722
1558.35182	0.08955
1556.42316	0.09176
1554.49451	0.09373
1552.56586	0.09544
1550.63721	0.09687
1548.70855	0.09807
1546.77990	0.09908
1544.85125	0.09987
1542.92259	0.10036
1540.99394	0.10060
1539.06529	0.10068
1537.13663	0.10061
1535.20798	0.10046
1533.27933	0.10028
1531.35067	0.09993
1529.42202	0.09932
1527.49337	0.09860
1525.56471	0.09790
1523.63606	0.09713
1521.70741	0.09618
1519.77875	0.09511
1517.85010	0.09399
1515.92145	0.09275
1513.99279	0.09124
1512.06414	0.08943
1510.13549	0.08734
1508.20683	0.08500
1506.27818	0.08254
1504.34953	0.08007
1502.42087	0.07761
1500.49222	0.07515
1498.56357	0.07266
1496.63491	0.07016
1494.70626	0.06769
1492.77761	0.06530
1490.84895	0.06299
1488.92030	0.06090
1486.99165	0.05915
1485.06299	0.05782
1483.13434	0.05685
1481.20569	0.05618
1479.27704	0.05586
1477.34838	0.05589
1475.41973	0.05623
1473.49108	0.05690
1471.56242	0.05793
1469.63377	0.05911
1467.70512	0.06029
1465.77646	0.06155
1463.84781	0.06289
1461.91916	0.06425
1459.99050	0.06571
1458.06185	0.06737
1456.13320	0.06904
1454.20454	0.07036
1452.27589	0.07114
1450.34724	0.07147
1448.41858	0.07152
1446.48993	0.07134
1444.56128	0.07085
1442.63262	0.07016
1440.70397	0.06947
1438.77532	0.06871
1436.84666	0.06770
1434.91801	0.06640
1432.98936	0.06502
1431.06070	0.06378
1429.13205	0.06283
1427.20340	0.06212
1425.27474	0.06163
1423.34609	0.06134
1421.41744	0.06117
1419.48878	0.06111
1417.56013	0.06117
1415.63148	0.06131
1413.70283	0.06151
1411.77417	0.06183
1409.84552	0.06227
1407.91687	0.06275
1405.98821	0.06325
1404.05956	0.06374
1402.13091	0.06409
1400.20225	0.06425
1398.27360	0.06426
1396.34495	0.06411
1394.41629	0.06383
1392.48764	0.06352
1390.55899	0.06319
1388.63033	0.06282
1386.70168	0.06245
1384.77303	0.06205
1382.84437	0.06161
1380.91572	0.06114
1378.98707	0.06064
1377.05841	0.06010
1375.12976	0.05947
1373.20111	0.05865
1371.27245	0.05761
1369.34380	0.05650
1367.41515	0.05544
1365.48649	0.05441
1363.55784	0.05344
1361.62919	0.05262
1359.70053	0.05202
1357.77188	0.05167
1355.84323	0.05156
1353.91457	0.05164
1351.98592	0.05192
1350.05727	0.05246
1348.12861	0.05321
1346.19996	0.05404
1344.27131	0.05485
1342.34266	0.05560
1340.41400	0.05624
1338.48535	0.05666
1336.55670	0.05679
1334.62804	0.05667
1332.69939	0.05634
1330.77074	0.05579
1328.84208	0.05510
1326.91343	0.05443
1324.98478	0.05388
1323.05612	0.05347
1321.12747	0.05319
1319.19882	0.05298
1317.27016	0.05278
1315.34151	0.05254
1313.41286	0.05217
1311.48420	0.05165
1309.55555	0.05109
1307.62690	0.05066
1305.69824	0.05037
1303.76959	0.05010
1301.84094	0.04977
1299.91228	0.04946
1297.98363	0.04925
1296.05498	0.04912
1294.12632	0.04907
1292.19767	0.04920
1290.26902	0.04956
1288.34036	0.05012
1286.41171	0.05076
1284.48306	0.05131
1282.55440	0.05169
1280.62575	0.05193
1278.69710	0.05207
1276.76845	0.05212
1274.83979	0.05210
1272.91114	0.05209
1270.98249	0.05214
1269.05383	0.05225
1267.12518	0.05248
1265.19653	0.05286
1263.26787	0.05338
1261.33922	0.05396
1259.41057	0.05457
1257.48191	0.05523
1255.55326	0.05596
1253.62461	0.05678
1251.69595	0.05772
1249.76730	0.05872
1247.83865	0.05972
1245.90999	0.06067
1243.98134	0.06162
1242.05269	0.06259
1240.12403	0.06347
1238.19538	0.06410
1236.26673	0.06445
1234.33807	0.06453
1232.40942	0.06430
1230.48077	0.06375
1228.55211	0.06292
1226.62346	0.06182
1224.69481	0.06053
1222.76615	0.05912
1220.83750	0.05768
1218.90885	0.05632
1216.98019	0.05517
1215.05154	0.05431
1213.12289	0.05383
1211.19423	0.05372
1209.26558	0.05386
1207.33693	0.05405
1205.40828	0.05420
1203.47962	0.05429
1201.55097	0.05421
1199.62232	0.05385
1197.69366	0.05314
1195.76501	0.05220
1193.83636	0.05121
1191.90770	0.05017
1189.97905	0.04912
1188.05040	0.04817
1186.12174	0.04733
1184.19309	0.04658
1182.26444	0.04598
1180.33578	0.04552
1178.40713	0.04513
1176.47848	0.04485
1174.54982	0.04474
1172.62117	0.04469
1170.69252	0.04465
1168.76386	0.04462
1166.83521	0.04460
1164.90656	0.04462
1162.97790	0.04462
1161.04925	0.04450
1159.12060	0.04429
1157.19194	0.04403
1155.26329	0.04358
1153.33464	0.04287
1151.40598	0.04212
1149.47733	0.04151
1147.54868	0.04094
1145.62002	0.04037
1143.69137	0.03989
1141.76272	0.03951
1139.83406	0.03910
1137.90541	0.03867
1135.97676	0.03828
1134.04811	0.03803
1132.11945	0.03797
1130.19080	0.03798
1128.26215	0.03791
1126.33349	0.03775
1124.40484	0.03756
1122.47619	0.03741
1120.54753	0.03735
1118.61888	0.03738
1116.69023	0.03747
1114.76157	0.03757
1112.83292	0.03766
1110.90427	0.03778
1108.97561	0.03801
1107.04696	0.03833
1105.11831	0.03860
1103.18965	0.03889
1101.26100	0.03928
1099.33235	0.03965
1097.40369	0.03997
1095.47504	0.04040
1093.54639	0.04102
1091.61773	0.04171
1089.68908	0.04243
1087.76043	0.04332
1085.83177	0.04432
1083.90312	0.04515
1081.97447	0.04572
1080.04581	0.04605
1078.11716	0.04601
1076.18851	0.04565
1074.25985	0.04519
1072.33120	0.04480
1070.40255	0.04444
1068.47390	0.04413
1066.54524	0.04393
1064.61659	0.04379
1062.68794	0.04359
1060.75928	0.04334
1058.83063	0.04307
1056.90198	0.04272
1054.97332	0.04234
1053.04467	0.04198
1051.11602	0.04153
1049.18736	0.04102
1047.25871	0.04069
1045.33006	0.04063
1043.40140	0.04062
1041.47275	0.04061
1039.54410	0.04074
1037.61544	0.04103
1035.68679	0.04138
1033.75814	0.04173
1031.82948	0.04194
1029.90083	0.04174
1027.97218	0.04117
1026.04352	0.04051
1024.11487	0.03988
1022.18622	0.03924
1020.25756	0.03866
1018.32891	0.03819
1016.40026	0.03778
1014.47160	0.03735
1012.54295	0.03686
1010.61430	0.03643
1008.68564	0.03608
1006.75699	0.03569
1004.82834	0.03524
1002.89968	0.03482
1000.97103	0.03448
999.04238	0.03416
997.11373	0.03380
995.18507	0.03338
993.25642	0.03294
991.32777	0.03266
989.39911	0.03255
987.47046	0.03240
985.54181	0.03211
983.61315	0.03180
981.68450	0.03161
979.75585	0.03159
977.82719	0.03171
975.89854	0.03181
973.96989	0.03178
972.04123	0.03163
970.11258	0.03135
968.18393	0.03095
966.25527	0.03059
964.32662	0.03033
962.39797	0.03009
960.46931	0.02981
958.54066	0.02945
956.61201	0.02909
954.68335	0.02892
952.75470	0.02882
950.82605	0.02863
948.89739	0.02843
946.96874	0.02839
945.04009	0.02849
943.11143	0.02867
941.18278	0.02884
939.25413	0.02886
937.32547	0.02874
935.39682	0.02860
933.46817	0.02845
931.53952	0.02826
929.61086	0.02809
927.68221	0.02802
925.75356	0.02802
923.82490	0.02812
921.89625	0.02818
919.96760	0.02797
918.03894	0.02765
916.11029	0.02745
914.18164	0.02718
912.25298	0.02678
910.32433	0.02655
908.39568	0.02652
906.46702	0.02653
904.53837	0.02651
902.60972	0.02647
900.68106	0.02640
898.75241	0.02630
896.82376	0.02615
894.89510	0.02588
892.96645	0.02566
891.03780	0.02570
889.10914	0.02580
887.18049	0.02579
885.25184	0.02585
883.32318	0.02613
881.39453	0.02643
879.46588	0.02643
877.53722	0.02620
875.60857	0.02614
873.67992	0.02628
871.75126	0.02631
869.82261	0.02618
867.89396	0.02605
865.96530	0.02607
864.03665	0.02611
862.10800	0.02599
860.17935	0.02575
858.25069	0.02560
856.32204	0.02572
854.39339	0.02601
852.46473	0.02624
850.53608	0.02637
848.60743	0.02647
846.67877	0.02656
844.75012	0.02657
842.82147	0.02637
840.89281	0.02605
838.96416	0.02592
837.03551	0.02604
835.10685	0.02613
833.17820	0.02608
831.24955	0.02596
829.32089	0.02596
827.39224	0.02620
825.46359	0.02655
823.53493	0.02680
821.60628	0.02695
819.67763	0.02704
817.74897	0.02711
815.82032	0.02719
813.89167	0.02733
811.96301	0.02762
810.03436	0.02805
808.10571	0.02841
806.17705	0.02847
804.24840	0.02831
802.31975	0.02820
800.39109	0.02831
798.46244	0.02863
796.53379	0.02899
794.60513	0.02929
792.67648	0.02942
790.74783	0.02943
788.81918	0.02965
786.89052	0.03009
784.96187	0.03046
783.03322	0.03057
781.10456	0.03049
779.17591	0.03053
777.24726	0.03072
775.31860	0.03084
773.38995	0.03095
771.46130	0.03118
769.53264	0.03146
767.60399	0.03182
765.67534	0.03223
763.74668	0.03244
761.81803	0.03245
759.88938	0.03250
757.96072	0.03268
756.03207	0.03296
754.10342	0.03327
752.17476	0.03357
750.24611	0.03390
748.31746	0.03414
746.38880	0.03426
744.46015	0.03445
742.53150	0.03465
740.60284	0.03481
738.67419	0.03522
736.74554	0.03565
734.81688	0.03576
732.88823	0.03581
730.95958	0.03608
729.03092	0.03649
727.10227	0.03682
725.17362	0.03707
723.24497	0.03728
721.31631	0.03775
719.38766	0.03810
717.45901	0.03822
715.53035	0.03822
713.60170	0.03831
711.67305	0.03857
709.74439	0.03897
707.81574	0.03945
705.88709	0.03984
703.95843	0.04005
702.02978	0.04021
700.10113	0.04039
698.17247	0.04053
696.24382	0.04060
694.31517	0.04069
692.38651	0.04086
690.45786	0.04106
688.52921	0.04123
686.60055	0.04142
684.67190	0.04162
682.74325	0.04180
680.81459	0.04198
678.88594	0.04212
676.95729	0.04221
675.02863	0.04230
673.09998	0.04238
671.17133	0.04258
669.24267	0.04298
667.31402	0.04300
665.38537	0.04322
663.45671	0.04340
661.52806	0.04357
659.59941	0.04364
657.67075	0.04357
655.74210	0.04358
653.81345	0.04387
651.88480	0.04425
649.95614	0.04440
648.02749	0.04422
646.09884	0.04392
644.17018	0.04381
642.24153	0.04394
640.31288	0.04418
638.38422	0.04433
636.45557	0.04430
634.52692	0.04411
632.59826	0.04389
630.66961	0.04375
628.74096	0.04374
626.81230	0.04362
624.88365	0.04291
622.95500	0.04206
621.02634	0.04265
619.09769	0.04308
617.16904	0.04125
615.24038	0.04003
613.31173	0.04114
611.38308	0.04278
609.45442	0.04363
607.52577	0.04244
605.59712	0.04048
603.66846	0.04089
601.73981	0.04308
599.81116	0.04467
597.88250	0.04518
595.95385	0.04509
594.02520	0.04478
592.09654	0.04451
590.16789	0.04434
588.23924	0.04426
586.31059	0.04437
584.38193	0.04468
582.45328	0.04490
580.52463	0.04490
578.59597	0.04487
576.66732	0.04491
574.73867	0.04505
572.81001	0.04533
570.88136	0.04568
568.95271	0.04597
567.02405	0.04611
565.09540	0.04603
563.16675	0.04588
561.23809	0.04602
559.30944	0.04627
557.38079	0.04611
555.45213	0.04580
553.52348	0.04584
551.59483	0.04605
549.66617	0.04615
547.73752	0.04618
545.80887	0.04619
543.88021	0.04617
541.95156	0.04596
540.02291	0.04550
538.09425	0.04510
536.16560	0.04511
534.23695	0.04540
532.30829	0.04577
530.37964	0.04604
528.45099	0.04606
526.52233	0.04593
524.59368	0.04576
522.66503	0.04558
520.73637	0.04548
518.80772	0.04527
516.87907	0.04477
514.95042	0.04423
513.02176	0.04389
511.09311	0.04368
509.16446	0.04350
507.23580	0.04323
505.30715	0.04289
503.37850	0.04265
501.44984	0.04250
499.52119	0.04229
497.59254	0.04207
495.66388	0.04198
493.73523	0.04192
491.80658	0.04175
489.87792	0.04157
487.94927	0.04139
486.02062	0.04106
484.09196	0.04055
482.16331	0.04013
480.23466	0.03994
478.30600	0.03989
476.37735	0.03980
474.44870	0.03956
472.52004	0.03926
470.59139	0.03912
468.66274	0.03909
466.73408	0.03897
464.80543	0.03881
462.87678	0.03861
460.94812	0.03822
459.01947	0.03770
457.09082	0.03731
455.16216	0.03705
453.23351	0.03667
451.30486	0.03628
449.37620	0.03616
447.44755	0.03617
445.51890	0.03604
443.59025	0.03573
441.66159	0.03539
439.73294	0.03506
437.80429	0.03473
435.87563	0.03442
433.94698	0.03421
432.01833	0.03409
430.08967	0.03396
428.16102	0.03372
426.23237	0.03349
424.30371	0.03331
422.37506	0.03313
420.44641	0.03292
418.51775	0.03270
416.58910	0.03252
414.66045	0.03239
412.73179	0.03223
410.80314	0.03201
408.87449	0.03183
406.94583	0.03169
405.01718	0.03153
403.08853	0.03126
401.15987	0.03089
399.23122	0.03055
