3996.16951	0.03714
3994.24086	0.03719
3992.31220	0.03693
3990.38355	0.03685
3988.45490	0.03681
3986.52624	0.03652
3984.59759	0.03606
3982.66894	0.03577
3980.74028	0.03591
3978.81163	0.03628
3976.88298	0.03634
3974.95432	0.03589
3973.02567	0.03541
3971.09702	0.03526
3969.16836	0.03515
3967.23971	0.03494
3965.31106	0.03489
3963.38240	0.03507
3961.45375	0.03551
3959.52510	0.03604
3957.59645	0.03625
3955.66779	0.03630
3953.73914	0.03638
3951.81049	0.03626
3949.88183	0.03591
3947.95318	0.03547
3946.02453	0.03505
3944.09587	0.03474
3942.16722	0.03477
3940.23857	0.03519
3938.30991	0.03539
3936.38126	0.03506
3934.45261	0.03463
3932.52395	0.03450
3930.59530	0.03453
3928.66665	0.03440
3926.73799	0.03415
3924.80934	0.03386
3922.88069	0.03380
3920.95203	0.03415
3919.02338	0.03455
3917.09473	0.03456
3915.16607	0.03423
3913.23742	0.03377
3911.30877	0.03379
3909.38011	0.03451
3907.45146	0.03525
3905.52281	0.03541
3903.59415	0.03518
3901.66550	0.03488
3899.73685	0.03441
3897.80819	0.03384
3895.87954	0.03335
3893.95089	0.03314
3892.02224	0.03327
3890.09358	0.03367
3888.16493	0.03374
3886.23628	0.03350
3884.30762	0.03375
3882.37897	0.03370
3880.45032	0.03299
3878.52166	0.03267
3876.59301	0.03287
3874.66436	0.03318
3872.73570	0.03357
3870.80705	0.03386
3868.87840	0.03434
3866.94974	0.03456
3865.02109	0.03444
3863.09244	0.03459
3861.16378	0.03422
3859.23513	0.03342
3857.30648	0.03299
3855.37782	0.03268
3853.44917	0.03270
3851.52052	0.03314
3849.59186	0.03302
3847.66321	0.03229
3845.73456	0.03130
3843.80590	0.03070
3841.87725	0.03112
3839.94860	0.03178
3838.01994	0.03194
3836.09129	0.03205
3834.16264	0.03220
3832.23398	0.03235
3830.30533	0.03248
3828.37668	0.03229
3826.44803	0.03180
3824.51937	0.03120
3822.59072	0.03048
3820.66207	0.03074
3818.73341	0.03170
3816.80476	0.03183
3814.87611	0.03196
3812.94745	0.03207
3811.01880	0.03158
3809.09015	0.03094
3807.16149	0.03070
3805.23284	0.03090
3803.30419	0.03032
3801.37553	0.02982
3799.44688	0.03063
3797.51823	0.03100
3795.58957	0.03055
3793.66092	0.03021
3791.73227	0.03040
3789.80361	0.03090
3787.87496	0.03097
3785.94631	0.03047
3784.01765	0.02995
3782.08900	0.02990
3780.16035	0.03024
3778.23169	0.03047
3776.30304	0.03030
3774.37439	0.03041
3772.44573	0.03088
3770.51708	0.03080
3768.58843	0.03055
3766.65977	0.03063
3764.73112	0.03063
3762.80247	0.03030
3760.87381	0.02990
3758.94516	0.03005
3757.01651	0.03048
3755.08786	0.03053
3753.15920	0.03017
3751.23055	0.03022
3749.30190	0.03039
3747.37324	0.03002
3745.44459	0.02882
3743.51594	0.02859
3741.58728	0.02904
3739.65863	0.02866
3737.72998	0.02831
3735.80132	0.02884
3733.87267	0.02940
3731.94402	0.02862
3730.01536	0.02755
3728.08671	0.02743
3726.15806	0.02823
3724.22940	0.02885
3722.30075	0.02852
3720.37210	0.02793
3718.44344	0.02787
3716.51479	0.02804
3714.58614	0.02762
3712.65748	0.02699
3710.72883	0.02740
3708.80018	0.02834
3706.87152	0.02859
3704.94287	0.02833
3703.01422	0.02817
3701.08556	0.02804
3699.15691	0.02773
3697.22826	0.02760
3695.29960	0.02803
3693.37095	0.02857
3691.44230	0.02861
3689.51365	0.02785
3687.58499	0.02720
3685.65634	0.02723
3683.72769	0.02732
3681.79903	0.02754
3679.87038	0.02790
3677.94173	0.02804
3676.01307	0.02777
3674.08442	0.02770
3672.15577	0.02727
3670.22711	0.02688
3668.29846	0.02737
3666.36981	0.02768
3664.44115	0.02755
3662.51250	0.02765
3660.58385	0.02812
3658.65519	0.02847
3656.72654	0.02839
3654.79789	0.02822
3652.86923	0.02790
3650.94058	0.02757
3649.01193	0.02779
3647.08327	0.02838
3645.15462	0.02891
3643.22597	0.02927
3641.29731	0.02947
3639.36866	0.02974
3637.44001	0.03018
3635.51135	0.03046
3633.58270	0.03033
3631.65405	0.02993
3629.72539	0.02967
3627.79674	0.02994
3625.86809	0.02988
3623.93943	0.02965
3622.01078	0.03024
3620.08213	0.03111
3618.15348	0.03195
3616.22482	0.03265
3614.29617	0.03296
3612.36752	0.03314
3610.43886	0.03327
3608.51021	0.03331
3606.58156	0.03338
3604.65290	0.03338
3602.72425	0.03354
3600.79560	0.03407
3598.86694	0.03463
3596.93829	0.03486
3595.00964	0.03493
3593.08098	0.03509
3591.15233	0.03504
3589.22368	0.03442
3587.29502	0.03385
3585.36637	0.03414
3583.43772	0.03493
3581.50906	0.03552
3579.58041	0.03587
3577.65176	0.03634
3575.72310	0.03700
3573.79445	0.03754
3571.86580	0.03782
3569.93714	0.03789
3568.00849	0.03793
3566.07984	0.03833
3564.15118	0.03905
3562.22253	0.03942
3560.29388	0.03936
3558.36522	0.03960
3556.43657	0.04012
3554.50792	0.04038
3552.57927	0.04063
3550.65061	0.04110
3548.72196	0.04152
3546.79331	0.04180
3544.86465	0.04212
3542.93600	0.04258
3541.00735	0.04284
3539.07869	0.04286
3537.15004	0.04312
3535.22139	0.04359
3533.29273	0.04390
3531.36408	0.04426
3529.43543	0.04469
3527.50677	0.04498
3525.57812	0.04528
3523.64947	0.04550
3521.72081	0.04527
3519.79216	0.04498
3517.86351	0.04541
3515.93485	0.04653
3514.00620	0.04738
3512.07755	0.04747
3510.14889	0.04734
3508.22024	0.04754
3506.29159	0.04800
3504.36293	0.04846
3502.43428	0.04869
3500.50563	0.04877
3498.57697	0.04891
3496.64832	0.04902
3494.71967	0.04920
3492.79101	0.04979
3490.86236	0.05045
3488.93371	0.05051
3487.00506	0.05028
3485.07640	0.05050
3483.14775	0.05103
3481.21910	0.05123
3479.29044	0.05117
3477.36179	0.05141
3475.43314	0.05195
3473.50448	0.05228
3471.57583	0.05222
3469.64718	0.05211
3467.71852	0.05220
3465.78987	0.05241
3463.86122	0.05259
3461.93256	0.05287
3460.00391	0.05337
3458.07526	0.05387
3456.14660	0.05417
3454.21795	0.05432
3452.28930	0.05445
3450.36064	0.05466
3448.43199	0.05497
3446.50334	0.05529
3444.57468	0.05541
3442.64603	0.05539
3440.71738	0.05552
3438.78872	0.05567
3436.86007	0.05578
3434.93142	0.05615
3433.00276	0.05678
3431.07411	0.05747
3429.14546	0.05794
3427.21680	0.05778
3425.28815	0.05733
3423.35950	0.05739
3421.43084	0.05791
3419.50219	0.05828
3417.57354	0.05837
3415.64489	0.05868
3413.71623	0.05928
3411.78758	0.05961
3409.85893	0.05963
3407.93027	0.05958
3406.00162	0.05963
3404.07297	0.05990
3402.14431	0.06019
3400.21566	0.06031
3398.28701	0.06036
3396.35835	0.06059
3394.42970	0.06104
3392.50105	0.06141
3390.57239	0.06152
3388.64374	0.06169
3386.71509	0.06205
3384.78643	0.06215
3382.85778	0.06189
3380.92913	0.06167
3379.00047	0.06182
3377.07182	0.06240
3375.14317	0.06320
3373.21451	0.06381
3371.28586	0.06417
3369.35721	0.06449
3367.42855	0.06469
3365.49990	0.06473
3363.57125	0.06486
3361.64259	0.06527
3359.71394	0.06582
3357.78529	0.06630
3355.85663	0.06675
3353.92798	0.06729
3351.99933	0.06807
3350.07068	0.06902
3348.14202	0.06974
3346.21337	0.07010
3344.28472	0.07031
3342.35606	0.07061
3340.42741	0.07096
3338.49876	0.07133
3336.57010	0.07172
3334.64145	0.07199
3332.71280	0.07214
3330.78414	0.07250
3328.85549	0.07318
3326.92684	0.07389
3324.99818	0.07436
3323.06953	0.07469
3321.14088	0.07496
3319.21222	0.07503
3317.28357	0.07508
3315.35492	0.07536
3313.42626	0.07568
3311.49761	0.07580
3309.56896	0.07577
3307.64030	0.07577
3305.71165	0.07584
3303.78300	0.07588
3301.85434	0.07603
3299.92569	0.07650
3297.99704	0.07700
3296.06838	0.07687
3294.13973	0.07615
3292.21108	0.07549
3290.28242	0.07514
3288.35377	0.07514
3286.42512	0.07542
3284.49646	0.07590
3282.56781	0.07647
3280.63916	0.07680
3278.71051	0.07659
3276.78185	0.07603
3274.85320	0.07543
3272.92455	0.07497
3270.99589	0.07484
3269.06724	0.07483
3267.13859	0.07451
3265.20993	0.07415
3263.28128	0.07415
3261.35263	0.07427
3259.42397	0.07413
3257.49532	0.07368
3255.56667	0.07306
3253.63801	0.07251
3251.70936	0.07216
3249.78071	0.07197
3247.85205	0.07173
3245.92340	0.07147
3243.99475	0.07138
3242.06609	0.07142
3240.13744	0.07142
3238.20879	0.07134
3236.28013	0.07108
3234.35148	0.07049
3232.42283	0.06982
3230.49417	0.06946
3228.56552	0.06940
3226.63687	0.06922
3224.70821	0.06872
3222.77956	0.06827
3220.85091	0.06817
3218.92225	0.06837
3216.99360	0.06857
3215.06495	0.06856
3213.13630	0.06842
3211.20764	0.06813
3209.27899	0.06761
3207.35034	0.06712
3205.42168	0.06691
3203.49303	0.06701
3201.56438	0.06728
3199.63572	0.06732
3197.70707	0.06672
3195.77842	0.06567
3193.84976	0.06471
3191.92111	0.06423
3189.99246	0.06437
3188.06380	0.06472
3186.13515	0.06466
3184.20650	0.06414
3182.27784	0.06362
3180.34919	0.06335
3178.42054	0.06306
3176.49188	0.06252
3174.56323	0.06204
3172.63458	0.06183
3170.70592	0.06138
3168.77727	0.06060
3166.84862	0.05997
3164.91996	0.05955
3162.99131	0.05918
3161.06266	0.05898
3159.13400	0.05891
3157.20535	0.05868
3155.27670	0.05828
3153.34804	0.05787
3151.41939	0.05742
3149.49074	0.05696
3147.56209	0.05665
3145.63343	0.05659
3143.70478	0.05655
3141.77613	0.05618
3139.84747	0.05567
3137.91882	0.05542
3135.99017	0.05529
3134.06151	0.05489
3132.13286	0.05435
3130.20421	0.05405
3128.27555	0.05402
3126.34690	0.05400
3124.41825	0.05387
3122.48959	0.05355
3120.56094	0.05318
3118.63229	0.05317
3116.70363	0.05334
3114.77498	0.05316
3112.84633	0.05296
3110.91767	0.05316
3108.98902	0.05341
3107.06037	0.05347
3105.13171	0.05359
3103.20306	0.05372
3101.27441	0.05365
3099.34575	0.05352
3097.41710	0.05357
3095.48845	0.05376
3093.55979	0.05389
3091.63114	0.05389
3089.70249	0.05378
3087.77383	0.05367
3085.84518	0.05373
3083.91653	0.05397
3081.98787	0.05423
3080.05922	0.05436
3078.13057	0.05435
3076.20192	0.05421
3074.27326	0.05409
3072.34461	0.05415
3070.41596	0.05438
3068.48730	0.05452
3066.55865	0.05431
3064.63000	0.05379
3062.70134	0.05329
3060.77269	0.05314
3058.84404	0.05333
3056.91538	0.05347
3054.98673	0.05326
3053.05808	0.05299
3051.12942	0.05290
3049.20077	0.05270
3047.27212	0.05223
3045.34346	0.05168
3043.41481	0.05121
3041.48616	0.05090
3039.55750	0.05066
3037.62885	0.05028
3035.70020	0.04982
3033.77154	0.04949
3031.84289	0.04932
3029.91424	0.04920
3027.98558	0.04902
3026.05693	0.04878
3024.12828	0.04849
3022.19962	0.04810
3020.27097	0.04750
3018.34232	0.04668
3016.41366	0.04597
3014.48501	0.04580
3012.55636	0.04612
3010.62771	0.04645
3008.69905	0.04658
3006.77040	0.04665
3004.84175	0.04667
3002.91309	0.04662
3000.98444	0.04656
2999.05579	0.04642
2997.12713	0.04609
2995.19848	0.04595
2993.26983	0.04621
2991.34117	0.04660
2989.41252	0.04695
2987.48387	0.04719
2985.55521	0.04732
2983.62656	0.04752
2981.69791	0.04798
2979.76925	0.04854
2977.84060	0.04879
2975.91195	0.04868
2973.98329	0.04873
2972.05464	0.04910
2970.12599	0.04938
2968.19733	0.04948
2966.26868	0.04967
2964.34003	0.04996
2962.41137	0.05017
2960.48272	0.05027
2958.55407	0.05039
2956.62541	0.05059
2954.69676	0.05077
2952.76811	0.05078
2950.83945	0.05071
2948.91080	0.05075
2946.98215	0.05097
2945.05349	0.05129
2943.12484	0.05156
2941.19619	0.05188
2939.26754	0.05230
2937.33888	0.05251
2935.41023	0.05232
2933.48158	0.05194
2931.55292	0.05166
2929.62427	0.05172
2927.69562	0.05210
2925.76696	0.05233
2923.83831	0.05224
2921.90966	0.05201
2919.98100	0.05160
2918.05235	0.05109
2916.12370	0.05051
2914.19504	0.04963
2912.26639	0.04878
2910.33774	0.04836
2908.40908	0.04809
2906.48043	0.04784
2904.55178	0.04764
2902.62312	0.04731
2900.69447	0.04686
2898.76582	0.04648
2896.83716	0.04625
2894.90851	0.04606
2892.97986	0.04575
2891.05120	0.04549
2889.12255	0.04564
2887.19390	0.04603
2885.26524	0.04618
2883.33659	0.04604
2881.40794	0.04587
2879.47928	0.04576
2877.55063	0.04564
2875.62198	0.04546
2873.69333	0.04530
2871.76467	0.04510
2869.83602	0.04486
2867.90737	0.04464
2865.97871	0.04437
2864.05006	0.04404
2862.12141	0.04378
2860.19275	0.04369
2858.26410	0.04361
2856.33545	0.04341
2854.40679	0.04335
2852.47814	0.04351
2850.54949	0.04347
2848.62083	0.04298
2846.69218	0.04239
2844.76353	0.04199
2842.83487	0.04161
2840.90622	0.04108
2838.97757	0.04060
2837.04891	0.04038
2835.12026	0.04038
2833.19161	0.04042
2831.26295	0.04029
2829.33430	0.03986
2827.40565	0.03933
2825.47699	0.03897
2823.54834	0.03876
2821.61969	0.03862
2819.69103	0.03864
2817.76238	0.03869
2815.83373	0.03857
2813.90507	0.03839
2811.97642	0.03831
2810.04777	0.03819
2808.11912	0.03793
2806.19046	0.03772
2804.26181	0.03766
2802.33316	0.03764
2800.40450	0.03764
2798.47585	0.03761
2796.54720	0.03746
2794.61854	0.03720
2792.68989	0.03703
2790.76124	0.03696
2788.83258	0.03690
2786.90393	0.03678
2784.97528	0.03658
2783.04662	0.03641
2781.11797	0.03629
2779.18932	0.03620
2777.26066	0.03617
2775.33201	0.03607
2773.40336	0.03597
2771.47470	0.03596
2769.54605	0.03586
2767.61740	0.03552
2765.68874	0.03526
2763.76009	0.03534
2761.83144	0.03561
2759.90278	0.03578
2757.97413	0.03572
2756.04548	0.03547
2754.11682	0.03517
2752.18817	0.03501
2750.25952	0.03489
2748.33086	0.03474
2746.40221	0.03471
2744.47356	0.03469
2742.54490	0.03448
2740.61625	0.03407
2738.68760	0.03375
2736.75895	0.03388
2734.83029	0.03422
2732.90164	0.03425
2730.97299	0.03399
2729.04433	0.03376
2727.11568	0.03366
2725.18703	0.03361
2723.25837	0.03355
2721.32972	0.03352
2719.40107	0.03347
2717.47241	0.03321
2715.54376	0.03285
2713.61511	0.03270
2711.68645	0.03279
2709.75780	0.03290
2707.82915	0.03292
2705.90049	0.03282
2703.97184	0.03263
2702.04319	0.03251
2700.11453	0.03253
2698.18588	0.03250
2696.25723	0.03233
2694.32857	0.03207
2692.39992	0.03191
2690.47127	0.03194
2688.54261	0.03200
2686.61396	0.03199
2684.68531	0.03193
2682.75665	0.03175
2680.82800	0.03154
2678.89935	0.03156
2676.97069	0.03167
2675.04204	0.03165
2673.11339	0.03158
2671.18474	0.03147
2669.25608	0.03124
2667.32743	0.03104
2665.39878	0.03107
2663.47012	0.03130
2661.54147	0.03138
2659.61282	0.03099
2657.68416	0.03042
2655.75551	0.03008
2653.82686	0.02994
2651.89820	0.02983
2649.96955	0.02965
2648.04090	0.02935
2646.11224	0.02899
2644.18359	0.02869
2642.25494	0.02847
2640.32628	0.02836
2638.39763	0.02831
2636.46898	0.02820
2634.54032	0.02800
2632.61167	0.02785
2630.68302	0.02787
2628.75436	0.02780
2626.82571	0.02749
2624.89706	0.02723
2622.96840	0.02709
2621.03975	0.02692
2619.11110	0.02676
2617.18244	0.02685
2615.25379	0.02702
2613.32514	0.02688
2611.39648	0.02660
2609.46783	0.02642
2607.53918	0.02624
2605.61052	0.02600
2603.68187	0.02581
2601.75322	0.02573
2599.82457	0.02581
2597.89591	0.02591
2595.96726	0.02598
2594.03861	0.02602
2592.10995	0.02595
2590.18130	0.02571
2588.25265	0.02524
2586.32399	0.02464
2584.39534	0.02431
2582.46669	0.02441
2580.53803	0.02456
2578.60938	0.02456
2576.68073	0.02454
2574.75207	0.02464
2572.82342	0.02480
2570.89477	0.02495
2568.96611	0.02495
2567.03746	0.02469
2565.10881	0.02442
2563.18015	0.02425
2561.25150	0.02396
2559.32285	0.02366
2557.39419	0.02356
2555.46554	0.02372
2553.53689	0.02399
2551.60823	0.02400
2549.67958	0.02372
2547.75093	0.02336
2545.82227	0.02303
2543.89362	0.02285
2541.96497	0.02292
2540.03631	0.02310
2538.10766	0.02312
2536.17901	0.02290
2534.25036	0.02262
2532.32170	0.02245
2530.39305	0.02246
2528.46440	0.02260
2526.53574	0.02268
2524.60709	0.02262
2522.67844	0.02257
2520.74978	0.02237
2518.82113	0.02196
2516.89248	0.02177
2514.96382	0.02189
2513.03517	0.02203
2511.10652	0.02212
2509.17786	0.02224
2507.24921	0.02237
2505.32056	0.02241
2503.39190	0.02242
2501.46325	0.02251
2499.53460	0.02245
2497.60594	0.02211
2495.67729	0.02185
2493.74864	0.02195
2491.81998	0.02215
2489.89133	0.02214
2487.96268	0.02201
2486.03402	0.02191
2484.10537	0.02180
2482.17672	0.02176
2480.24806	0.02184
2478.31941	0.02183
2476.39076	0.02174
2474.46210	0.02154
2472.53345	0.02118
2470.60480	0.02113
2468.67615	0.02145
2466.74749	0.02153
2464.81884	0.02140
2462.89019	0.02132
2460.96153	0.02110
2459.03288	0.02079
2457.10423	0.02061
2455.17557	0.02043
2453.24692	0.02018
2451.31827	0.02023
2449.38961	0.02049
2447.46096	0.02043
2445.53231	0.02027
2443.60365	0.02028
2441.67500	0.02036
2439.74635	0.02057
2437.81769	0.02089
2435.88904	0.02116
2433.96039	0.02125
2432.03173	0.02099
2430.10308	0.02056
2428.17443	0.02052
2426.24577	0.02070
2424.31712	0.02070
2422.38847	0.02065
2420.45981	0.02060
2418.53116	0.02067
2416.60251	0.02098
2414.67385	0.02108
2412.74520	0.02076
2410.81655	0.02071
2408.88789	0.02105
2406.95924	0.02112
2405.03059	0.02078
2403.10193	0.02045
2401.17328	0.02054
2399.24463	0.02078
2397.31598	0.02067
2395.38732	0.02051
2393.45867	0.02078
2391.53002	0.02125
2389.60136	0.02152
2387.67271	0.02165
2385.74406	0.02173
2383.81540	0.02167
2381.88675	0.02145
2379.95810	0.02139
2378.02944	0.02170
2376.10079	0.02205
2374.17214	0.02210
2372.24348	0.02196
2370.31483	0.02192
2368.38618	0.02229
2366.45752	0.02240
2364.52887	0.02215
2362.60022	0.02182
2360.67156	0.02177
2358.74291	0.02180
2356.81426	0.02213
2354.88560	0.02217
2352.95695	0.02180
2351.02830	0.02144
2349.09964	0.02132
2347.17099	0.02160
2345.24234	0.02192
2343.31368	0.02195
2341.38503	0.02173
2339.45638	0.02159
2337.52772	0.02178
2335.59907	0.02189
2333.67042	0.02185
2331.74177	0.02176
2329.81311	0.02141
2327.88446	0.02080
2325.95581	0.02020
2324.02715	0.01986
2322.09850	0.01995
2320.16985	0.02017
2318.24119	0.02002
2316.31254	0.01954
2314.38389	0.01915
2312.45523	0.01918
2310.52658	0.01954
2308.59793	0.01975
2306.66927	0.01955
2304.74062	0.01905
2302.81197	0.01862
2300.88331	0.01849
2298.95466	0.01847
2297.02601	0.01826
2295.09735	0.01793
2293.16870	0.01756
2291.24005	0.01728
2289.31139	0.01722
2287.38274	0.01698
2285.45409	0.01621
2283.52543	0.01562
2281.59678	0.01600
2279.66813	0.01675
2277.73947	0.01688
2275.81082	0.01644
2273.88217	0.01607
2271.95351	0.01617
2270.02486	0.01635
2268.09621	0.01602
2266.16755	0.01538
2264.23890	0.01531
2262.31025	0.01593
2260.38160	0.01620
2258.45294	0.01572
2256.52429	0.01525
2254.59564	0.01504
2252.66698	0.01468
2250.73833	0.01448
2248.80968	0.01491
2246.88102	0.01518
2244.95237	0.01461
2243.02372	0.01388
2241.09506	0.01339
2239.16641	0.01290
2237.23776	0.01267
2235.30910	0.01307
2233.38045	0.01389
2231.45180	0.01465
2229.52314	0.01487
2227.59449	0.01450
2225.66584	0.01396
2223.73718	0.01376
2221.80853	0.01377
2219.87988	0.01347
2217.95122	0.01316
2216.02257	0.01296
2214.09392	0.01224
2212.16526	0.01133
2210.23661	0.01084
2208.30796	0.01102
2206.37930	0.01161
2204.45065	0.01137
2202.52200	0.01059
2200.59334	0.01061
2198.66469	0.01094
2196.73604	0.01078
2194.80739	0.01056
2192.87873	0.01039
2190.95008	0.01018
2189.02143	0.01052
2187.09277	0.01131
2185.16412	0.01113
2183.23547	0.00986
2181.30681	0.00919
2179.37816	0.00942
2177.44951	0.00954
2175.52085	0.00901
2173.59220	0.00817
2171.66355	0.00777
2169.73489	0.00761
2167.80624	0.00683
2165.87759	0.00540
2163.94893	0.00405
2162.02028	0.00344
2160.09163	0.00389
2158.16297	0.00555
2156.23432	0.00792
2154.30567	0.00923
2152.37701	0.00900
2150.44836	0.00908
2148.51971	0.00972
2146.59105	0.01019
2144.66240	0.01142
2142.73375	0.01299
2140.80509	0.01343
2138.87644	0.01312
2136.94779	0.01295
2135.01913	0.01304
2133.09048	0.01315
2131.16183	0.01312
2129.23318	0.01326
2127.30452	0.01378
2125.37587	0.01427
2123.44722	0.01431
2121.51856	0.01397
2119.58991	0.01353
2117.66126	0.01320
2115.73260	0.01309
2113.80395	0.01349
2111.87530	0.01416
2109.94664	0.01410
2108.01799	0.01321
2106.08934	0.01234
2104.16068	0.01190
2102.23203	0.01164
2100.30338	0.01146
2098.37472	0.01128
2096.44607	0.01188
2094.51742	0.01276
2092.58876	0.01286
2090.66011	0.01245
2088.73146	0.01221
2086.80280	0.01205
2084.87415	0.01196
2082.94550	0.01184
2081.01684	0.01141
2079.08819	0.01043
2077.15954	0.00945
2075.23088	0.00925
2073.30223	0.00943
2071.37358	0.00925
2069.44492	0.00879
2067.51627	0.00858
2065.58762	0.00855
2063.65896	0.00851
2061.73031	0.00890
2059.80166	0.00949
2057.87301	0.00955
2055.94435	0.00933
2054.01570	0.00915
2052.08705	0.00873
2050.15839	0.00786
2048.22974	0.00697
2046.30109	0.00706
2044.37243	0.00796
2042.44378	0.00793
2040.51513	0.00665
2038.58647	0.00562
2036.65782	0.00573
2034.72917	0.00648
2032.80051	0.00696
2030.87186	0.00685
2028.94321	0.00665
2027.01455	0.00675
2025.08590	0.00658
2023.15725	0.00569
2021.22859	0.00506
2019.29994	0.00516
2017.37129	0.00540
2015.44263	0.00635
2013.51398	0.00799
2011.58533	0.00829
2009.65667	0.00683
2007.72802	0.00549
2005.79937	0.00521
2003.87071	0.00573
2001.94206	0.00680
2000.01341	0.00803
1998.08475	0.00881
1996.15610	0.00877
1994.22745	0.00851
1992.29880	0.00885
1990.37014	0.00938
1988.44149	0.00948
1986.51284	0.00941
1984.58418	0.00909
1982.65553	0.00821
1980.72688	0.00668
1978.79822	0.00502
1976.86957	0.00443
1974.94092	0.00481
1973.01226	0.00484
1971.08361	0.00493
1969.15496	0.00605
1967.22630	0.00727
1965.29765	0.00784
1963.36900	0.00819
1961.44034	0.00851
1959.51169	0.00878
1957.58304	0.00917
1955.65438	0.00970
1953.72573	0.00985
1951.79708	0.00933
1949.86842	0.00867
1947.93977	0.00863
1946.01112	0.00939
1944.08246	0.01029
1942.15381	0.01076
1940.22516	0.01089
1938.29650	0.01070
1936.36785	0.01032
1934.43920	0.01019
1932.51054	0.01025
1930.58189	0.00998
1928.65324	0.00959
1926.72458	0.00971
1924.79593	0.01021
1922.86728	0.01081
1920.93863	0.01127
1919.00997	0.01119
1917.08132	0.01087
1915.15267	0.01066
1913.22401	0.01060
1911.29536	0.01076
1909.36671	0.01095
1907.43805	0.01105
1905.50940	0.01108
1903.58075	0.01091
1901.65209	0.01068
1899.72344	0.01063
1897.79479	0.01080
1895.86613	0.01109
1893.93748	0.01125
1892.00883	0.01112
1890.08017	0.01100
1888.15152	0.01104
1886.22287	0.01109
1884.29421	0.01112
1882.36556	0.01107
1880.43691	0.01094
1878.50825	0.01080
1876.57960	0.01061
1874.65095	0.01052
1872.72229	0.01070
1870.79364	0.01086
1868.86499	0.01079
1866.93633	0.01074
1865.00768	0.01073
1863.07903	0.01077
1861.15037	0.01097
1859.22172	0.01126
1857.29307	0.01148
1855.36442	0.01155
1853.43576	0.01145
1851.50711	0.01122
1849.57846	0.01102
1847.64980	0.01093
1845.72115	0.01090
1843.79250	0.01102
1841.86384	0.01124
1839.93519	0.01115
1838.00654	0.01094
1836.07788	0.01099
1834.14923	0.01111
1832.22058	0.01103
1830.29192	0.01093
1828.36327	0.01099
1826.43462	0.01094
1824.50596	0.01068
1822.57731	0.01035
1820.64866	0.01011
1818.72000	0.01031
1816.79135	0.01097
1814.86270	0.01155
1812.93404	0.01162
1811.00539	0.01138
1809.07674	0.01117
1807.14808	0.01104
1805.21943	0.01097
1803.29078	0.01090
1801.36212	0.01080
1799.43347	0.01079
1797.50482	0.01085
1795.57616	0.01089
1793.64751	0.01080
1791.71886	0.01077
1789.79021	0.01086
1787.86155	0.01072
1785.93290	0.01042
1784.00425	0.01032
1782.07559	0.01039
1780.14694	0.01043
1778.21829	0.01046
1776.28963	0.01045
1774.36098	0.01037
1772.43233	0.01042
1770.50367	0.01068
1768.57502	0.01075
1766.64637	0.01072
1764.71771	0.01073
1762.78906	0.01065
1760.86041	0.01060
1758.93175	0.01059
1757.00310	0.01064
1755.07445	0.01086
1753.14579	0.01092
1751.21714	0.01084
1749.28849	0.01097
1747.35983	0.01116
1745.43118	0.01136
1743.50253	0.01161
1741.57387	0.01183
1739.64522	0.01198
1737.71657	0.01222
1735.78791	0.01231
1733.85926	0.01240
1731.93061	0.01277
1730.00195	0.01306
1728.07330	0.01336
1726.14465	0.01374
1724.21599	0.01401
1722.28734	0.01420
1720.35869	0.01430
1718.43004	0.01433
1716.50138	0.01472
1714.57273	0.01534
1712.64408	0.01590
1710.71542	0.01655
1708.78677	0.01735
1706.85812	0.01830
1704.92946	0.01956
1703.00081	0.02097
1701.07216	0.02233
1699.14350	0.02420
1697.21485	0.02616
1695.28620	0.02797
1693.35754	0.03006
1691.42889	0.03192
1689.50024	0.03374
1687.57158	0.03570
1685.64293	0.03753
1683.71428	0.03969
1681.78562	0.04232
1679.85697	0.04494
1677.92832	0.04770
1675.99966	0.05054
1674.07101	0.05356
1672.14236	0.05666
1670.21370	0.05974
1668.28505	0.06295
1666.35640	0.06607
1664.42774	0.06886
1662.49909	0.07162
1660.57044	0.07448
1658.64178	0.07713
1656.71313	0.07929
1654.78448	0.08077
1652.85583	0.08214
1650.92717	0.08389
1648.99852	0.08515
1647.06987	0.08599
1645.14121	0.08701
1643.21256	0.08802
1641.28391	0.08884
1639.35525	0.08962
1637.42660	0.09020
1635.49795	0.09065
1633.56929	0.09118
1631.64064	0.09137
1629.71199	0.09103
1627.78333	0.09023
1625.85468	0.08883
1623.92603	0.08678
1621.99737	0.08445
1620.06872	0.08191
1618.14007	0.07895
1616.21141	0.07595
1614.28276	0.07320
1612.35411	0.07036
1610.42545	0.06745
1608.49680	0.06465
1606.56815	0.06201
1604.63949	0.05960
1602.71084	0.05742
1600.78219	0.05543
1598.85353	0.05359
1596.92488	0.05188
1594.99623	0.05038
1593.06757	0.04917
1591.13892	0.04830
1589.21027	0.04773
1587.28161	0.04740
1585.35296	0.04720
1583.42431	0.04710
1581.49566	0.04718
1579.56700	0.04756
1577.63835	0.04807
1575.70970	0.04898
1573.78104	0.05044
1571.85239	0.05189
1569.92374	0.05340
1567.99508	0.05523
1566.06643	0.05714
1564.13778	0.05911
1562.20912	0.06103
1560.28047	0.06267
1558.35182	0.06462
1556.42316	0.06682
1554.49451	0.06852
1552.56586	0.06979
1550.63720	0.07076
1548.70855	0.07160
1546.77990	0.07237
1544.85124	0.07289
1542.92259	0.07315
1540.99394	0.07315
1539.06528	0.07321
1537.13663	0.07337
1535.20798	0.07314
1533.27932	0.07268
1531.35067	0.07229
1529.42202	0.07178
1527.49336	0.07111
1525.56471	0.07030
1523.63606	0.06936
1521.70740	0.06833
1519.77875	0.06753
1517.85010	0.06670
1515.92145	0.06569
1513.99279	0.06452
1512.06414	0.06308
1510.13549	0.06143
1508.20683	0.05945
1506.27818	0.05750
1504.34953	0.05597
1502.42087	0.05430
1500.49222	0.05235
1498.56357	0.05043
1496.63491	0.04860
1494.70626	0.04689
1492.77761	0.04518
1490.84895	0.04349
1488.92030	0.04210
1486.99165	0.04103
1485.06299	0.04022
1483.13434	0.03964
1481.20569	0.03931
1479.27703	0.03928
1477.34838	0.03948
1475.41973	0.03992
1473.49107	0.04053
1471.56242	0.04142
1469.63377	0.04247
1467.70511	0.04343
1465.77646	0.04431
1463.84781	0.04537
1461.91915	0.04660
1459.99050	0.04771
1458.06185	0.04857
1456.13319	0.04949
1454.20454	0.05043
1452.27589	0.05101
1450.34724	0.05132
1448.41858	0.05129
1446.48993	0.05102
1444.56128	0.05069
1442.63262	0.05028
1440.70397	0.04975
1438.77532	0.04894
1436.84666	0.04794
1434.91801	0.04702
1432.98936	0.04601
1431.06070	0.04501
1429.13205	0.04428
1427.20340	0.04387
1425.27474	0.04362
1423.34609	0.04346
1421.41744	0.04324
1419.48878	0.04298
1417.56013	0.04293
1415.63148	0.04299
1413.70282	0.04313
1411.77417	0.04336
1409.84552	0.04362
1407.91686	0.04396
1405.98821	0.04435
1404.05956	0.04468
1402.13090	0.04477
1400.20225	0.04459
1398.27360	0.04441
1396.34494	0.04430
1394.41629	0.04418
1392.48764	0.04412
1390.55898	0.04403
1388.63033	0.04386
1386.70168	0.04371
1384.77302	0.04358
1382.84437	0.04337
1380.91572	0.04309
1378.98707	0.04278
1377.05841	0.04244
1375.12976	0.04200
1373.20111	0.04153
1371.27245	0.04103
1369.34380	0.04041
1367.41515	0.03974
1365.48649	0.03908
1363.55784	0.03842
1361.62919	0.03786
1359.70053	0.03744
1357.77188	0.03719
1355.84323	0.03715
1353.91457	0.03725
1351.98592	0.03747
1350.05727	0.03785
1348.12861	0.03842
1346.19996	0.03908
1344.27131	0.03974
1342.34265	0.04037
1340.41400	0.04090
1338.48535	0.04126
1336.55669	0.04146
1334.62804	0.04143
1332.69939	0.04107
1330.77073	0.04048
1328.84208	0.03986
1326.91343	0.03934
1324.98477	0.03889
1323.05612	0.03852
1321.12747	0.03825
1319.19881	0.03812
1317.27016	0.03807
1315.34151	0.03795
1313.41286	0.03764
1311.48420	0.03727
1309.55555	0.03698
1307.62690	0.03671
1305.69824	0.03644
1303.76959	0.03624
1301.84094	0.03608
1299.91228	0.03592
1297.98363	0.03579
1296.05498	0.03580
1294.12632	0.03596
1292.19767	0.03624
1290.26902	0.03663
1288.34036	0.03714
1286.41171	0.03767
1284.48306	0.03810
1282.55440	0.03843
1280.62575	0.03869
1278.69710	0.03884
1276.76844	0.03887
1274.83979	0.03881
1272.91114	0.03877
1270.98248	0.03884
1269.05383	0.03905
1267.12518	0.03937
1265.19652	0.03974
1263.26787	0.04010
1261.33922	0.04045
1259.41056	0.04091
1257.48191	0.04150
1255.55326	0.04213
1253.62460	0.04278
1251.69595	0.04346
1249.76730	0.04416
1247.83864	0.04491
1245.90999	0.04570
1243.98134	0.04646
1242.05269	0.04717
1240.12403	0.04782
1238.19538	0.04829
1236.26673	0.04859
1234.33807	0.04870
1232.40942	0.04856
1230.48077	0.04812
1228.55211	0.04745
1226.62346	0.04661
1224.69481	0.04559
1222.76615	0.04445
1220.83750	0.04335
1218.90885	0.04242
1216.98019	0.04170
1215.05154	0.04117
1213.12289	0.04088
1211.19423	0.04085
1209.26558	0.04105
1207.33693	0.04132
1205.40827	0.04151
1203.47962	0.04152
1201.55097	0.04133
1199.62231	0.04108
1197.69366	0.04048
1195.76501	0.03976
1193.83635	0.03896
1191.90770	0.03814
1189.97905	0.03735
1188.05039	0.03666
1186.12174	0.03611
1184.19309	0.03557
1182.26443	0.03509
1180.33578	0.03484
1178.40713	0.03478
1176.47848	0.03469
1174.54982	0.03454
1172.62117	0.03440
1170.69252	0.03435
1168.76386	0.03431
1166.83521	0.03426
1164.90656	0.03427
1162.97790	0.03435
1161.04925	0.03428
1159.12060	0.03392
1157.19194	0.03345
1155.26329	0.03306
1153.33464	0.03263
1151.40598	0.03201
1149.47733	0.03135
1147.54868	0.03082
1145.62002	0.03039
1143.69137	0.03001
1141.76272	0.02964
1139.83406	0.02921
1137.90541	0.02879
1135.97676	0.02855
1134.04810	0.02847
1132.11945	0.02847
1130.19080	0.02855
1128.26214	0.02858
1126.33349	0.02850
1124.40484	0.02831
1122.47618	0.02811
1120.54753	0.02798
1118.61888	0.02791
1116.69022	0.02790
1114.76157	0.02787
1112.83292	0.02779
1110.90427	0.02784
1108.97561	0.02814
1107.04696	0.02846
1105.11831	0.02863
1103.18965	0.02877
1101.26100	0.02900
1099.33235	0.02936
1097.40369	0.02975
1095.47504	0.03002
1093.54639	0.03026
1091.61773	0.03072
1089.68908	0.03143
1087.76043	0.03213
1085.83177	0.03273
1083.90312	0.03331
1081.97447	0.03385
1080.04581	0.03424
1078.11716	0.03436
1076.18851	0.03417
1074.25985	0.03385
1072.33120	0.03361
1070.40255	0.03345
1068.47389	0.03328
1066.54524	0.03314
1064.61659	0.03311
1062.68793	0.03318
1060.75928	0.03323
1058.83063	0.03310
1056.90197	0.03282
1054.97332	0.03251
1053.04467	0.03220
1051.11601	0.03187
1049.18736	0.03159
1047.25871	0.03139
1045.33005	0.03131
1043.40140	0.03130
1041.47275	0.03129
1039.54410	0.03129
1037.61544	0.03133
1035.68679	0.03148
1033.75814	0.03177
1031.82948	0.03205
1029.90083	0.03206
1027.97218	0.03168
1026.04352	0.03109
1024.11487	0.03047
1022.18622	0.02991
1020.25756	0.02938
1018.32891	0.02895
1016.40026	0.02868
1014.47160	0.02841
1012.54295	0.02803
1010.61430	0.02763
1008.68564	0.02722
1006.75699	0.02680
1004.82834	0.02636
1002.89968	0.02598
1000.97103	0.02567
999.04238	0.02537
997.11372	0.02504
995.18507	0.02474
993.25642	0.02447
991.32776	0.02418
989.39911	0.02394
987.47046	0.02381
985.54180	0.02372
983.61315	0.02366
981.68450	0.02367
979.75584	0.02372
977.82719	0.02378
975.89854	0.02376
973.96989	0.02371
972.04123	0.02366
970.11258	0.02349
968.18393	0.02321
966.25527	0.02299
964.32662	0.02279
962.39797	0.02257
960.46931	0.02244
958.54066	0.02238
956.61201	0.02227
954.68335	0.02209
952.75470	0.02191
950.82605	0.02176
948.89739	0.02166
946.96874	0.02168
945.04009	0.02180
943.11143	0.02190
941.18278	0.02194
939.25413	0.02186
937.32547	0.02171
935.39682	0.02161
933.46817	0.02162
931.53951	0.02170
929.61086	0.02184
927.68221	0.02195
925.75355	0.02191
923.82490	0.02171
921.89625	0.02149
919.96759	0.02133
918.03894	0.02124
916.11029	0.02118
914.18163	0.02112
912.25298	0.02101
910.32433	0.02084
908.39567	0.02067
906.46702	0.02059
904.53837	0.02052
902.60972	0.02042
900.68106	0.02032
898.75241	0.02030
896.82376	0.02035
894.89510	0.02040
892.96645	0.02034
891.03780	0.02017
889.10914	0.01998
887.18049	0.01993
885.25184	0.01999
883.32318	0.01998
881.39453	0.01999
879.46588	0.02021
877.53722	0.02044
875.60857	0.02047
873.67992	0.02040
871.75126	0.02027
869.82261	0.02014
867.89396	0.02011
865.96530	0.02011
864.03665	0.01997
862.10800	0.01977
860.17934	0.01964
858.25069	0.01962
856.32204	0.01969
854.39338	0.01983
852.46473	0.01994
850.53608	0.01994
848.60742	0.01984
846.67877	0.01976
844.75012	0.01980
842.82146	0.01984
840.89281	0.01975
838.96416	0.01959
837.03551	0.01953
835.10685	0.01959
833.17820	0.01966
831.24955	0.01980
829.32089	0.01997
827.39224	0.02001
825.46359	0.01993
823.53493	0.01997
821.60628	0.02027
819.67763	0.02063
817.74897	0.02085
815.82032	0.02097
813.89167	0.02097
811.96301	0.02085
810.03436	0.02083
808.10571	0.02106
806.17705	0.02133
804.24840	0.02143
802.31975	0.02143
800.39109	0.02148
798.46244	0.02157
796.53379	0.02169
794.60513	0.02185
792.67648	0.02198
790.74783	0.02212
788.81917	0.02228
786.89052	0.02236
784.96187	0.02235
783.03321	0.02242
781.10456	0.02262
779.17591	0.02284
777.24725	0.02303
775.31860	0.02313
773.38995	0.02322
771.46130	0.02334
769.53264	0.02338
767.60399	0.02340
765.67534	0.02356
763.74668	0.02381
761.81803	0.02394
759.88938	0.02394
757.96072	0.02401
756.03207	0.02434
754.10342	0.02486
752.17476	0.02527
750.24611	0.02542
748.31746	0.02531
746.38880	0.02518
744.46015	0.02537
742.53150	0.02579
740.60284	0.02608
738.67419	0.02611
736.74554	0.02616
734.81688	0.02647
732.88823	0.02687
730.95958	0.02713
729.03092	0.02738
727.10227	0.02764
725.17362	0.02774
723.24496	0.02783
721.31631	0.02807
719.38766	0.02833
717.45900	0.02854
715.53035	0.02870
713.60170	0.02875
711.67304	0.02878
709.74439	0.02895
707.81574	0.02926
705.88708	0.02958
703.95843	0.02982
702.02978	0.02996
700.10113	0.03007
698.17247	0.03020
696.24382	0.03032
694.31517	0.03038
692.38651	0.03040
690.45786	0.03044
688.52921	0.03054
686.60055	0.03070
684.67190	0.03089
682.74325	0.03112
680.81459	0.03138
678.88594	0.03157
676.95729	0.03163
675.02863	0.03164
673.09998	0.03171
671.17133	0.03185
669.24267	0.03201
667.31402	0.03213
665.38537	0.03220
663.45671	0.03230
661.52806	0.03244
659.59941	0.03258
657.67075	0.03265
655.74210	0.03271
653.81345	0.03281
651.88479	0.03293
649.95614	0.03314
648.02749	0.03332
646.09883	0.03330
644.17018	0.03312
642.24153	0.03301
640.31287	0.03309
638.38422	0.03329
636.45557	0.03347
634.52692	0.03349
632.59826	0.03334
630.66961	0.03376
628.74096	0.03603
626.81230	0.03329
624.88365	0.02913
622.95500	0.02638
621.02634	0.02592
619.09769	0.02680
617.16904	0.02948
615.24038	0.03320
613.31173	0.03408
611.38308	0.03201
609.45442	0.03184
607.52577	0.03355
605.59712	0.03327
603.66846	0.03210
601.73981	0.03239
599.81116	0.03340
597.88250	0.03402
595.95385	0.03397
594.02520	0.03360
592.09654	0.03359
590.16789	0.03402
588.23924	0.03423
586.31058	0.03395
584.38193	0.03361
582.45328	0.03355
580.52462	0.03365
578.59597	0.03383
576.66732	0.03406
574.73866	0.03421
572.81001	0.03402
570.88136	0.03344
568.95270	0.03291
567.02405	0.03297
565.09540	0.03348
563.16675	0.03394
561.23809	0.03429
559.30944	0.03452
557.38079	0.03450
555.45213	0.03437
553.52348	0.03443
551.59483	0.03457
549.66617	0.03446
547.73752	0.03427
545.80887	0.03431
543.88021	0.03437
541.95156	0.03423
540.02291	0.03411
538.09425	0.03413
536.16560	0.03414
534.23695	0.03401
532.30829	0.03382
530.37964	0.03377
528.45099	0.03391
526.52233	0.03399
524.59368	0.03380
522.66503	0.03348
520.73637	0.03324
518.80772	0.03307
516.87907	0.03288
514.95041	0.03274
513.02176	0.03274
511.09311	0.03274
509.16445	0.03259
507.23580	0.03244
505.30715	0.03230
503.37849	0.03200
501.44984	0.03179
499.52119	0.03186
497.59254	0.03192
495.66388	0.03173
493.73523	0.03140
491.80658	0.03110
489.87792	0.03095
487.94927	0.03097
486.02062	0.03101
484.09196	0.03085
482.16331	0.03042
480.23466	0.02994
478.30600	0.02968
476.37735	0.02965
474.44870	0.02959
472.52004	0.02937
470.59139	0.02909
468.66274	0.02890
466.73408	0.02885
464.80543	0.02870
462.87678	0.02830
460.94812	0.02790
459.01947	0.02767
457.09082	0.02754
455.16216	0.02737
453.23351	0.02711
451.30486	0.02689
449.37620	0.02675
447.44755	0.02662
445.51890	0.02642
443.59024	0.02616
441.66159	0.02592
439.73294	0.02578
437.80428	0.02571
435.87563	0.02562
433.94698	0.02545
432.01833	0.02532
430.08967	0.02523
428.16102	0.02511
426.23237	0.02492
424.30371	0.02469
422.37506	0.02445
420.44641	0.02422
418.51775	0.02401
416.58910	0.02382
414.66045	0.02366
412.73179	0.02353
410.80314	0.02338
408.87449	0.02324
406.94583	0.02321
405.01718	0.02317
403.08853	0.02305
401.15987	0.02297
399.23122	0.02293
