3996.16951	0.07016
3994.24086	0.06987
3992.31220	0.06930
3990.38355	0.06932
3988.45490	0.06979
3986.52624	0.06996
3984.59759	0.06981
3982.66894	0.06966
3980.74028	0.06970
3978.81163	0.06986
3976.88298	0.06989
3974.95432	0.06967
3973.02567	0.06942
3971.09702	0.06943
3969.16836	0.06979
3967.23971	0.07041
3965.31106	0.07077
3963.38240	0.07047
3961.45375	0.07000
3959.52510	0.06986
3957.59645	0.06986
3955.66779	0.06970
3953.73914	0.06927
3951.81049	0.06896
3949.88183	0.06900
3947.95318	0.06880
3946.02453	0.06800
3944.09587	0.06716
3942.16722	0.06714
3940.23857	0.06776
3938.30991	0.06793
3936.38126	0.06742
3934.45261	0.06686
3932.52395	0.06676
3930.59530	0.06695
3928.66665	0.06701
3926.73799	0.06702
3924.80934	0.06725
3922.88069	0.06760
3920.95203	0.06752
3919.02338	0.06704
3917.09473	0.06681
3915.16607	0.06698
3913.23742	0.06707
3911.30877	0.06708
3909.38011	0.06727
3907.45146	0.06743
3905.52281	0.06707
3903.59415	0.06645
3901.66550	0.06631
3899.73685	0.06665
3897.80819	0.06695
3895.87954	0.06682
3893.95089	0.06647
3892.02224	0.06641
3890.09358	0.06672
3888.16493	0.06650
3886.23628	0.06580
3884.30762	0.06588
3882.37897	0.06600
3880.45032	0.06538
3878.52166	0.06492
3876.59301	0.06492
3874.66436	0.06503
3872.73570	0.06520
3870.80705	0.06529
3868.87840	0.06561
3866.94974	0.06562
3865.02109	0.06509
3863.09244	0.06482
3861.16378	0.06450
3859.23513	0.06414
3857.30648	0.06417
3855.37782	0.06406
3853.44917	0.06400
3851.52052	0.06435
3849.59186	0.06435
3847.66321	0.06381
3845.73456	0.06294
3843.80590	0.06225
3841.87725	0.06226
3839.94860	0.06257
3838.01994	0.06266
3836.09129	0.06265
3834.16264	0.06246
3832.23398	0.06238
3830.30533	0.06261
3828.37668	0.06274
3826.44803	0.06262
3824.51937	0.06245
3822.59072	0.06223
3820.66207	0.06258
3818.73341	0.06296
3816.80476	0.06226
3814.87611	0.06167
3812.94745	0.06137
3811.01880	0.06097
3809.09015	0.06089
3807.16149	0.06101
3805.23284	0.06116
3803.30419	0.06047
3801.37553	0.05967
3799.44688	0.05997
3797.51823	0.06004
3795.58957	0.05957
3793.66092	0.05939
3791.73227	0.05985
3789.80361	0.06043
3787.87496	0.06049
3785.94631	0.06009
3784.01765	0.05956
3782.08900	0.05921
3780.16035	0.05914
3778.23169	0.05915
3776.30304	0.05898
3774.37439	0.05900
3772.44573	0.05924
3770.51708	0.05918
3768.58843	0.05891
3766.65977	0.05845
3764.73112	0.05810
3762.80247	0.05817
3760.87381	0.05832
3758.94516	0.05864
3757.01651	0.05902
3755.08786	0.05887
3753.15920	0.05799
3751.23055	0.05741
3749.30190	0.05758
3747.37324	0.05782
3745.44459	0.05707
3743.51594	0.05681
3741.58728	0.05724
3739.65863	0.05708
3737.72998	0.05656
3735.80132	0.05641
3733.87267	0.05657
3731.94402	0.05621
3730.01536	0.05571
3728.08671	0.05554
3726.15806	0.05585
3724.22940	0.05606
3722.30075	0.05590
3720.37210	0.05594
3718.44344	0.05590
3716.51479	0.05539
3714.58614	0.05445
3712.65748	0.05370
3710.72883	0.05410
3708.80018	0.05507
3706.87152	0.05535
3704.94287	0.05485
3703.01422	0.05415
3701.08556	0.05367
3699.15691	0.05344
3697.22826	0.05350
3695.29960	0.05423
3693.37095	0.05536
3691.44230	0.05583
3689.51365	0.05499
3687.58499	0.05390
3685.65634	0.05343
3683.72769	0.05345
3681.79903	0.05402
3679.87038	0.05441
3677.94173	0.05418
3676.01307	0.05377
3674.08442	0.05408
3672.15577	0.05431
3670.22711	0.05439
3668.29846	0.05485
3666.36981	0.05481
3664.44115	0.05449
3662.51250	0.05493
3660.58385	0.05603
3658.65519	0.05652
3656.72654	0.05601
3654.79789	0.05580
3652.86923	0.05619
3650.94058	0.05653
3649.01193	0.05677
3647.08327	0.05712
3645.15462	0.05767
3643.22597	0.05829
3641.29731	0.05885
3639.36866	0.05946
3637.44001	0.06016
3635.51135	0.06071
3633.58270	0.06101
3631.65405	0.06107
3629.72539	0.06082
3627.79674	0.06118
3625.86809	0.06195
3623.93943	0.06240
3622.01078	0.06281
3620.08213	0.06366
3618.15348	0.06494
3616.22482	0.06594
3614.29617	0.06630
3612.36752	0.06653
3610.43886	0.06686
3608.51021	0.06709
3606.58156	0.06732
3604.65290	0.06764
3602.72425	0.06829
3600.79560	0.06925
3598.86694	0.07017
3596.93829	0.07066
3595.00964	0.07098
3593.08098	0.07163
3591.15233	0.07223
3589.22368	0.07215
3587.29502	0.07202
3585.36637	0.07277
3583.43772	0.07438
3581.50906	0.07609
3579.58041	0.07722
3577.65176	0.07782
3575.72310	0.07826
3573.79445	0.07872
3571.86580	0.07938
3569.93714	0.08024
3568.00849	0.08105
3566.07984	0.08186
3564.15118	0.08288
3562.22253	0.08388
3560.29388	0.08454
3558.36522	0.08525
3556.43657	0.08619
3554.50792	0.08673
3552.57927	0.08684
3550.65061	0.08725
3548.72196	0.08806
3546.79331	0.08889
3544.86465	0.08984
3542.93600	0.09107
3541.00735	0.09221
3539.07869	0.09293
3537.15004	0.09352
3535.22139	0.09417
3533.29273	0.09480
3531.36408	0.09553
3529.43543	0.09641
3527.50677	0.09722
3525.57812	0.09806
3523.64947	0.09903
3521.72081	0.09989
3519.79216	0.10058
3517.86351	0.10130
3515.93485	0.10208
3514.00620	0.10267
3512.07755	0.10315
3510.14889	0.10392
3508.22024	0.10499
3506.29159	0.10583
3504.36293	0.10616
3502.43428	0.10616
3500.50563	0.10628
3498.57697	0.10683
3496.64832	0.10750
3494.71967	0.10797
3492.79101	0.10871
3490.86236	0.11006
3488.93371	0.11142
3487.00506	0.11205
3485.07640	0.11221
3483.14775	0.11251
3481.21910	0.11289
3479.29044	0.11316
3477.36179	0.11363
3475.43314	0.11453
3473.50448	0.11539
3471.57583	0.11575
3469.64718	0.11592
3467.71852	0.11650
3465.78987	0.11754
3463.86122	0.11832
3461.93256	0.11869
3460.00391	0.11940
3458.07526	0.12046
3456.14660	0.12098
3454.21795	0.12098
3452.28930	0.12118
3450.36064	0.12174
3448.43199	0.12232
3446.50334	0.12277
3444.57468	0.12299
3442.64603	0.12310
3440.71738	0.12349
3438.78872	0.12412
3436.86007	0.12479
3434.93142	0.12552
3433.00276	0.12645
3431.07411	0.12762
3429.14546	0.12841
3427.21680	0.12839
3425.28815	0.12834
3423.35950	0.12903
3421.43084	0.12998
3419.50219	0.13061
3417.57354	0.13105
3415.64489	0.13188
3413.71623	0.13299
3411.78758	0.13344
3409.85893	0.13323
3407.93027	0.13336
3406.00162	0.13404
3404.07297	0.13475
3402.14431	0.13525
3400.21566	0.13574
3398.28701	0.13626
3396.35835	0.13677
3394.42970	0.13735
3392.50105	0.13796
3390.57239	0.13846
3388.64374	0.13903
3386.71509	0.13967
3384.78643	0.14001
3382.85778	0.14011
3380.92913	0.14046
3379.00047	0.14133
3377.07182	0.14241
3375.14317	0.14329
3373.21451	0.14406
3371.28586	0.14489
3369.35721	0.14561
3367.42855	0.14616
3365.49990	0.14695
3363.57125	0.14818
3361.64259	0.14945
3359.71394	0.15054
3357.78529	0.15161
3355.85663	0.15276
3353.92798	0.15408
3351.99933	0.15561
3350.07068	0.15706
3348.14202	0.15824
3346.21337	0.15924
3344.28472	0.16009
3342.35606	0.16119
3340.42741	0.16274
3338.49876	0.16415
3336.57010	0.16510
3334.64145	0.16599
3332.71280	0.16706
3330.78414	0.16826
3328.85549	0.16959
3326.92684	0.17075
3324.99818	0.17136
3323.06953	0.17179
3321.14088	0.17251
3319.21222	0.17317
3317.28357	0.17340
3315.35492	0.17359
3313.42626	0.17416
3311.49761	0.17484
3309.56896	0.17538
3307.64030	0.17588
3305.71165	0.17636
3303.78300	0.17671
3301.85434	0.17692
3299.92569	0.17687
3297.99704	0.17663
3296.06838	0.17652
3294.13973	0.17660
3292.21108	0.17667
3290.28242	0.17668
3288.35377	0.17665
3286.42512	0.17657
3284.49646	0.17653
3282.56781	0.17660
3280.63916	0.17656
3278.71051	0.17623
3276.78185	0.17577
3274.85320	0.17536
3272.92455	0.17497
3270.99589	0.17434
3269.06724	0.17354
3267.13859	0.17286
3265.20993	0.17243
3263.28128	0.17192
3261.35263	0.17100
3259.42397	0.17007
3257.49532	0.16943
3255.56667	0.16880
3253.63801	0.16803
3251.70936	0.16720
3249.78071	0.16625
3247.85205	0.16526
3245.92340	0.16454
3243.99475	0.16406
3242.06609	0.16336
3240.13744	0.16260
3238.20879	0.16222
3236.28013	0.16205
3234.35148	0.16166
3232.42283	0.16094
3230.49417	0.16000
3228.56552	0.15921
3226.63687	0.15905
3224.70821	0.15930
3222.77956	0.15923
3220.85091	0.15857
3218.92225	0.15765
3216.99360	0.15689
3215.06495	0.15639
3213.13630	0.15601
3211.20764	0.15557
3209.27899	0.15504
3207.35034	0.15454
3205.42168	0.15426
3203.49303	0.15406
3201.56438	0.15355
3199.63572	0.15254
3197.70707	0.15122
3195.77842	0.15000
3193.84976	0.14918
3191.92111	0.14878
3189.99246	0.14855
3188.06380	0.14819
3186.13515	0.14761
3184.20650	0.14685
3182.27784	0.14595
3180.34919	0.14493
3178.42054	0.14384
3176.49188	0.14283
3174.56323	0.14197
3172.63458	0.14100
3170.70592	0.13961
3168.77727	0.13812
3166.84862	0.13710
3164.91996	0.13641
3162.99131	0.13574
3161.06266	0.13502
3159.13400	0.13433
3157.20535	0.13361
3155.27670	0.13276
3153.34804	0.13181
3151.41939	0.13083
3149.49074	0.12996
3147.56209	0.12928
3145.63343	0.12875
3143.70478	0.12814
3141.77613	0.12731
3139.84747	0.12640
3137.91882	0.12551
3135.99017	0.12459
3134.06151	0.12377
3132.13286	0.12326
3130.20421	0.12291
3128.27555	0.12253
3126.34690	0.12225
3124.41825	0.12199
3122.48959	0.12144
3120.56094	0.12074
3118.63229	0.12051
3116.70363	0.12080
3114.77498	0.12102
3112.84633	0.12089
3110.91767	0.12071
3108.98902	0.12062
3107.06037	0.12052
3105.13171	0.12049
3103.20306	0.12060
3101.27441	0.12073
3099.34575	0.12080
3097.41710	0.12071
3095.48845	0.12059
3093.55979	0.12080
3091.63114	0.12153
3089.70249	0.12238
3087.77383	0.12288
3085.84518	0.12305
3083.91653	0.12325
3081.98787	0.12356
3080.05922	0.12376
3078.13057	0.12373
3076.20192	0.12365
3074.27326	0.12351
3072.34461	0.12327
3070.41596	0.12309
3068.48730	0.12287
3066.55865	0.12237
3064.63000	0.12173
3062.70134	0.12117
3060.77269	0.12068
3058.84404	0.12032
3056.91538	0.11990
3054.98673	0.11929
3053.05808	0.11886
3051.12942	0.11850
3049.20077	0.11774
3047.27212	0.11664
3045.34346	0.11559
3043.41481	0.11478
3041.48616	0.11409
3039.55750	0.11334
3037.62885	0.11253
3035.70020	0.11169
3033.77154	0.11093
3031.84289	0.11045
3029.91424	0.11015
3027.98558	0.10954
3026.05693	0.10834
3024.12828	0.10712
3022.19962	0.10646
3020.27097	0.10598
3018.34232	0.10524
3016.41366	0.10455
3014.48501	0.10430
3012.55636	0.10437
3010.62771	0.10442
3008.69905	0.10415
3006.77040	0.10362
3004.84175	0.10317
3002.91309	0.10298
3000.98444	0.10305
2999.05579	0.10339
2997.12713	0.10375
2995.19848	0.10396
2993.26983	0.10418
2991.34117	0.10453
2989.41252	0.10498
2987.48387	0.10547
2985.55521	0.10610
2983.62656	0.10693
2981.69791	0.10777
2979.76925	0.10833
2977.84060	0.10859
2975.91195	0.10893
2973.98329	0.10960
2972.05464	0.11044
2970.12599	0.11132
2968.19733	0.11220
2966.26868	0.11292
2964.34003	0.11347
2962.41137	0.11410
2960.48272	0.11478
2958.55407	0.11515
2956.62541	0.11513
2954.69676	0.11502
2952.76811	0.11504
2950.83945	0.11506
2948.91080	0.11503
2946.98215	0.11516
2945.05349	0.11546
2943.12484	0.11577
2941.19619	0.11626
2939.26754	0.11689
2937.33888	0.11723
2935.41023	0.11718
2933.48158	0.11700
2931.55292	0.11685
2929.62427	0.11685
2927.69562	0.11697
2925.76696	0.11698
2923.83831	0.11672
2921.90966	0.11625
2919.98100	0.11556
2918.05235	0.11468
2916.12370	0.11355
2914.19504	0.11205
2912.26639	0.11044
2910.33774	0.10900
2908.40908	0.10775
2906.48043	0.10682
2904.55178	0.10606
2902.62312	0.10501
2900.69447	0.10386
2898.76582	0.10312
2896.83716	0.10276
2894.90851	0.10236
2892.97986	0.10181
2891.05120	0.10154
2889.12255	0.10173
2887.19390	0.10207
2885.26524	0.10213
2883.33659	0.10192
2881.40794	0.10183
2879.47928	0.10196
2877.55063	0.10203
2875.62198	0.10186
2873.69333	0.10156
2871.76467	0.10122
2869.83602	0.10072
2867.90737	0.09999
2865.97871	0.09916
2864.05006	0.09832
2862.12141	0.09746
2860.19275	0.09666
2858.26410	0.09606
2856.33545	0.09572
2854.40679	0.09555
2852.47814	0.09533
2850.54949	0.09477
2848.62083	0.09379
2846.69218	0.09269
2844.76353	0.09171
2842.83487	0.09078
2840.90622	0.08984
2838.97757	0.08905
2837.04891	0.08848
2835.12026	0.08809
2833.19161	0.08778
2831.26295	0.08744
2829.33430	0.08690
2827.40565	0.08615
2825.47699	0.08545
2823.54834	0.08492
2821.61969	0.08446
2819.69103	0.08415
2817.76238	0.08400
2815.83373	0.08383
2813.90507	0.08352
2811.97642	0.08320
2810.04777	0.08290
2808.11912	0.08261
2806.19046	0.08244
2804.26181	0.08233
2802.33316	0.08213
2800.40450	0.08196
2798.47585	0.08184
2796.54720	0.08152
2794.61854	0.08093
2792.68989	0.08044
2790.76124	0.08014
2788.83258	0.07979
2786.90393	0.07939
2784.97528	0.07912
2783.04662	0.07886
2781.11797	0.07847
2779.18932	0.07814
2777.26066	0.07798
2775.33201	0.07780
2773.40336	0.07755
2771.47470	0.07734
2769.54605	0.07711
2767.61740	0.07685
2765.68874	0.07660
2763.76009	0.07639
2761.83144	0.07618
2759.90278	0.07602
2757.97413	0.07586
2756.04548	0.07556
2754.11682	0.07517
2752.18817	0.07497
2750.25952	0.07490
2748.33086	0.07463
2746.40221	0.07422
2744.47356	0.07390
2742.54490	0.07363
2740.61625	0.07331
2738.68760	0.07290
2736.75895	0.07260
2734.83029	0.07254
2732.90164	0.07256
2730.97299	0.07246
2729.04433	0.07221
2727.11568	0.07192
2725.18703	0.07164
2723.25837	0.07146
2721.32972	0.07140
2719.40107	0.07131
2717.47241	0.07097
2715.54376	0.07051
2713.61511	0.07020
2711.68645	0.07012
2709.75780	0.07007
2707.82915	0.06986
2705.90049	0.06951
2703.97184	0.06914
2702.04319	0.06887
2700.11453	0.06873
2698.18588	0.06861
2696.25723	0.06839
2694.32857	0.06814
2692.39992	0.06799
2690.47127	0.06790
2688.54261	0.06778
2686.61396	0.06766
2684.68531	0.06758
2682.75665	0.06749
2680.82800	0.06736
2678.89935	0.06723
2676.97069	0.06710
2675.04204	0.06702
2673.11339	0.06708
2671.18474	0.06710
2669.25608	0.06686
2667.32743	0.06652
2665.39878	0.06639
2663.47012	0.06644
2661.54147	0.06633
2659.61282	0.06599
2657.68416	0.06556
2655.75551	0.06499
2653.82686	0.06439
2651.89820	0.06398
2649.96955	0.06365
2648.04090	0.06318
2646.11224	0.06275
2644.18359	0.06254
2642.25494	0.06235
2640.32628	0.06210
2638.39763	0.06173
2636.46898	0.06115
2634.54032	0.06062
2632.61167	0.06036
2630.68302	0.06022
2628.75436	0.05990
2626.82571	0.05954
2624.89706	0.05939
2622.96840	0.05918
2621.03975	0.05863
2619.11110	0.05805
2617.18244	0.05771
2615.25379	0.05755
2613.32514	0.05744
2611.39648	0.05720
2609.46783	0.05665
2607.53918	0.05585
2605.61052	0.05519
2603.68187	0.05497
2601.75322	0.05517
2599.82457	0.05541
2597.89591	0.05522
2595.96726	0.05470
2594.03861	0.05435
2592.10995	0.05422
2590.18130	0.05394
2588.25265	0.05348
2586.32399	0.05313
2584.39534	0.05309
2582.46669	0.05325
2580.53803	0.05326
2578.60938	0.05302
2576.68073	0.05284
2574.75207	0.05284
2572.82342	0.05270
2570.89477	0.05230
2568.96611	0.05166
2567.03746	0.05096
2565.10881	0.05060
2563.18015	0.05056
2561.25150	0.05066
2559.32285	0.05087
2557.39419	0.05100
2555.46554	0.05097
2553.53689	0.05081
2551.60823	0.05050
2549.67958	0.05015
2547.75093	0.04995
2545.82227	0.05002
2543.89362	0.05027
2541.96497	0.05041
2540.03631	0.05019
2538.10766	0.04956
2536.17901	0.04888
2534.25036	0.04860
2532.32170	0.04869
2530.39305	0.04880
2528.46440	0.04867
2526.53574	0.04830
2524.60709	0.04794
2522.67844	0.04775
2520.74978	0.04768
2518.82113	0.04754
2516.89248	0.04733
2514.96382	0.04702
2513.03517	0.04672
2511.10652	0.04683
2509.17786	0.04718
2507.24921	0.04723
2505.32056	0.04691
2503.39190	0.04668
2501.46325	0.04672
2499.53460	0.04654
2497.60594	0.04604
2495.67729	0.04579
2493.74864	0.04598
2491.81998	0.04606
2489.89133	0.04581
2487.96268	0.04560
2486.03402	0.04559
2484.10537	0.04561
2482.17672	0.04560
2480.24806	0.04557
2478.31941	0.04563
2476.39076	0.04572
2474.46210	0.04557
2472.53345	0.04512
2470.60480	0.04486
2468.67615	0.04492
2466.74749	0.04495
2464.81884	0.04490
2462.89019	0.04492
2460.96153	0.04483
2459.03288	0.04454
2457.10423	0.04420
2455.17557	0.04391
2453.24692	0.04362
2451.31827	0.04354
2449.38961	0.04367
2447.46096	0.04362
2445.53231	0.04353
2443.60365	0.04362
2441.67500	0.04365
2439.74635	0.04371
2437.81769	0.04390
2435.88904	0.04405
2433.96039	0.04411
2432.03173	0.04399
2430.10308	0.04366
2428.17443	0.04337
2426.24577	0.04330
2424.31712	0.04351
2422.38847	0.04379
2420.45981	0.04379
2418.53116	0.04362
2416.60251	0.04364
2414.67385	0.04364
2412.74520	0.04331
2410.81655	0.04303
2408.88789	0.04309
2406.95924	0.04330
2405.03059	0.04343
2403.10193	0.04339
2401.17328	0.04321
2399.24463	0.04288
2397.31598	0.04251
2395.38732	0.04246
2393.45867	0.04300
2391.53002	0.04365
2389.60136	0.04386
2387.67271	0.04377
2385.74406	0.04363
2383.81540	0.04345
2381.88675	0.04334
2379.95810	0.04347
2378.02944	0.04390
2376.10079	0.04421
2374.17214	0.04415
2372.24348	0.04406
2370.31483	0.04455
2368.38618	0.04397
2366.45752	0.04402
2364.52887	0.04387
2362.60022	0.04430
2360.67156	0.04398
2358.74291	0.04507
2356.81426	0.04441
2354.88560	0.04473
2352.95695	0.04511
2351.02830	0.04463
2349.09964	0.04442
2347.17099	0.04419
2345.24234	0.04421
2343.31368	0.04422
2341.38503	0.04479
2339.45638	0.04544
2337.52772	0.04505
2335.59907	0.04421
2333.67042	0.04406
2331.74177	0.04401
2329.81311	0.04379
2327.88446	0.04367
2325.95581	0.04361
2324.02715	0.04340
2322.09850	0.04322
2320.16985	0.04306
2318.24119	0.04273
2316.31254	0.04220
2314.38389	0.04162
2312.45523	0.04120
2310.52658	0.04099
2308.59793	0.04081
2306.66927	0.04047
2304.74062	0.03998
2302.81197	0.03955
2300.88331	0.03945
2298.95466	0.03944
2297.02601	0.03910
2295.09735	0.03838
2293.16870	0.03783
2291.24005	0.03773
2289.31139	0.03779
2287.38274	0.03743
2285.45409	0.03655
2283.52543	0.03576
2281.59678	0.03564
2279.66813	0.03584
2277.73947	0.03563
2275.81082	0.03526
2273.88217	0.03514
2271.95351	0.03498
2270.02486	0.03466
2268.09621	0.03419
2266.16755	0.03363
2264.23890	0.03363
2262.31025	0.03422
2260.38160	0.03433
2258.45294	0.03358
2256.52429	0.03257
2254.59564	0.03184
2252.66698	0.03149
2250.73833	0.03138
2248.80968	0.03162
2246.88102	0.03201
2244.95237	0.03202
2243.02372	0.03125
2241.09506	0.03052
2239.16641	0.03031
2237.23776	0.03014
2235.30910	0.03004
2233.38045	0.03029
2231.45180	0.03057
2229.52314	0.03060
2227.59449	0.03027
2225.66584	0.02959
2223.73718	0.02917
2221.80853	0.02903
2219.87988	0.02852
2217.95122	0.02802
2216.02257	0.02768
2214.09392	0.02675
2212.16526	0.02563
2210.23661	0.02509
2208.30796	0.02526
2206.37930	0.02573
2204.45065	0.02564
2202.52200	0.02508
2200.59334	0.02472
2198.66469	0.02439
2196.73604	0.02425
2194.80739	0.02423
2192.87873	0.02370
2190.95008	0.02290
2189.02143	0.02232
2187.09277	0.02223
2185.16412	0.02221
2183.23547	0.02131
2181.30681	0.02022
2179.37816	0.02066
2177.44951	0.02178
2175.52085	0.02142
2173.59220	0.02012
2171.66355	0.01976
2169.73489	0.02045
2167.80624	0.02113
2165.87759	0.02062
2163.94893	0.01872
2162.02028	0.01680
2160.09163	0.01600
2158.16297	0.01682
2156.23432	0.01913
2154.30567	0.02065
2152.37701	0.02007
2150.44836	0.01941
2148.51971	0.01994
2146.59105	0.02073
2144.66240	0.02140
2142.73375	0.02237
2140.80509	0.02382
2138.87644	0.02504
2136.94779	0.02550
2135.01913	0.02551
2133.09048	0.02524
2131.16183	0.02517
2129.23318	0.02557
2127.30452	0.02616
2125.37587	0.02697
2123.44722	0.02759
2121.51856	0.02745
2119.58991	0.02722
2117.66126	0.02744
2115.73260	0.02763
2113.80395	0.02763
2111.87530	0.02760
2109.94664	0.02739
2108.01799	0.02724
2106.08934	0.02740
2104.16068	0.02746
2102.23203	0.02710
2100.30338	0.02672
2098.37472	0.02641
2096.44607	0.02631
2094.51742	0.02631
2092.58876	0.02636
2090.66011	0.02635
2088.73146	0.02627
2086.80280	0.02614
2084.87415	0.02613
2082.94550	0.02593
2081.01684	0.02503
2079.08819	0.02374
2077.15954	0.02313
2075.23088	0.02334
2073.30223	0.02360
2071.37358	0.02350
2069.44492	0.02296
2067.51627	0.02215
2065.58762	0.02146
2063.65896	0.02115
2061.73031	0.02171
2059.80166	0.02298
2057.87301	0.02351
2055.94435	0.02272
2054.01570	0.02183
2052.08705	0.02130
2050.15839	0.02017
2048.22974	0.01851
2046.30109	0.01756
2044.37243	0.01747
2042.44378	0.01732
2040.51513	0.01690
2038.58647	0.01646
2036.65782	0.01597
2034.72917	0.01545
2032.80051	0.01515
2030.87186	0.01520
2028.94321	0.01515
2027.01455	0.01483
2025.08590	0.01475
2023.15725	0.01479
2021.22859	0.01457
2019.29994	0.01441
2017.37129	0.01468
2015.44263	0.01543
2013.51398	0.01625
2011.58533	0.01644
2009.65667	0.01577
2007.72802	0.01493
2005.79937	0.01500
2003.87071	0.01618
2001.94206	0.01772
2000.01341	0.01883
1998.08475	0.01952
1996.15610	0.02002
1994.22745	0.02016
1992.29880	0.01999
1990.37014	0.01960
1988.44149	0.01915
1986.51284	0.01908
1984.58418	0.01899
1982.65553	0.01783
1980.72688	0.01575
1978.79822	0.01422
1976.86957	0.01390
1974.94092	0.01374
1973.01226	0.01334
1971.08361	0.01365
1969.15496	0.01457
1967.22630	0.01544
1965.29765	0.01656
1963.36900	0.01776
1961.44034	0.01848
1959.51169	0.01860
1957.58304	0.01840
1955.65438	0.01843
1953.72573	0.01877
1951.79708	0.01915
1949.86842	0.01959
1947.93977	0.02004
1946.01112	0.02049
1944.08246	0.02088
1942.15381	0.02111
1940.22516	0.02108
1938.29650	0.02066
1936.36785	0.02026
1934.43920	0.02057
1932.51054	0.02126
1930.58189	0.02135
1928.65324	0.02090
1926.72458	0.02066
1924.79593	0.02086
1922.86728	0.02140
1920.93863	0.02196
1919.00997	0.02207
1917.08132	0.02195
1915.15267	0.02174
1913.22401	0.02147
1911.29536	0.02156
1909.36671	0.02195
1907.43805	0.02221
1905.50940	0.02223
1903.58075	0.02223
1901.65209	0.02241
1899.72344	0.02264
1897.79479	0.02265
1895.86613	0.02253
1893.93748	0.02257
1892.00883	0.02267
1890.08017	0.02271
1888.15152	0.02277
1886.22287	0.02284
1884.29421	0.02285
1882.36556	0.02268
1880.43691	0.02240
1878.50825	0.02221
1876.57960	0.02218
1874.65095	0.02224
1872.72229	0.02230
1870.79364	0.02229
1868.86499	0.02225
1866.93633	0.02222
1865.00768	0.02217
1863.07903	0.02218
1861.15037	0.02226
1859.22172	0.02246
1857.29307	0.02273
1855.36442	0.02288
1853.43576	0.02267
1851.50711	0.02218
1849.57846	0.02179
1847.64980	0.02175
1845.72115	0.02182
1843.79250	0.02200
1841.86384	0.02232
1839.93519	0.02235
1838.00654	0.02211
1836.07788	0.02188
1834.14923	0.02170
1832.22058	0.02163
1830.29192	0.02165
1828.36327	0.02175
1826.43462	0.02172
1824.50596	0.02153
1822.57731	0.02133
1820.64866	0.02116
1818.72000	0.02120
1816.79135	0.02162
1814.86270	0.02215
1812.93404	0.02231
1811.00539	0.02220
1809.07674	0.02210
1807.14808	0.02205
1805.21943	0.02201
1803.29078	0.02194
1801.36212	0.02184
1799.43347	0.02176
1797.50482	0.02165
1795.57616	0.02157
1793.64751	0.02153
1791.71886	0.02157
1789.79021	0.02166
1787.86155	0.02156
1785.93290	0.02135
1784.00425	0.02125
1782.07559	0.02123
1780.14694	0.02117
1778.21829	0.02116
1776.28963	0.02113
1774.36098	0.02101
1772.43233	0.02090
1770.50367	0.02095
1768.57502	0.02093
1766.64637	0.02100
1764.71771	0.02122
1762.78906	0.02130
1760.86041	0.02134
1758.93175	0.02146
1757.00310	0.02170
1755.07445	0.02210
1753.14579	0.02238
1751.21714	0.02258
1749.28849	0.02308
1747.35983	0.02371
1745.43118	0.02429
1743.50253	0.02485
1741.57387	0.02544
1739.64522	0.02606
1737.71657	0.02680
1735.78791	0.02737
1733.85926	0.02791
1731.93061	0.02863
1730.00195	0.02902
1728.07330	0.02921
1726.14465	0.02948
1724.21599	0.02982
1722.28734	0.03023
1720.35869	0.03061
1718.43004	0.03098
1716.50138	0.03168
1714.57273	0.03267
1712.64408	0.03383
1710.71542	0.03525
1708.78677	0.03703
1706.85812	0.03926
1704.92946	0.04205
1703.00081	0.04518
1701.07216	0.04840
1699.14350	0.05230
1697.21485	0.05647
1695.28620	0.06059
1693.35754	0.06495
1691.42889	0.06908
1689.50024	0.07320
1687.57158	0.07748
1685.64293	0.08177
1683.71428	0.08662
1681.78562	0.09205
1679.85697	0.09762
1677.92832	0.10351
1675.99966	0.10963
1674.07101	0.11609
1672.14236	0.12281
1670.21370	0.12968
1668.28505	0.13671
1666.35640	0.14359
1664.42774	0.15013
1662.49909	0.15644
1660.57044	0.16244
1658.64178	0.16789
1656.71313	0.17272
1654.78448	0.17687
1652.85583	0.18080
1650.92717	0.18471
1648.99852	0.18769
1647.06987	0.19010
1645.14121	0.19270
1643.21256	0.19520
1641.28391	0.19730
1639.35525	0.19922
1637.42660	0.20093
1635.49795	0.20246
1633.56929	0.20377
1631.64064	0.20431
1629.71199	0.20381
1627.78333	0.20222
1625.85468	0.19942
1623.92603	0.19537
1621.99737	0.19034
1620.06872	0.18453
1618.14007	0.17805
1616.21141	0.17146
1614.28276	0.16509
1612.35411	0.15856
1610.42545	0.15198
1608.49680	0.14563
1606.56815	0.13962
1604.63949	0.13400
1602.71084	0.12887
1600.78219	0.12423
1598.85353	0.11995
1596.92488	0.11610
1594.99623	0.11283
1593.06757	0.11016
1591.13892	0.10808
1589.21027	0.10651
1587.28161	0.10537
1585.35296	0.10468
1583.42431	0.10456
1581.49566	0.10502
1579.56700	0.10595
1577.63835	0.10724
1575.70970	0.10918
1573.78104	0.11193
1571.85239	0.11492
1569.92374	0.11830
1567.99508	0.12226
1566.06643	0.12644
1564.13778	0.13076
1562.20912	0.13510
1560.28047	0.13920
1558.35182	0.14344
1556.42316	0.14764
1554.49451	0.15114
1552.56586	0.15410
1550.63720	0.15656
1548.70855	0.15859
1546.77990	0.16030
1544.85124	0.16166
1542.92259	0.16258
1540.99394	0.16293
1539.06528	0.16307
1537.13663	0.16318
1535.20798	0.16281
1533.27932	0.16204
1531.35067	0.16114
1529.42202	0.15995
1527.49336	0.15855
1525.56471	0.15703
1523.63606	0.15530
1521.70740	0.15338
1519.77875	0.15159
1517.85010	0.14963
1515.92145	0.14725
1513.99279	0.14444
1512.06414	0.14113
1510.13549	0.13746
1508.20683	0.13331
1506.27818	0.12893
1504.34953	0.12483
1502.42087	0.12068
1500.49222	0.11636
1498.56357	0.11209
1496.63491	0.10792
1494.70626	0.10390
1492.77761	0.09998
1490.84895	0.09628
1488.92030	0.09309
1486.99165	0.09050
1485.06299	0.08853
1483.13434	0.08717
1481.20569	0.08645
1479.27703	0.08636
1477.34838	0.08679
1475.41973	0.08775
1473.49107	0.08920
1471.56242	0.09119
1469.63377	0.09348
1467.70511	0.09578
1465.77646	0.09809
1463.84781	0.10056
1461.91915	0.10316
1459.99050	0.10571
1458.06185	0.10811
1456.13319	0.11047
1454.20454	0.11253
1452.27589	0.11381
1450.34724	0.11429
1448.41858	0.11404
1446.48993	0.11333
1444.56128	0.11234
1442.63262	0.11110
1440.70397	0.10970
1438.77532	0.10802
1436.84666	0.10601
1434.91801	0.10383
1432.98936	0.10150
1431.06070	0.09930
1429.13205	0.09764
1427.20340	0.09651
1425.27474	0.09570
1423.34609	0.09514
1421.41744	0.09472
1419.48878	0.09439
1417.56013	0.09438
1415.63148	0.09453
1413.70282	0.09478
1411.77417	0.09516
1409.84552	0.09574
1407.91686	0.09649
1405.98821	0.09727
1404.05956	0.09789
1402.13090	0.09820
1400.20225	0.09815
1398.27360	0.09793
1396.34494	0.09760
1394.41629	0.09718
1392.48764	0.09687
1390.55898	0.09660
1388.63033	0.09627
1386.70168	0.09591
1384.77302	0.09552
1382.84437	0.09503
1380.91572	0.09450
1378.98707	0.09390
1377.05841	0.09312
1375.12976	0.09209
1373.20111	0.09086
1371.27245	0.08946
1369.34380	0.08793
1367.41515	0.08638
1365.48649	0.08479
1363.55784	0.08322
1361.62919	0.08193
1359.70053	0.08103
1357.77188	0.08046
1355.84323	0.08031
1353.91457	0.08068
1351.98592	0.08140
1350.05727	0.08232
1348.12861	0.08349
1346.19996	0.08493
1344.27131	0.08642
1342.34265	0.08770
1340.41400	0.08871
1338.48535	0.08946
1336.55669	0.08979
1334.62804	0.08954
1332.69939	0.08872
1330.77073	0.08756
1328.84208	0.08628
1326.91343	0.08507
1324.98477	0.08405
1323.05612	0.08325
1321.12747	0.08270
1319.19881	0.08231
1317.27016	0.08197
1315.34151	0.08156
1313.41286	0.08098
1311.48420	0.08033
1309.55555	0.07970
1307.62690	0.07915
1305.69824	0.07869
1303.76959	0.07832
1301.84094	0.07794
1299.91228	0.07750
1297.98363	0.07718
1296.05498	0.07715
1294.12632	0.07747
1292.19767	0.07811
1290.26902	0.07896
1288.34036	0.07989
1286.41171	0.08086
1284.48306	0.08179
1282.55440	0.08255
1280.62575	0.08303
1278.69710	0.08331
1276.76844	0.08346
1274.83979	0.08347
1272.91114	0.08354
1270.98248	0.08380
1269.05383	0.08423
1267.12518	0.08481
1265.19652	0.08556
1263.26787	0.08646
1261.33922	0.08744
1259.41056	0.08853
1257.48191	0.08969
1255.55326	0.09084
1253.62460	0.09209
1251.69595	0.09360
1249.76730	0.09532
1247.83864	0.09706
1245.90999	0.09873
1243.98134	0.10032
1242.05269	0.10186
1240.12403	0.10324
1238.19538	0.10426
1236.26673	0.10485
1234.33807	0.10501
1232.40942	0.10467
1230.48077	0.10373
1228.55211	0.10226
1226.62346	0.10037
1224.69481	0.09813
1222.76615	0.09572
1220.83750	0.09338
1218.90885	0.09134
1216.98019	0.08975
1215.05154	0.08861
1213.12289	0.08791
1211.19423	0.08766
1209.26558	0.08788
1207.33693	0.08840
1205.40827	0.08889
1203.47962	0.08904
1201.55097	0.08868
1199.62231	0.08787
1197.69366	0.08649
1195.76501	0.08495
1193.83635	0.08335
1191.90770	0.08174
1189.97905	0.08013
1188.05039	0.07863
1186.12174	0.07736
1184.19309	0.07629
1182.26443	0.07544
1180.33578	0.07483
1178.40713	0.07442
1176.47848	0.07415
1174.54982	0.07394
1172.62117	0.07376
1170.69252	0.07364
1168.76386	0.07357
1166.83521	0.07357
1164.90656	0.07368
1162.97790	0.07375
1161.04925	0.07350
1159.12060	0.07283
1157.19194	0.07187
1155.26329	0.07077
1153.33464	0.06956
1151.40598	0.06821
1149.47733	0.06674
1147.54868	0.06537
1145.62002	0.06423
1143.69137	0.06326
1141.76272	0.06243
1139.83406	0.06178
1137.90541	0.06122
1135.97676	0.06068
1134.04810	0.06018
1132.11945	0.05985
1130.19080	0.05965
1128.26214	0.05951
1126.33349	0.05936
1124.40484	0.05913
1122.47618	0.05890
1120.54753	0.05873
1118.61888	0.05862
1116.69022	0.05860
1114.76157	0.05859
1112.83292	0.05853
1110.90427	0.05868
1108.97561	0.05918
1107.04696	0.05975
1105.11831	0.06020
1103.18965	0.06059
1101.26100	0.06109
1099.33235	0.06171
1097.40369	0.06240
1095.47504	0.06313
1093.54639	0.06395
1091.61773	0.06495
1089.68908	0.06621
1087.76043	0.06769
1085.83177	0.06931
1083.90312	0.07086
1081.97447	0.07201
1080.04581	0.07258
1078.11716	0.07263
1076.18851	0.07226
1074.25985	0.07166
1072.33120	0.07108
1070.40255	0.07065
1068.47389	0.07043
1066.54524	0.07041
1064.61659	0.07040
1062.68793	0.07030
1060.75928	0.07006
1058.83063	0.06965
1056.90197	0.06908
1054.97332	0.06844
1053.04467	0.06781
1051.11601	0.06718
1049.18736	0.06653
1047.25871	0.06598
1045.33005	0.06561
1043.40140	0.06543
1041.47275	0.06544
1039.54410	0.06563
1037.61544	0.06603
1035.68679	0.06657
1033.75814	0.06705
1031.82948	0.06718
1029.90083	0.06685
1027.97218	0.06614
1026.04352	0.06509
1024.11487	0.06383
1022.18622	0.06256
1020.25756	0.06140
1018.32891	0.06044
1016.40026	0.05974
1014.47160	0.05906
1012.54295	0.05820
1010.61430	0.05726
1008.68564	0.05632
1006.75699	0.05535
1004.82834	0.05438
1002.89968	0.05350
1000.97103	0.05272
999.04238	0.05198
997.11372	0.05126
995.18507	0.05063
993.25642	0.05007
991.32776	0.04949
989.39911	0.04890
987.47046	0.04840
985.54180	0.04802
983.61315	0.04779
981.68450	0.04772
979.75584	0.04784
977.82719	0.04808
975.89854	0.04817
973.96989	0.04802
972.04123	0.04774
970.11258	0.04737
968.18393	0.04701
966.25527	0.04671
964.32662	0.04631
962.39797	0.04582
960.46931	0.04546
958.54066	0.04521
956.61201	0.04487
954.68335	0.04451
952.75470	0.04423
950.82605	0.04401
948.89739	0.04383
946.96874	0.04374
945.04009	0.04377
943.11143	0.04393
941.18278	0.04414
939.25413	0.04426
937.32547	0.04422
935.39682	0.04413
933.46817	0.04411
931.53951	0.04418
929.61086	0.04416
927.68221	0.04401
925.75355	0.04382
923.82490	0.04367
921.89625	0.04353
919.96759	0.04336
918.03894	0.04312
916.11029	0.04279
914.18163	0.04246
912.25298	0.04231
910.32433	0.04215
908.39567	0.04187
906.46702	0.04162
904.53837	0.04144
902.60972	0.04128
900.68106	0.04117
898.75241	0.04119
896.82376	0.04121
894.89510	0.04095
892.96645	0.04047
891.03780	0.04016
889.10914	0.04014
887.18049	0.04020
885.25184	0.04019
883.32318	0.04022
881.39453	0.04040
879.46588	0.04063
877.53722	0.04071
875.60857	0.04072
873.67992	0.04069
871.75126	0.04044
869.82261	0.04012
867.89396	0.03997
865.96530	0.03990
864.03665	0.03981
862.10800	0.03982
860.17934	0.03990
858.25069	0.03992
856.32204	0.03990
854.39338	0.03997
852.46473	0.04005
850.53608	0.04007
848.60742	0.04004
846.67877	0.04000
844.75012	0.03997
842.82146	0.03992
840.89281	0.03977
838.96416	0.03955
837.03551	0.03943
835.10685	0.03945
833.17820	0.03951
831.24955	0.03955
829.32089	0.03971
827.39224	0.03998
825.46359	0.04019
823.53493	0.04041
821.60628	0.04082
819.67763	0.04133
817.74897	0.04177
815.82032	0.04216
813.89167	0.04247
811.96301	0.04269
810.03436	0.04294
808.10571	0.04327
806.17705	0.04353
804.24840	0.04355
802.31975	0.04348
800.39109	0.04355
798.46244	0.04380
796.53379	0.04419
794.60513	0.04457
792.67648	0.04486
790.74783	0.04511
788.81917	0.04524
786.89052	0.04523
784.96187	0.04525
783.03321	0.04550
781.10456	0.04593
779.17591	0.04628
777.24725	0.04649
775.31860	0.04669
773.38995	0.04702
771.46130	0.04741
769.53264	0.04766
767.60399	0.04779
765.67534	0.04805
763.74668	0.04852
761.81803	0.04901
759.88938	0.04935
757.96072	0.04958
756.03207	0.04982
754.10342	0.05022
752.17476	0.05069
750.24611	0.05099
748.31746	0.05114
746.38880	0.05137
744.46015	0.05178
742.53150	0.05220
740.60284	0.05246
738.67419	0.05271
736.74554	0.05316
734.81688	0.05367
732.88823	0.05415
730.95958	0.05470
729.03092	0.05516
727.10227	0.05548
725.17362	0.05578
723.24496	0.05596
721.31631	0.05623
719.38766	0.05662
717.45900	0.05720
715.53035	0.05780
713.60170	0.05823
711.67304	0.05851
709.74439	0.05883
707.81574	0.05930
705.88708	0.05986
703.95843	0.06037
702.02978	0.06071
700.10113	0.06086
698.17247	0.06098
696.24382	0.06116
694.31517	0.06137
692.38651	0.06154
690.45786	0.06167
688.52921	0.06184
686.60055	0.06210
684.67190	0.06237
682.74325	0.06263
680.81459	0.06299
678.88594	0.06338
676.95729	0.06367
675.02863	0.06385
673.09998	0.06408
671.17133	0.06437
669.24267	0.06466
667.31402	0.06493
665.38537	0.06516
663.45671	0.06533
661.52806	0.06549
659.59941	0.06574
657.67075	0.06603
655.74210	0.06626
653.81345	0.06638
651.88479	0.06654
649.95614	0.06678
648.02749	0.06698
646.09883	0.06701
644.17018	0.06692
642.24153	0.06687
640.31287	0.06690
638.38422	0.06696
636.45557	0.06706
634.52692	0.06721
632.59826	0.06715
630.66961	0.06740
628.74096	0.06922
626.81230	0.06703
624.88365	0.06401
622.95500	0.06308
621.02634	0.06483
619.09769	0.06647
617.16904	0.06701
615.24038	0.06725
613.31173	0.06755
611.38308	0.06812
609.45442	0.06833
607.52577	0.06826
605.59712	0.06883
603.66846	0.06947
601.73981	0.06954
599.81116	0.06934
597.88250	0.06924
595.95385	0.06899
594.02520	0.06841
592.09654	0.06793
590.16789	0.06786
588.23924	0.06792
586.31058	0.06792
584.38193	0.06798
582.45328	0.06814
580.52462	0.06829
578.59597	0.06834
576.66732	0.06836
574.73866	0.06846
572.81001	0.06854
570.88136	0.06843
568.95270	0.06821
567.02405	0.06805
565.09540	0.06806
563.16675	0.06828
561.23809	0.06866
559.30944	0.06896
557.38079	0.06904
555.45213	0.06905
553.52348	0.06898
551.59483	0.06879
549.66617	0.06853
547.73752	0.06827
545.80887	0.06809
543.88021	0.06802
541.95156	0.06798
540.02291	0.06801
538.09425	0.06807
536.16560	0.06807
534.23695	0.06801
532.30829	0.06792
530.37964	0.06777
528.45099	0.06774
526.52233	0.06787
524.59368	0.06776
522.66503	0.06714
520.73637	0.06641
518.80772	0.06584
516.87907	0.06535
514.95041	0.06504
513.02176	0.06501
511.09311	0.06492
509.16445	0.06457
507.23580	0.06407
505.30715	0.06351
503.37849	0.06296
501.44984	0.06267
499.52119	0.06274
497.59254	0.06282
495.66388	0.06251
493.73523	0.06191
491.80658	0.06134
489.87792	0.06080
487.94927	0.06021
486.02062	0.05972
484.09196	0.05942
482.16331	0.05906
480.23466	0.05854
478.30600	0.05817
476.37735	0.05805
474.44870	0.05787
472.52004	0.05748
470.59139	0.05691
468.66274	0.05616
466.73408	0.05553
464.80543	0.05518
462.87678	0.05492
460.94812	0.05460
459.01947	0.05415
457.09082	0.05359
455.16216	0.05310
453.23351	0.05271
451.30486	0.05230
449.37620	0.05187
447.44755	0.05156
445.51890	0.05127
443.59024	0.05089
441.66159	0.05042
439.73294	0.04998
437.80428	0.04969
435.87563	0.04943
433.94698	0.04905
432.01833	0.04864
430.08967	0.04825
428.16102	0.04785
426.23237	0.04745
424.30371	0.04706
422.37506	0.04670
420.44641	0.04633
418.51775	0.04597
416.58910	0.04565
414.66045	0.04538
412.73179	0.04520
410.80314	0.04504
408.87449	0.04480
406.94583	0.04455
405.01718	0.04439
403.08853	0.04421
401.15987	0.04397
399.23122	0.04363
