3996.16951	0.05372
3994.24086	0.05336
3992.31220	0.05299
3990.38355	0.05293
3988.45490	0.05297
3986.52624	0.05256
3984.59759	0.05194
3982.66894	0.05191
3980.74028	0.05247
3978.81163	0.05306
3976.88298	0.05332
3974.95432	0.05322
3973.02567	0.05289
3971.09702	0.05234
3969.16836	0.05179
3967.23971	0.05170
3965.31106	0.05196
3963.38240	0.05209
3961.45375	0.05231
3959.52510	0.05267
3957.59645	0.05257
3955.66779	0.05216
3953.73914	0.05220
3951.81049	0.05247
3949.88183	0.05241
3947.95318	0.05216
3946.02453	0.05205
3944.09587	0.05187
3942.16722	0.05147
3940.23857	0.05104
3938.30991	0.05065
3936.38126	0.05050
3934.45261	0.05083
3932.52395	0.05136
3930.59530	0.05160
3928.66665	0.05150
3926.73799	0.05106
3924.80934	0.05038
3922.88069	0.05007
3920.95203	0.05027
3919.02338	0.05051
3917.09473	0.05065
3915.16607	0.05062
3913.23742	0.05034
3911.30877	0.05018
3909.38011	0.05045
3907.45146	0.05075
3905.52281	0.05061
3903.59415	0.05016
3901.66550	0.04989
3899.73685	0.04973
3897.80819	0.04934
3895.87954	0.04922
3893.95089	0.04967
3892.02224	0.05008
3890.09358	0.04991
3888.16493	0.04960
3886.23628	0.04962
3884.30762	0.04967
3882.37897	0.04936
3880.45032	0.04896
3878.52166	0.04887
3876.59301	0.04906
3874.66436	0.04905
3872.73570	0.04879
3870.80705	0.04867
3868.87840	0.04881
3866.94974	0.04907
3865.02109	0.04926
3863.09244	0.04924
3861.16378	0.04886
3859.23513	0.04831
3857.30648	0.04811
3855.37782	0.04843
3853.44917	0.04880
3851.52052	0.04884
3849.59186	0.04880
3847.66321	0.04868
3845.73456	0.04794
3843.80590	0.04676
3841.87725	0.04609
3839.94860	0.04635
3838.01994	0.04678
3836.09129	0.04654
3834.16264	0.04621
3832.23398	0.04647
3830.30533	0.04692
3828.37668	0.04700
3826.44803	0.04672
3824.51937	0.04643
3822.59072	0.04656
3820.66207	0.04706
3818.73341	0.04729
3816.80476	0.04695
3814.87611	0.04626
3812.94745	0.04567
3811.01880	0.04542
3809.09015	0.04543
3807.16149	0.04564
3805.23284	0.04585
3803.30419	0.04567
3801.37553	0.04520
3799.44688	0.04494
3797.51823	0.04488
3795.58957	0.04452
3793.66092	0.04418
3791.73227	0.04451
3789.80361	0.04516
3787.87496	0.04553
3785.94631	0.04550
3784.01765	0.04488
3782.08900	0.04413
3780.16035	0.04402
3778.23169	0.04430
3776.30304	0.04438
3774.37439	0.04448
3772.44573	0.04465
3770.51708	0.04440
3768.58843	0.04403
3766.65977	0.04421
3764.73112	0.04457
3762.80247	0.04434
3760.87381	0.04373
3758.94516	0.04351
3757.01651	0.04368
3755.08786	0.04369
3753.15920	0.04381
3751.23055	0.04422
3749.30190	0.04447
3747.37324	0.04447
3745.44459	0.04435
3743.51594	0.04412
3741.58728	0.04372
3739.65863	0.04315
3737.72998	0.04272
3735.80132	0.04263
3733.87267	0.04260
3731.94402	0.04223
3730.01536	0.04168
3728.08671	0.04166
3726.15806	0.04234
3724.22940	0.04297
3722.30075	0.04281
3720.37210	0.04202
3718.44344	0.04143
3716.51479	0.04134
3714.58614	0.04111
3712.65748	0.04063
3710.72883	0.04086
3708.80018	0.04163
3706.87152	0.04179
3704.94287	0.04149
3703.01422	0.04154
3701.08556	0.04167
3699.15691	0.04139
3697.22826	0.04111
3695.29960	0.04120
3693.37095	0.04147
3691.44230	0.04168
3689.51365	0.04154
3687.58499	0.04108
3685.65634	0.04081
3683.72769	0.04091
3681.79903	0.04109
3679.87038	0.04100
3677.94173	0.04064
3676.01307	0.04047
3674.08442	0.04083
3672.15577	0.04142
3670.22711	0.04159
3668.29846	0.04120
3666.36981	0.04066
3664.44115	0.04039
3662.51250	0.04068
3660.58385	0.04146
3658.65519	0.04225
3656.72654	0.04274
3654.79789	0.04289
3652.86923	0.04283
3650.94058	0.04302
3649.01193	0.04359
3647.08327	0.04415
3645.15462	0.04461
3643.22597	0.04524
3641.29731	0.04580
3639.36866	0.04591
3637.44001	0.04590
3635.51135	0.04631
3633.58270	0.04669
3631.65405	0.04662
3629.72539	0.04651
3627.79674	0.04672
3625.86809	0.04709
3623.93943	0.04759
3622.01078	0.04835
3620.08213	0.04927
3618.15348	0.05012
3616.22482	0.05072
3614.29617	0.05112
3612.36752	0.05148
3610.43886	0.05158
3608.51021	0.05135
3606.58156	0.05127
3604.65290	0.05190
3602.72425	0.05316
3600.79560	0.05457
3598.86694	0.05542
3596.93829	0.05540
3595.00964	0.05538
3593.08098	0.05609
3591.15233	0.05669
3589.22368	0.05641
3587.29502	0.05594
3585.36637	0.05647
3583.43772	0.05801
3581.50906	0.05949
3579.58041	0.06024
3577.65176	0.06066
3575.72310	0.06120
3573.79445	0.06162
3571.86580	0.06183
3569.93714	0.06215
3568.00849	0.06266
3566.07984	0.06337
3564.15118	0.06435
3562.22253	0.06527
3560.29388	0.06588
3558.36522	0.06659
3556.43657	0.06746
3554.50792	0.06819
3552.57927	0.06885
3550.65061	0.06951
3548.72196	0.07018
3546.79331	0.07082
3544.86465	0.07141
3542.93600	0.07202
3541.00735	0.07246
3539.07869	0.07262
3537.15004	0.07280
3535.22139	0.07319
3533.29273	0.07373
3531.36408	0.07438
3529.43543	0.07517
3527.50677	0.07622
3525.57812	0.07732
3523.64947	0.07796
3521.72081	0.07811
3519.79216	0.07825
3517.86351	0.07878
3515.93485	0.07964
3514.00620	0.08028
3512.07755	0.08049
3510.14889	0.08081
3508.22024	0.08159
3506.29159	0.08263
3504.36293	0.08354
3502.43428	0.08390
3500.50563	0.08387
3498.57697	0.08419
3496.64832	0.08498
3494.71967	0.08572
3492.79101	0.08628
3490.86236	0.08680
3488.93371	0.08715
3487.00506	0.08737
3485.07640	0.08774
3483.14775	0.08809
3481.21910	0.08808
3479.29044	0.08813
3477.36179	0.08883
3475.43314	0.08985
3473.50448	0.09049
3471.57583	0.09068
3469.64718	0.09095
3467.71852	0.09164
3465.78987	0.09251
3463.86122	0.09303
3461.93256	0.09310
3460.00391	0.09326
3458.07526	0.09387
3456.14660	0.09456
3454.21795	0.09497
3452.28930	0.09526
3450.36064	0.09573
3448.43199	0.09641
3446.50334	0.09694
3444.57468	0.09699
3442.64603	0.09690
3440.71738	0.09705
3438.78872	0.09741
3436.86007	0.09796
3434.93142	0.09868
3433.00276	0.09951
3431.07411	0.10034
3429.14546	0.10088
3427.21680	0.10101
3425.28815	0.10107
3423.35950	0.10134
3421.43084	0.10170
3419.50219	0.10202
3417.57354	0.10255
3415.64489	0.10358
3413.71623	0.10457
3411.78758	0.10484
3409.85893	0.10465
3407.93027	0.10476
3406.00162	0.10523
3404.07297	0.10560
3402.14431	0.10588
3400.21566	0.10629
3398.28701	0.10664
3396.35835	0.10698
3394.42970	0.10754
3392.50105	0.10811
3390.57239	0.10848
3388.64374	0.10876
3386.71509	0.10894
3384.78643	0.10891
3382.85778	0.10891
3380.92913	0.10920
3379.00047	0.10971
3377.07182	0.11032
3375.14317	0.11094
3373.21451	0.11160
3371.28586	0.11242
3369.35721	0.11339
3367.42855	0.11425
3365.49990	0.11483
3363.57125	0.11536
3361.64259	0.11608
3359.71394	0.11693
3357.78529	0.11788
3355.85663	0.11895
3353.92798	0.12003
3351.99933	0.12100
3350.07068	0.12190
3348.14202	0.12298
3346.21337	0.12421
3344.28472	0.12522
3342.35606	0.12599
3340.42741	0.12677
3338.49876	0.12765
3336.57010	0.12858
3334.64145	0.12939
3332.71280	0.13010
3330.78414	0.13097
3328.85549	0.13183
3326.92684	0.13233
3324.99818	0.13262
3323.06953	0.13314
3321.14088	0.13399
3319.21222	0.13457
3317.28357	0.13462
3315.35492	0.13480
3313.42626	0.13526
3311.49761	0.13556
3309.56896	0.13570
3307.64030	0.13592
3305.71165	0.13620
3303.78300	0.13649
3301.85434	0.13668
3299.92569	0.13678
3297.99704	0.13691
3296.06838	0.13699
3294.13973	0.13691
3292.21108	0.13675
3290.28242	0.13664
3288.35377	0.13662
3286.42512	0.13668
3284.49646	0.13689
3282.56781	0.13725
3280.63916	0.13746
3278.71051	0.13713
3276.78185	0.13656
3274.85320	0.13610
3272.92455	0.13561
3270.99589	0.13497
3269.06724	0.13437
3267.13859	0.13383
3265.20993	0.13323
3263.28128	0.13259
3261.35263	0.13199
3259.42397	0.13156
3257.49532	0.13111
3255.56667	0.13040
3253.63801	0.12964
3251.70936	0.12912
3249.78071	0.12864
3247.85205	0.12798
3245.92340	0.12737
3243.99475	0.12705
3242.06609	0.12679
3240.13744	0.12636
3238.20879	0.12599
3236.28013	0.12570
3234.35148	0.12519
3232.42283	0.12447
3230.49417	0.12386
3228.56552	0.12348
3226.63687	0.12328
3224.70821	0.12318
3222.77956	0.12303
3220.85091	0.12271
3218.92225	0.12225
3216.99360	0.12181
3215.06495	0.12142
3213.13630	0.12101
3211.20764	0.12043
3209.27899	0.11975
3207.35034	0.11932
3205.42168	0.11913
3203.49303	0.11902
3201.56438	0.11910
3199.63572	0.11907
3197.70707	0.11835
3195.77842	0.11708
3193.84976	0.11585
3191.92111	0.11508
3189.99246	0.11479
3188.06380	0.11474
3186.13515	0.11453
3184.20650	0.11379
3182.27784	0.11281
3180.34919	0.11215
3178.42054	0.11165
3176.49188	0.11084
3174.56323	0.10987
3172.63458	0.10900
3170.70592	0.10811
3168.77727	0.10736
3166.84862	0.10692
3164.91996	0.10635
3162.99131	0.10543
3161.06266	0.10445
3159.13400	0.10366
3157.20535	0.10303
3155.27670	0.10236
3153.34804	0.10171
3151.41939	0.10121
3149.49074	0.10066
3147.56209	0.09989
3145.63343	0.09923
3143.70478	0.09875
3141.77613	0.09823
3139.84747	0.09759
3137.91882	0.09697
3135.99017	0.09641
3134.06151	0.09578
3132.13286	0.09513
3130.20421	0.09470
3128.27555	0.09442
3126.34690	0.09410
3124.41825	0.09374
3122.48959	0.09327
3120.56094	0.09285
3118.63229	0.09282
3116.70363	0.09291
3114.77498	0.09264
3112.84633	0.09232
3110.91767	0.09240
3108.98902	0.09261
3107.06037	0.09267
3105.13171	0.09276
3103.20306	0.09285
3101.27441	0.09261
3099.34575	0.09224
3097.41710	0.09227
3095.48845	0.09271
3093.55979	0.09322
3091.63114	0.09376
3089.70249	0.09429
3087.77383	0.09460
3085.84518	0.09469
3083.91653	0.09480
3081.98787	0.09496
3080.05922	0.09503
3078.13057	0.09497
3076.20192	0.09489
3074.27326	0.09480
3072.34461	0.09476
3070.41596	0.09489
3068.48730	0.09492
3066.55865	0.09456
3064.63000	0.09400
3062.70134	0.09352
3060.77269	0.09318
3058.84404	0.09292
3056.91538	0.09263
3054.98673	0.09232
3053.05808	0.09185
3051.12942	0.09113
3049.20077	0.09037
3047.27212	0.08967
3045.34346	0.08892
3043.41481	0.08828
3041.48616	0.08783
3039.55750	0.08728
3037.62885	0.08648
3035.70020	0.08567
3033.77154	0.08510
3031.84289	0.08471
3029.91424	0.08425
3027.98558	0.08360
3026.05693	0.08291
3024.12828	0.08241
3022.19962	0.08201
3020.27097	0.08147
3018.34232	0.08075
3016.41366	0.08017
3014.48501	0.07997
3012.55636	0.07991
3010.62771	0.07973
3008.69905	0.07953
3006.77040	0.07939
3004.84175	0.07922
3002.91309	0.07906
3000.98444	0.07900
2999.05579	0.07907
2997.12713	0.07924
2995.19848	0.07949
2993.26983	0.07966
2991.34117	0.07970
2989.41252	0.07976
2987.48387	0.08012
2985.55521	0.08076
2983.62656	0.08142
2981.69791	0.08215
2979.76925	0.08294
2977.84060	0.08331
2975.91195	0.08314
2973.98329	0.08301
2972.05464	0.08339
2970.12599	0.08407
2968.19733	0.08461
2966.26868	0.08493
2964.34003	0.08514
2962.41137	0.08529
2960.48272	0.08549
2958.55407	0.08582
2956.62541	0.08612
2954.69676	0.08620
2952.76811	0.08606
2950.83945	0.08586
2948.91080	0.08578
2946.98215	0.08604
2945.05349	0.08646
2943.12484	0.08671
2941.19619	0.08690
2939.26754	0.08728
2937.33888	0.08764
2935.41023	0.08760
2933.48158	0.08721
2931.55292	0.08679
2929.62427	0.08652
2927.69562	0.08633
2925.76696	0.08603
2923.83831	0.08561
2921.90966	0.08514
2919.98100	0.08452
2918.05235	0.08380
2916.12370	0.08313
2914.19504	0.08240
2912.26639	0.08154
2910.33774	0.08067
2908.40908	0.07977
2906.48043	0.07899
2904.55178	0.07841
2902.62312	0.07785
2900.69447	0.07733
2898.76582	0.07700
2896.83716	0.07685
2894.90851	0.07672
2892.97986	0.07633
2891.05120	0.07590
2889.12255	0.07589
2887.19390	0.07614
2885.26524	0.07630
2883.33659	0.07637
2881.40794	0.07645
2879.47928	0.07647
2877.55063	0.07635
2875.62198	0.07605
2873.69333	0.07559
2871.76467	0.07517
2869.83602	0.07479
2867.90737	0.07430
2865.97871	0.07366
2864.05006	0.07294
2862.12141	0.07214
2860.19275	0.07146
2858.26410	0.07095
2856.33545	0.07060
2854.40679	0.07044
2852.47814	0.07021
2850.54949	0.06976
2848.62083	0.06921
2846.69218	0.06873
2844.76353	0.06841
2842.83487	0.06810
2840.90622	0.06755
2838.97757	0.06693
2837.04891	0.06641
2835.12026	0.06601
2833.19161	0.06565
2831.26295	0.06525
2829.33430	0.06493
2827.40565	0.06478
2825.47699	0.06455
2823.54834	0.06412
2821.61969	0.06374
2819.69103	0.06355
2817.76238	0.06346
2815.83373	0.06339
2813.90507	0.06319
2811.97642	0.06285
2810.04777	0.06254
2808.11912	0.06239
2806.19046	0.06227
2804.26181	0.06204
2802.33316	0.06177
2800.40450	0.06159
2798.47585	0.06147
2796.54720	0.06118
2794.61854	0.06065
2792.68989	0.06021
2790.76124	0.06006
2788.83258	0.06002
2786.90393	0.05996
2784.97528	0.05982
2783.04662	0.05951
2781.11797	0.05912
2779.18932	0.05891
2777.26066	0.05883
2775.33201	0.05874
2773.40336	0.05866
2771.47470	0.05856
2769.54605	0.05824
2767.61740	0.05778
2765.68874	0.05747
2763.76009	0.05736
2761.83144	0.05735
2759.90278	0.05733
2757.97413	0.05716
2756.04548	0.05683
2754.11682	0.05657
2752.18817	0.05655
2750.25952	0.05656
2748.33086	0.05640
2746.40221	0.05618
2744.47356	0.05598
2742.54490	0.05565
2740.61625	0.05520
2738.68760	0.05486
2736.75895	0.05480
2734.83029	0.05487
2732.90164	0.05489
2730.97299	0.05472
2729.04433	0.05433
2727.11568	0.05397
2725.18703	0.05388
2723.25837	0.05388
2721.32972	0.05376
2719.40107	0.05359
2717.47241	0.05332
2715.54376	0.05298
2713.61511	0.05275
2711.68645	0.05269
2709.75780	0.05276
2707.82915	0.05277
2705.90049	0.05251
2703.97184	0.05218
2702.04319	0.05203
2700.11453	0.05196
2698.18588	0.05191
2696.25723	0.05179
2694.32857	0.05145
2692.39992	0.05104
2690.47127	0.05087
2688.54261	0.05088
2686.61396	0.05093
2684.68531	0.05087
2682.75665	0.05064
2680.82800	0.05043
2678.89935	0.05040
2676.97069	0.05043
2675.04204	0.05043
2673.11339	0.05039
2671.18474	0.05024
2669.25608	0.04996
2667.32743	0.04970
2665.39878	0.04958
2663.47012	0.04960
2661.54147	0.04958
2659.61282	0.04930
2657.68416	0.04881
2655.75551	0.04825
2653.82686	0.04791
2651.89820	0.04780
2649.96955	0.04758
2648.04090	0.04720
2646.11224	0.04692
2644.18359	0.04668
2642.25494	0.04633
2640.32628	0.04612
2638.39763	0.04603
2636.46898	0.04581
2634.54032	0.04549
2632.61167	0.04515
2630.68302	0.04494
2628.75436	0.04484
2626.82571	0.04464
2624.89706	0.04440
2622.96840	0.04439
2621.03975	0.04437
2619.11110	0.04393
2617.18244	0.04336
2615.25379	0.04308
2613.32514	0.04293
2611.39648	0.04278
2609.46783	0.04255
2607.53918	0.04215
2605.61052	0.04181
2603.68187	0.04176
2601.75322	0.04169
2599.82457	0.04135
2597.89591	0.04103
2595.96726	0.04094
2594.03861	0.04101
2592.10995	0.04111
2590.18130	0.04095
2588.25265	0.04041
2586.32399	0.03995
2584.39534	0.03986
2582.46669	0.03987
2580.53803	0.03985
2578.60938	0.03995
2576.68073	0.04005
2574.75207	0.03991
2572.82342	0.03969
2570.89477	0.03955
2568.96611	0.03930
2567.03746	0.03889
2565.10881	0.03851
2563.18015	0.03842
2561.25150	0.03859
2559.32285	0.03872
2557.39419	0.03873
2555.46554	0.03870
2553.53689	0.03848
2551.60823	0.03804
2549.67958	0.03765
2547.75093	0.03737
2545.82227	0.03727
2543.89362	0.03733
2541.96497	0.03725
2540.03631	0.03707
2538.10766	0.03693
2536.17901	0.03666
2534.25036	0.03639
2532.32170	0.03643
2530.39305	0.03671
2528.46440	0.03696
2526.53574	0.03703
2524.60709	0.03683
2522.67844	0.03651
2520.74978	0.03628
2518.82113	0.03597
2516.89248	0.03550
2514.96382	0.03511
2513.03517	0.03506
2511.10652	0.03529
2509.17786	0.03556
2507.24921	0.03565
2505.32056	0.03553
2503.39190	0.03540
2501.46325	0.03541
2499.53460	0.03544
2497.60594	0.03538
2495.67729	0.03534
2493.74864	0.03538
2491.81998	0.03524
2489.89133	0.03483
2487.96268	0.03453
2486.03402	0.03459
2484.10537	0.03477
2482.17672	0.03479
2480.24806	0.03454
2478.31941	0.03408
2476.39076	0.03385
2474.46210	0.03401
2472.53345	0.03415
2470.60480	0.03415
2468.67615	0.03416
2466.74749	0.03404
2464.81884	0.03386
2462.89019	0.03386
2460.96153	0.03395
2459.03288	0.03391
2457.10423	0.03366
2455.17557	0.03318
2453.24692	0.03256
2451.31827	0.03222
2449.38961	0.03235
2447.46096	0.03261
2445.53231	0.03288
2443.60365	0.03312
2441.67500	0.03301
2439.74635	0.03281
2437.81769	0.03295
2435.88904	0.03322
2433.96039	0.03323
2432.03173	0.03304
2430.10308	0.03297
2428.17443	0.03292
2426.24577	0.03272
2424.31712	0.03260
2422.38847	0.03263
2420.45981	0.03256
2418.53116	0.03253
2416.60251	0.03271
2414.67385	0.03271
2412.74520	0.03251
2410.81655	0.03253
2408.88789	0.03288
2406.95924	0.03310
2405.03059	0.03285
2403.10193	0.03256
2401.17328	0.03275
2399.24463	0.03287
2397.31598	0.03258
2395.38732	0.03249
2393.45867	0.03289
2391.53002	0.03318
2389.60136	0.03310
2387.67271	0.03307
2385.74406	0.03319
2383.81540	0.03318
2381.88675	0.03296
2379.95810	0.03284
2378.02944	0.03304
2376.10079	0.03338
2374.17214	0.03355
2372.24348	0.03352
2370.31483	0.03358
2368.38618	0.03386
2366.45752	0.03409
2364.52887	0.03400
2362.60022	0.03369
2360.67156	0.03350
2358.74291	0.03355
2356.81426	0.03371
2354.88560	0.03371
2352.95695	0.03355
2351.02830	0.03341
2349.09964	0.03341
2347.17099	0.03349
2345.24234	0.03352
2343.31368	0.03340
2341.38503	0.03336
2339.45638	0.03355
2337.52772	0.03368
2335.59907	0.03351
2333.67042	0.03325
2331.74177	0.03308
2329.81311	0.03284
2327.88446	0.03245
2325.95581	0.03199
2324.02715	0.03174
2322.09850	0.03184
2320.16985	0.03191
2318.24119	0.03154
2316.31254	0.03089
2314.38389	0.03041
2312.45523	0.03032
2310.52658	0.03039
2308.59793	0.03041
2306.66927	0.03027
2304.74062	0.02988
2302.81197	0.02941
2300.88331	0.02913
2298.95466	0.02897
2297.02601	0.02876
2295.09735	0.02840
2293.16870	0.02795
2291.24005	0.02758
2289.31139	0.02740
2287.38274	0.02725
2285.45409	0.02704
2283.52543	0.02694
2281.59678	0.02713
2279.66813	0.02711
2277.73947	0.02634
2275.81082	0.02540
2273.88217	0.02494
2271.95351	0.02477
2270.02486	0.02460
2268.09621	0.02438
2266.16755	0.02408
2264.23890	0.02407
2262.31025	0.02454
2260.38160	0.02499
2258.45294	0.02497
2256.52429	0.02462
2254.59564	0.02418
2252.66698	0.02370
2250.73833	0.02315
2248.80968	0.02271
2246.88102	0.02261
2244.95237	0.02272
2243.02372	0.02251
2241.09506	0.02187
2239.16641	0.02117
2237.23776	0.02078
2235.30910	0.02096
2233.38045	0.02164
2231.45180	0.02239
2229.52314	0.02266
2227.59449	0.02215
2225.66584	0.02160
2223.73718	0.02158
2221.80853	0.02133
2219.87988	0.02052
2217.95122	0.02009
2216.02257	0.01990
2214.09392	0.01896
2212.16526	0.01771
2210.23661	0.01727
2208.30796	0.01811
2206.37930	0.01929
2204.45065	0.01927
2202.52200	0.01835
2200.59334	0.01796
2198.66469	0.01825
2196.73604	0.01843
2194.80739	0.01783
2192.87873	0.01703
2190.95008	0.01682
2189.02143	0.01702
2187.09277	0.01740
2185.16412	0.01742
2183.23547	0.01677
2181.30681	0.01615
2179.37816	0.01604
2177.44951	0.01622
2175.52085	0.01576
2173.59220	0.01428
2171.66355	0.01298
2169.73489	0.01273
2167.80624	0.01287
2165.87759	0.01246
2163.94893	0.01160
2162.02028	0.01097
2160.09163	0.01077
2158.16297	0.01152
2156.23432	0.01322
2154.30567	0.01419
2152.37701	0.01391
2150.44836	0.01381
2148.51971	0.01420
2146.59105	0.01467
2144.66240	0.01595
2142.73375	0.01790
2140.80509	0.01955
2138.87644	0.02060
2136.94779	0.02086
2135.01913	0.02015
2133.09048	0.01909
2131.16183	0.01878
2129.23318	0.01948
2127.30452	0.02043
2125.37587	0.02114
2123.44722	0.02161
2121.51856	0.02159
2119.58991	0.02129
2117.66126	0.02122
2115.73260	0.02109
2113.80395	0.02086
2111.87530	0.02083
2109.94664	0.02071
2108.01799	0.02060
2106.08934	0.02052
2104.16068	0.02029
2102.23203	0.01994
2100.30338	0.01936
2098.37472	0.01884
2096.44607	0.01929
2094.51742	0.02023
2092.58876	0.02043
2090.66011	0.02003
2088.73146	0.01996
2086.80280	0.02019
2084.87415	0.02024
2082.94550	0.01987
2081.01684	0.01910
2079.08819	0.01795
2077.15954	0.01691
2075.23088	0.01662
2073.30223	0.01668
2071.37358	0.01648
2069.44492	0.01611
2067.51627	0.01567
2065.58762	0.01531
2063.65896	0.01536
2061.73031	0.01602
2059.80166	0.01690
2057.87301	0.01712
2055.94435	0.01654
2054.01570	0.01588
2052.08705	0.01536
2050.15839	0.01452
2048.22974	0.01346
2046.30109	0.01283
2044.37243	0.01260
2042.44378	0.01245
2040.51513	0.01242
2038.58647	0.01210
2036.65782	0.01139
2034.72917	0.01107
2032.80051	0.01147
2030.87186	0.01199
2028.94321	0.01195
2027.01455	0.01166
2025.08590	0.01142
2023.15725	0.01063
2021.22859	0.01002
2019.29994	0.01063
2017.37129	0.01159
2015.44263	0.01238
2013.51398	0.01319
2011.58533	0.01339
2009.65667	0.01275
2007.72802	0.01212
2005.79937	0.01221
2003.87071	0.01290
2001.94206	0.01348
2000.01341	0.01331
1998.08475	0.01273
1996.15610	0.01240
1994.22745	0.01260
1992.29880	0.01314
1990.37014	0.01338
1988.44149	0.01311
1986.51284	0.01277
1984.58418	0.01248
1982.65553	0.01194
1980.72688	0.01102
1978.79822	0.01024
1976.86957	0.00988
1974.94092	0.00963
1973.01226	0.00974
1971.08361	0.01047
1969.15496	0.01129
1967.22630	0.01177
1965.29765	0.01212
1963.36900	0.01292
1961.44034	0.01399
1959.51169	0.01456
1957.58304	0.01430
1955.65438	0.01363
1953.72573	0.01333
1951.79708	0.01372
1949.86842	0.01439
1947.93977	0.01472
1946.01112	0.01469
1944.08246	0.01479
1942.15381	0.01532
1940.22516	0.01600
1938.29650	0.01635
1936.36785	0.01616
1934.43920	0.01571
1932.51054	0.01554
1930.58189	0.01560
1928.65324	0.01564
1926.72458	0.01579
1924.79593	0.01610
1922.86728	0.01643
1920.93863	0.01657
1919.00997	0.01644
1917.08132	0.01637
1915.15267	0.01650
1913.22401	0.01662
1911.29536	0.01672
1909.36671	0.01691
1907.43805	0.01712
1905.50940	0.01717
1903.58075	0.01697
1901.65209	0.01673
1899.72344	0.01668
1897.79479	0.01686
1895.86613	0.01704
1893.93748	0.01702
1892.00883	0.01705
1890.08017	0.01745
1888.15152	0.01771
1886.22287	0.01742
1884.29421	0.01698
1882.36556	0.01680
1880.43691	0.01690
1878.50825	0.01705
1876.57960	0.01712
1874.65095	0.01717
1872.72229	0.01724
1870.79364	0.01719
1868.86499	0.01699
1866.93633	0.01675
1865.00768	0.01662
1863.07903	0.01664
1861.15037	0.01678
1859.22172	0.01695
1857.29307	0.01707
1855.36442	0.01710
1853.43576	0.01702
1851.50711	0.01680
1849.57846	0.01662
1847.64980	0.01665
1845.72115	0.01682
1843.79250	0.01701
1841.86384	0.01711
1839.93519	0.01702
1838.00654	0.01680
1836.07788	0.01666
1834.14923	0.01672
1832.22058	0.01685
1830.29192	0.01684
1828.36327	0.01670
1826.43462	0.01652
1824.50596	0.01636
1822.57731	0.01627
1820.64866	0.01630
1818.72000	0.01644
1816.79135	0.01665
1814.86270	0.01671
1812.93404	0.01657
1811.00539	0.01641
1809.07674	0.01637
1807.14808	0.01634
1805.21943	0.01633
1803.29078	0.01637
1801.36212	0.01634
1799.43347	0.01622
1797.50482	0.01616
1795.57616	0.01626
1793.64751	0.01640
1791.71886	0.01646
1789.79021	0.01642
1787.86155	0.01630
1785.93290	0.01622
1784.00425	0.01626
1782.07559	0.01626
1780.14694	0.01611
1778.21829	0.01590
1776.28963	0.01576
1774.36098	0.01576
1772.43233	0.01592
1770.50367	0.01609
1768.57502	0.01609
1766.64637	0.01597
1764.71771	0.01594
1762.78906	0.01602
1760.86041	0.01605
1758.93175	0.01604
1757.00310	0.01614
1755.07445	0.01638
1753.14579	0.01656
1751.21714	0.01663
1749.28849	0.01679
1747.35983	0.01711
1745.43118	0.01743
1743.50253	0.01773
1741.57387	0.01809
1739.64522	0.01847
1737.71657	0.01881
1735.78791	0.01921
1733.85926	0.01971
1731.93061	0.02014
1730.00195	0.02046
1728.07330	0.02088
1726.14465	0.02141
1724.21599	0.02188
1722.28734	0.02220
1720.35869	0.02247
1718.43004	0.02290
1716.50138	0.02358
1714.57273	0.02444
1712.64408	0.02541
1710.71542	0.02650
1708.78677	0.02782
1706.85812	0.02957
1704.92946	0.03171
1703.00081	0.03408
1701.07216	0.03675
1699.14350	0.03987
1697.21485	0.04324
1695.28620	0.04665
1693.35754	0.04994
1691.42889	0.05309
1689.50024	0.05627
1687.57158	0.05958
1685.64293	0.06306
1683.71428	0.06672
1681.78562	0.07058
1679.85697	0.07472
1677.92832	0.07919
1675.99966	0.08388
1674.07101	0.08867
1672.14236	0.09359
1670.21370	0.09866
1668.28505	0.10373
1666.35640	0.10869
1664.42774	0.11357
1662.49909	0.11835
1660.57044	0.12283
1658.64178	0.12682
1656.71313	0.13033
1654.78448	0.13348
1652.85583	0.13642
1650.92717	0.13900
1648.99852	0.14117
1647.06987	0.14311
1645.14121	0.14491
1643.21256	0.14655
1641.28391	0.14806
1639.35525	0.14945
1637.42660	0.15074
1635.49795	0.15186
1633.56929	0.15263
1631.64064	0.15289
1629.71199	0.15252
1627.78333	0.15132
1625.85468	0.14913
1623.92603	0.14607
1621.99737	0.14232
1620.06872	0.13808
1618.14007	0.13355
1616.21141	0.12889
1614.28276	0.12412
1612.35411	0.11929
1610.42545	0.11455
1608.49680	0.10998
1606.56815	0.10558
1604.63949	0.10137
1602.71084	0.09744
1600.78219	0.09389
1598.85353	0.09078
1596.92488	0.08805
1594.99623	0.08562
1593.06757	0.08356
1591.13892	0.08201
1589.21027	0.08091
1587.28161	0.08011
1585.35296	0.07961
1583.42431	0.07947
1581.49566	0.07970
1579.56700	0.08031
1577.63835	0.08129
1575.70970	0.08273
1573.78104	0.08462
1571.85239	0.08694
1569.92374	0.08960
1567.99508	0.09245
1566.06643	0.09546
1564.13778	0.09861
1562.20912	0.10177
1560.28047	0.10492
1558.35182	0.10805
1556.42316	0.11098
1554.49451	0.11355
1552.56586	0.11574
1550.63720	0.11754
1548.70855	0.11902
1546.77990	0.12028
1544.85124	0.12127
1542.92259	0.12187
1540.99394	0.12212
1539.06528	0.12221
1537.13663	0.12217
1535.20798	0.12194
1533.27932	0.12153
1531.35067	0.12091
1529.42202	0.12005
1527.49336	0.11897
1525.56471	0.11777
1523.63606	0.11653
1521.70740	0.11526
1519.77875	0.11390
1517.85010	0.11235
1515.92145	0.11058
1513.99279	0.10855
1512.06414	0.10622
1510.13549	0.10354
1508.20683	0.10055
1506.27818	0.09740
1504.34953	0.09425
1502.42087	0.09113
1500.49222	0.08802
1498.56357	0.08488
1496.63491	0.08173
1494.70626	0.07861
1492.77761	0.07563
1490.84895	0.07295
1488.92030	0.07061
1486.99165	0.06860
1485.06299	0.06701
1483.13434	0.06591
1481.20569	0.06532
1479.27703	0.06516
1477.34838	0.06537
1475.41973	0.06597
1473.49107	0.06704
1471.56242	0.06847
1469.63377	0.07006
1467.70511	0.07171
1465.77646	0.07341
1463.84781	0.07518
1461.91915	0.07700
1459.99050	0.07883
1458.06185	0.08075
1456.13319	0.08263
1454.20454	0.08407
1452.27589	0.08492
1450.34724	0.08532
1448.41858	0.08534
1446.48993	0.08494
1444.56128	0.08422
1442.63262	0.08336
1440.70397	0.08240
1438.77532	0.08122
1436.84666	0.07981
1434.91801	0.07820
1432.98936	0.07648
1431.06070	0.07487
1429.13205	0.07357
1427.20340	0.07264
1425.27474	0.07202
1423.34609	0.07162
1421.41744	0.07134
1419.48878	0.07116
1417.56013	0.07112
1415.63148	0.07119
1413.70282	0.07133
1411.77417	0.07161
1409.84552	0.07209
1407.91686	0.07271
1405.98821	0.07332
1404.05956	0.07376
1402.13090	0.07393
1400.20225	0.07389
1398.27360	0.07373
1396.34494	0.07344
1394.41629	0.07310
1392.48764	0.07283
1390.55898	0.07263
1388.63033	0.07240
1386.70168	0.07209
1384.77302	0.07173
1382.84437	0.07130
1380.91572	0.07083
1378.98707	0.07033
1377.05841	0.06973
1375.12976	0.06898
1373.20111	0.06812
1371.27245	0.06712
1369.34380	0.06597
1367.41515	0.06476
1365.48649	0.06358
1363.55784	0.06247
1361.62919	0.06155
1359.70053	0.06088
1357.77188	0.06050
1355.84323	0.06046
1353.91457	0.06071
1351.98592	0.06120
1350.05727	0.06193
1348.12861	0.06287
1346.19996	0.06387
1344.27131	0.06479
1342.34265	0.06567
1340.41400	0.06646
1338.48535	0.06704
1336.55669	0.06733
1334.62804	0.06725
1332.69939	0.06673
1330.77073	0.06588
1328.84208	0.06494
1326.91343	0.06407
1324.98477	0.06334
1323.05612	0.06276
1321.12747	0.06231
1319.19881	0.06199
1317.27016	0.06175
1315.34151	0.06147
1313.41286	0.06104
1311.48420	0.06056
1309.55555	0.06013
1307.62690	0.05974
1305.69824	0.05929
1303.76959	0.05887
1301.84094	0.05855
1299.91228	0.05826
1297.98363	0.05797
1296.05498	0.05783
1294.12632	0.05795
1292.19767	0.05837
1290.26902	0.05903
1288.34036	0.05977
1286.41171	0.06050
1284.48306	0.06117
1282.55440	0.06174
1280.62575	0.06216
1278.69710	0.06242
1276.76844	0.06251
1274.83979	0.06248
1272.91114	0.06246
1270.98248	0.06257
1269.05383	0.06282
1267.12518	0.06320
1265.19652	0.06367
1263.26787	0.06416
1261.33922	0.06470
1259.41056	0.06538
1257.48191	0.06623
1255.55326	0.06719
1253.62460	0.06823
1251.69595	0.06933
1249.76730	0.07053
1247.83864	0.07180
1245.90999	0.07307
1243.98134	0.07429
1242.05269	0.07547
1240.12403	0.07648
1238.19538	0.07719
1236.26673	0.07763
1234.33807	0.07785
1232.40942	0.07765
1230.48077	0.07693
1228.55211	0.07583
1226.62346	0.07451
1224.69481	0.07296
1222.76615	0.07127
1220.83750	0.06964
1218.90885	0.06817
1216.98019	0.06698
1215.05154	0.06612
1213.12289	0.06557
1211.19423	0.06537
1209.26558	0.06555
1207.33693	0.06595
1205.40827	0.06630
1203.47962	0.06642
1201.55097	0.06625
1199.62231	0.06582
1197.69366	0.06489
1195.76501	0.06367
1193.83635	0.06241
1191.90770	0.06120
1189.97905	0.06000
1188.05039	0.05882
1186.12174	0.05784
1184.19309	0.05708
1182.26443	0.05643
1180.33578	0.05591
1178.40713	0.05552
1176.47848	0.05527
1174.54982	0.05514
1172.62117	0.05509
1170.69252	0.05495
1168.76386	0.05474
1166.83521	0.05458
1164.90656	0.05454
1162.97790	0.05454
1161.04925	0.05442
1159.12060	0.05400
1157.19194	0.05333
1155.26329	0.05255
1153.33464	0.05171
1151.40598	0.05076
1149.47733	0.04972
1147.54868	0.04874
1145.62002	0.04792
1143.69137	0.04723
1141.76272	0.04667
1139.83406	0.04620
1137.90541	0.04566
1135.97676	0.04508
1134.04810	0.04470
1132.11945	0.04449
1130.19080	0.04431
1128.26214	0.04421
1126.33349	0.04416
1124.40484	0.04400
1122.47618	0.04374
1120.54753	0.04349
1118.61888	0.04338
1116.69022	0.04341
1114.76157	0.04340
1112.83292	0.04330
1110.90427	0.04334
1108.97561	0.04361
1107.04696	0.04393
1105.11831	0.04423
1103.18965	0.04459
1101.26100	0.04502
1099.33235	0.04549
1097.40369	0.04594
1095.47504	0.04631
1093.54639	0.04676
1091.61773	0.04760
1089.68908	0.04885
1087.76043	0.05017
1085.83177	0.05133
1083.90312	0.05233
1081.97447	0.05309
1080.04581	0.05353
1078.11716	0.05364
1076.18851	0.05343
1074.25985	0.05297
1072.33120	0.05248
1070.40255	0.05212
1068.47389	0.05196
1066.54524	0.05194
1064.61659	0.05191
1062.68793	0.05183
1060.75928	0.05169
1058.83063	0.05137
1056.90197	0.05087
1054.97332	0.05034
1053.04467	0.04992
1051.11601	0.04953
1049.18736	0.04906
1047.25871	0.04857
1045.33005	0.04828
1043.40140	0.04819
1041.47275	0.04819
1039.54410	0.04833
1037.61544	0.04866
1035.68679	0.04909
1033.75814	0.04948
1031.82948	0.04965
1029.90083	0.04937
1027.97218	0.04865
1026.04352	0.04771
1024.11487	0.04679
1022.18622	0.04593
1020.25756	0.04514
1018.32891	0.04449
1016.40026	0.04404
1014.47160	0.04358
1012.54295	0.04295
1010.61430	0.04227
1008.68564	0.04161
1006.75699	0.04094
1004.82834	0.04028
1002.89968	0.03969
1000.97103	0.03917
999.04238	0.03874
997.11372	0.03838
995.18507	0.03795
993.25642	0.03741
991.32776	0.03688
989.39911	0.03654
987.47046	0.03633
985.54180	0.03609
983.61315	0.03585
981.68450	0.03583
979.75584	0.03597
977.82719	0.03607
975.89854	0.03616
973.96989	0.03623
972.04123	0.03615
970.11258	0.03592
968.18393	0.03562
966.25527	0.03531
964.32662	0.03498
962.39797	0.03464
960.46931	0.03432
958.54066	0.03404
956.61201	0.03387
954.68335	0.03380
952.75470	0.03365
950.82605	0.03346
948.89739	0.03340
946.96874	0.03342
945.04009	0.03339
943.11143	0.03345
941.18278	0.03367
939.25413	0.03374
937.32547	0.03354
935.39682	0.03342
933.46817	0.03353
931.53951	0.03358
929.61086	0.03343
927.68221	0.03325
925.75355	0.03318
923.82490	0.03323
921.89625	0.03321
919.96759	0.03300
918.03894	0.03275
916.11029	0.03256
914.18163	0.03240
912.25298	0.03223
910.32433	0.03196
908.39567	0.03169
906.46702	0.03159
904.53837	0.03152
902.60972	0.03133
900.68106	0.03114
898.75241	0.03111
896.82376	0.03116
894.89510	0.03112
892.96645	0.03101
891.03780	0.03090
889.10914	0.03078
887.18049	0.03069
885.25184	0.03068
883.32318	0.03081
881.39453	0.03090
879.46588	0.03082
877.53722	0.03064
875.60857	0.03063
873.67992	0.03083
871.75126	0.03094
869.82261	0.03077
867.89396	0.03053
865.96530	0.03042
864.03665	0.03041
862.10800	0.03043
860.17934	0.03041
858.25069	0.03039
856.32204	0.03050
854.39338	0.03067
852.46473	0.03072
850.53608	0.03068
848.60742	0.03058
846.67877	0.03045
844.75012	0.03045
842.82146	0.03056
840.89281	0.03058
838.96416	0.03043
837.03551	0.03033
835.10685	0.03035
833.17820	0.03029
831.24955	0.03017
829.32089	0.03019
827.39224	0.03034
825.46359	0.03050
823.53493	0.03071
821.60628	0.03105
819.67763	0.03141
817.74897	0.03168
815.82032	0.03186
813.89167	0.03192
811.96301	0.03191
810.03436	0.03196
808.10571	0.03210
806.17705	0.03227
804.24840	0.03243
802.31975	0.03257
800.39109	0.03273
798.46244	0.03293
796.53379	0.03319
794.60513	0.03350
792.67648	0.03384
790.74783	0.03419
788.81917	0.03447
786.89052	0.03468
784.96187	0.03487
783.03321	0.03502
781.10456	0.03515
779.17591	0.03528
777.24725	0.03545
775.31860	0.03565
773.38995	0.03593
771.46130	0.03629
769.53264	0.03658
767.60399	0.03677
765.67534	0.03700
763.74668	0.03728
761.81803	0.03747
759.88938	0.03758
757.96072	0.03784
756.03207	0.03831
754.10342	0.03877
752.17476	0.03907
750.24611	0.03929
748.31746	0.03948
746.38880	0.03966
744.46015	0.03982
742.53150	0.03992
740.60284	0.03996
738.67419	0.04007
736.74554	0.04043
734.81688	0.04096
732.88823	0.04136
730.95958	0.04164
729.03092	0.04205
727.10227	0.04247
725.17362	0.04268
723.24496	0.04284
721.31631	0.04311
719.38766	0.04346
717.45900	0.04382
715.53035	0.04410
713.60170	0.04430
711.67304	0.04455
709.74439	0.04492
707.81574	0.04534
705.88708	0.04574
703.95843	0.04610
702.02978	0.04636
700.10113	0.04648
698.17247	0.04661
696.24382	0.04681
694.31517	0.04701
692.38651	0.04714
690.45786	0.04723
688.52921	0.04736
686.60055	0.04757
684.67190	0.04783
682.74325	0.04811
680.81459	0.04835
678.88594	0.04860
676.95729	0.04882
675.02863	0.04895
673.09998	0.04908
671.17133	0.04928
669.24267	0.04955
667.31402	0.04981
665.38537	0.05000
663.45671	0.05014
661.52806	0.05028
659.59941	0.05048
657.67075	0.05069
655.74210	0.05079
653.81345	0.05076
651.88479	0.05080
649.95614	0.05102
648.02749	0.05125
646.09883	0.05138
644.17018	0.05140
642.24153	0.05135
640.31287	0.05135
638.38422	0.05142
636.45557	0.05148
634.52692	0.05163
632.59826	0.05168
630.66961	0.05168
628.74096	0.05230
626.81230	0.05030
624.88365	0.04843
622.95500	0.04896
621.02634	0.05045
619.09769	0.05011
617.16904	0.05112
615.24038	0.05463
613.31173	0.05536
611.38308	0.05228
609.45442	0.05055
607.52577	0.05119
605.59712	0.05188
603.66846	0.05287
601.73981	0.05421
599.81116	0.05452
597.88250	0.05374
595.95385	0.05280
594.02520	0.05226
592.09654	0.05238
590.16789	0.05277
588.23924	0.05285
586.31058	0.05263
584.38193	0.05239
582.45328	0.05216
580.52462	0.05200
578.59597	0.05198
576.66732	0.05208
574.73866	0.05232
572.81001	0.05252
570.88136	0.05246
568.95270	0.05236
567.02405	0.05255
565.09540	0.05287
563.16675	0.05319
561.23809	0.05347
559.30944	0.05356
557.38079	0.05347
555.45213	0.05349
553.52348	0.05372
551.59483	0.05380
549.66617	0.05351
547.73752	0.05306
545.80887	0.05277
543.88021	0.05277
541.95156	0.05289
540.02291	0.05294
538.09425	0.05296
536.16560	0.05297
534.23695	0.05294
532.30829	0.05288
530.37964	0.05283
528.45099	0.05280
526.52233	0.05266
524.59368	0.05238
522.66503	0.05198
520.73637	0.05166
518.80772	0.05171
516.87907	0.05187
514.95041	0.05170
513.02176	0.05130
511.09311	0.05102
509.16445	0.05085
507.23580	0.05065
505.30715	0.05027
503.37849	0.04984
501.44984	0.04962
499.52119	0.04958
497.59254	0.04947
495.66388	0.04915
493.73523	0.04872
491.80658	0.04836
489.87792	0.04815
487.94927	0.04801
486.02062	0.04786
484.09196	0.04762
482.16331	0.04730
480.23466	0.04698
478.30600	0.04678
476.37735	0.04675
474.44870	0.04664
472.52004	0.04627
470.59139	0.04580
468.66274	0.04544
466.73408	0.04521
464.80543	0.04498
462.87678	0.04465
460.94812	0.04431
459.01947	0.04402
457.09082	0.04364
455.16216	0.04314
453.23351	0.04267
451.30486	0.04229
449.37620	0.04197
447.44755	0.04171
445.51890	0.04155
443.59024	0.04145
441.66159	0.04125
439.73294	0.04093
437.80428	0.04070
435.87563	0.04056
433.94698	0.04034
432.01833	0.04005
430.08967	0.03976
428.16102	0.03951
426.23237	0.03927
424.30371	0.03897
422.37506	0.03867
420.44641	0.03839
418.51775	0.03813
416.58910	0.03792
414.66045	0.03770
412.73179	0.03743
410.80314	0.03725
408.87449	0.03718
406.94583	0.03706
405.01718	0.03680
403.08853	0.03650
401.15987	0.03630
399.23122	0.03615
