3996.16951	0.06702
3994.24086	0.06669
3992.31220	0.06644
3990.38355	0.06669
3988.45490	0.06694
3986.52624	0.06645
3984.59759	0.06562
3982.66894	0.06539
3980.74028	0.06591
3978.81163	0.06661
3976.88298	0.06690
3974.95432	0.06678
3973.02567	0.06660
3971.09702	0.06631
3969.16836	0.06588
3967.23971	0.06569
3965.31106	0.06558
3963.38240	0.06536
3961.45375	0.06543
3959.52510	0.06569
3957.59645	0.06585
3955.66779	0.06595
3953.73914	0.06596
3951.81049	0.06588
3949.88183	0.06570
3947.95318	0.06527
3946.02453	0.06469
3944.09587	0.06426
3942.16722	0.06413
3940.23857	0.06423
3938.30991	0.06413
3936.38126	0.06378
3934.45261	0.06378
3932.52395	0.06404
3930.59530	0.06412
3928.66665	0.06414
3926.73799	0.06391
3924.80934	0.06326
3922.88069	0.06289
3920.95203	0.06325
3919.02338	0.06356
3917.09473	0.06341
3915.16607	0.06317
3913.23742	0.06314
3911.30877	0.06327
3909.38011	0.06338
3907.45146	0.06320
3905.52281	0.06289
3903.59415	0.06291
3901.66550	0.06322
3899.73685	0.06322
3897.80819	0.06268
3895.87954	0.06223
3893.95089	0.06230
3892.02224	0.06275
3890.09358	0.06281
3888.16493	0.06252
3886.23628	0.06267
3884.30762	0.06292
3882.37897	0.06294
3880.45032	0.06264
3878.52166	0.06205
3876.59301	0.06166
3874.66436	0.06135
3872.73570	0.06108
3870.80705	0.06135
3868.87840	0.06147
3866.94974	0.06142
3865.02109	0.06168
3863.09244	0.06172
3861.16378	0.06149
3859.23513	0.06098
3857.30648	0.06052
3855.37782	0.06088
3853.44917	0.06134
3851.52052	0.06111
3849.59186	0.06084
3847.66321	0.06041
3845.73456	0.05945
3843.80590	0.05838
3841.87725	0.05794
3839.94860	0.05853
3838.01994	0.05923
3836.09129	0.05893
3834.16264	0.05866
3832.23398	0.05887
3830.30533	0.05877
3828.37668	0.05858
3826.44803	0.05849
3824.51937	0.05815
3822.59072	0.05820
3820.66207	0.05854
3818.73341	0.05870
3816.80476	0.05885
3814.87611	0.05833
3812.94745	0.05766
3811.01880	0.05748
3809.09015	0.05766
3807.16149	0.05790
3805.23284	0.05731
3803.30419	0.05669
3801.37553	0.05696
3799.44688	0.05742
3797.51823	0.05772
3795.58957	0.05725
3793.66092	0.05625
3791.73227	0.05596
3789.80361	0.05658
3787.87496	0.05729
3785.94631	0.05727
3784.01765	0.05648
3782.08900	0.05578
3780.16035	0.05563
3778.23169	0.05541
3776.30304	0.05511
3774.37439	0.05524
3772.44573	0.05558
3770.51708	0.05560
3768.58843	0.05527
3766.65977	0.05509
3764.73112	0.05481
3762.80247	0.05442
3760.87381	0.05464
3758.94516	0.05540
3757.01651	0.05586
3755.08786	0.05546
3753.15920	0.05523
3751.23055	0.05551
3749.30190	0.05530
3747.37324	0.05465
3745.44459	0.05491
3743.51594	0.05498
3741.58728	0.05448
3739.65863	0.05430
3737.72998	0.05417
3735.80132	0.05373
3733.87267	0.05295
3731.94402	0.05215
3730.01536	0.05164
3728.08671	0.05219
3726.15806	0.05316
3724.22940	0.05346
3722.30075	0.05330
3720.37210	0.05307
3718.44344	0.05287
3716.51479	0.05232
3714.58614	0.05156
3712.65748	0.05114
3710.72883	0.05116
3708.80018	0.05133
3706.87152	0.05111
3704.94287	0.05084
3703.01422	0.05122
3701.08556	0.05177
3699.15691	0.05166
3697.22826	0.05115
3695.29960	0.05083
3693.37095	0.05097
3691.44230	0.05114
3689.51365	0.05109
3687.58499	0.05074
3685.65634	0.05056
3683.72769	0.05097
3681.79903	0.05133
3679.87038	0.05117
3677.94173	0.05085
3676.01307	0.05079
3674.08442	0.05033
3672.15577	0.05026
3670.22711	0.05085
3668.29846	0.05088
3666.36981	0.05049
3664.44115	0.05038
3662.51250	0.05068
3660.58385	0.05101
3658.65519	0.05118
3656.72654	0.05127
3654.79789	0.05098
3652.86923	0.05076
3650.94058	0.05148
3649.01193	0.05280
3647.08327	0.05362
3645.15462	0.05389
3643.22597	0.05419
3641.29731	0.05426
3639.36866	0.05397
3637.44001	0.05386
3635.51135	0.05405
3633.58270	0.05392
3631.65405	0.05359
3629.72539	0.05403
3627.79674	0.05468
3625.86809	0.05502
3623.93943	0.05529
3622.01078	0.05603
3620.08213	0.05727
3618.15348	0.05815
3616.22482	0.05844
3614.29617	0.05862
3612.36752	0.05898
3610.43886	0.05960
3608.51021	0.06009
3606.58156	0.06009
3604.65290	0.06015
3602.72425	0.06072
3600.79560	0.06149
3598.86694	0.06193
3596.93829	0.06211
3595.00964	0.06242
3593.08098	0.06298
3591.15233	0.06369
3589.22368	0.06420
3587.29502	0.06420
3585.36637	0.06429
3583.43772	0.06513
3581.50906	0.06611
3579.58041	0.06668
3577.65176	0.06714
3575.72310	0.06759
3573.79445	0.06796
3571.86580	0.06837
3569.93714	0.06875
3568.00849	0.06909
3566.07984	0.06955
3564.15118	0.07029
3562.22253	0.07118
3560.29388	0.07199
3558.36522	0.07291
3556.43657	0.07389
3554.50792	0.07458
3552.57927	0.07489
3550.65061	0.07501
3548.72196	0.07545
3546.79331	0.07627
3544.86465	0.07713
3542.93600	0.07804
3541.00735	0.07867
3539.07869	0.07879
3537.15004	0.07902
3535.22139	0.07958
3533.29273	0.08010
3531.36408	0.08051
3529.43543	0.08085
3527.50677	0.08130
3525.57812	0.08215
3523.64947	0.08315
3521.72081	0.08377
3519.79216	0.08415
3517.86351	0.08487
3515.93485	0.08590
3514.00620	0.08681
3512.07755	0.08746
3510.14889	0.08788
3508.22024	0.08798
3506.29159	0.08807
3504.36293	0.08851
3502.43428	0.08892
3500.50563	0.08909
3498.57697	0.08951
3496.64832	0.09015
3494.71967	0.09065
3492.79101	0.09138
3490.86236	0.09242
3488.93371	0.09306
3487.00506	0.09305
3485.07640	0.09314
3483.14775	0.09368
3481.21910	0.09412
3479.29044	0.09441
3477.36179	0.09496
3475.43314	0.09561
3473.50448	0.09604
3471.57583	0.09637
3469.64718	0.09672
3467.71852	0.09722
3465.78987	0.09788
3463.86122	0.09829
3461.93256	0.09831
3460.00391	0.09854
3458.07526	0.09938
3456.14660	0.10025
3454.21795	0.10062
3452.28930	0.10082
3450.36064	0.10131
3448.43199	0.10194
3446.50334	0.10227
3444.57468	0.10214
3442.64603	0.10197
3440.71738	0.10219
3438.78872	0.10267
3436.86007	0.10324
3434.93142	0.10394
3433.00276	0.10469
3431.07411	0.10533
3429.14546	0.10569
3427.21680	0.10580
3425.28815	0.10615
3423.35950	0.10690
3421.43084	0.10752
3419.50219	0.10764
3417.57354	0.10776
3415.64489	0.10854
3413.71623	0.10947
3411.78758	0.10971
3409.85893	0.10956
3407.93027	0.10976
3406.00162	0.11035
3404.07297	0.11087
3402.14431	0.11115
3400.21566	0.11146
3398.28701	0.11194
3396.35835	0.11246
3394.42970	0.11299
3392.50105	0.11341
3390.57239	0.11358
3388.64374	0.11384
3386.71509	0.11424
3384.78643	0.11449
3382.85778	0.11467
3380.92913	0.11489
3379.00047	0.11521
3377.07182	0.11569
3375.14317	0.11629
3373.21451	0.11694
3371.28586	0.11753
3369.35721	0.11806
3367.42855	0.11868
3365.49990	0.11954
3363.57125	0.12047
3361.64259	0.12129
3359.71394	0.12213
3357.78529	0.12308
3355.85663	0.12396
3353.92798	0.12477
3351.99933	0.12585
3350.07068	0.12716
3348.14202	0.12823
3346.21337	0.12878
3344.28472	0.12914
3342.35606	0.13006
3340.42741	0.13162
3338.49876	0.13304
3336.57010	0.13376
3334.64145	0.13406
3332.71280	0.13446
3330.78414	0.13521
3328.85549	0.13630
3326.92684	0.13735
3324.99818	0.13799
3323.06953	0.13854
3321.14088	0.13920
3319.21222	0.13950
3317.28357	0.13938
3315.35492	0.13951
3313.42626	0.14011
3311.49761	0.14092
3309.56896	0.14163
3307.64030	0.14197
3305.71165	0.14203
3303.78300	0.14208
3301.85434	0.14226
3299.92569	0.14240
3297.99704	0.14225
3296.06838	0.14194
3294.13973	0.14189
3292.21108	0.14211
3290.28242	0.14227
3288.35377	0.14238
3286.42512	0.14265
3284.49646	0.14294
3282.56781	0.14298
3280.63916	0.14274
3278.71051	0.14229
3276.78185	0.14192
3274.85320	0.14183
3272.92455	0.14150
3270.99589	0.14054
3269.06724	0.13954
3267.13859	0.13922
3265.20993	0.13938
3263.28128	0.13901
3261.35263	0.13816
3259.42397	0.13784
3257.49532	0.13784
3255.56667	0.13729
3253.63801	0.13622
3251.70936	0.13521
3249.78071	0.13439
3247.85205	0.13370
3245.92340	0.13327
3243.99475	0.13301
3242.06609	0.13274
3240.13744	0.13240
3238.20879	0.13207
3236.28013	0.13180
3234.35148	0.13144
3232.42283	0.13092
3230.49417	0.13032
3228.56552	0.12985
3226.63687	0.12957
3224.70821	0.12927
3222.77956	0.12908
3220.85091	0.12910
3218.92225	0.12892
3216.99360	0.12834
3215.06495	0.12781
3213.13630	0.12755
3211.20764	0.12718
3209.27899	0.12647
3207.35034	0.12589
3205.42168	0.12575
3203.49303	0.12575
3201.56438	0.12551
3199.63572	0.12484
3197.70707	0.12383
3195.77842	0.12287
3193.84976	0.12217
3191.92111	0.12178
3189.99246	0.12167
3188.06380	0.12164
3186.13515	0.12126
3184.20650	0.12045
3182.27784	0.11955
3180.34919	0.11883
3178.42054	0.11824
3176.49188	0.11753
3174.56323	0.11672
3172.63458	0.11609
3170.70592	0.11551
3168.77727	0.11473
3166.84862	0.11384
3164.91996	0.11292
3162.99131	0.11204
3161.06266	0.11142
3159.13400	0.11104
3157.20535	0.11057
3155.27670	0.10985
3153.34804	0.10905
3151.41939	0.10836
3149.49074	0.10777
3147.56209	0.10710
3145.63343	0.10638
3143.70478	0.10577
3141.77613	0.10533
3139.84747	0.10491
3137.91882	0.10439
3135.99017	0.10378
3134.06151	0.10305
3132.13286	0.10237
3130.20421	0.10195
3128.27555	0.10157
3126.34690	0.10111
3124.41825	0.10075
3122.48959	0.10054
3120.56094	0.10056
3118.63229	0.10084
3116.70363	0.10086
3114.77498	0.10037
3112.84633	0.09980
3110.91767	0.09957
3108.98902	0.09963
3107.06037	0.09986
3105.13171	0.10008
3103.20306	0.10011
3101.27441	0.10004
3099.34575	0.10006
3097.41710	0.10000
3095.48845	0.09979
3093.55979	0.09986
3091.63114	0.10041
3089.70249	0.10110
3087.77383	0.10144
3085.84518	0.10144
3083.91653	0.10155
3081.98787	0.10190
3080.05922	0.10211
3078.13057	0.10209
3076.20192	0.10210
3074.27326	0.10211
3072.34461	0.10207
3070.41596	0.10210
3068.48730	0.10206
3066.55865	0.10172
3064.63000	0.10124
3062.70134	0.10085
3060.77269	0.10052
3058.84404	0.10022
3056.91538	0.09992
3054.98673	0.09962
3053.05808	0.09925
3051.12942	0.09859
3049.20077	0.09778
3047.27212	0.09720
3045.34346	0.09681
3043.41481	0.09640
3041.48616	0.09585
3039.55750	0.09505
3037.62885	0.09417
3035.70020	0.09355
3033.77154	0.09308
3031.84289	0.09255
3029.91424	0.09201
3027.98558	0.09152
3026.05693	0.09102
3024.12828	0.09050
3022.19962	0.08986
3020.27097	0.08906
3018.34232	0.08837
3016.41366	0.08790
3014.48501	0.08755
3012.55636	0.08734
3010.62771	0.08718
3008.69905	0.08690
3006.77040	0.08663
3004.84175	0.08653
3002.91309	0.08644
3000.98444	0.08645
2999.05579	0.08669
2997.12713	0.08695
2995.19848	0.08706
2993.26983	0.08720
2991.34117	0.08755
2989.41252	0.08802
2987.48387	0.08838
2985.55521	0.08873
2983.62656	0.08921
2981.69791	0.08969
2979.76925	0.09017
2977.84060	0.09060
2975.91195	0.09079
2973.98329	0.09096
2972.05464	0.09149
2970.12599	0.09224
2968.19733	0.09288
2966.26868	0.09327
2964.34003	0.09356
2962.41137	0.09400
2960.48272	0.09461
2958.55407	0.09505
2956.62541	0.09526
2954.69676	0.09535
2952.76811	0.09523
2950.83945	0.09500
2948.91080	0.09511
2946.98215	0.09556
2945.05349	0.09588
2943.12484	0.09603
2941.19619	0.09650
2939.26754	0.09734
2937.33888	0.09806
2935.41023	0.09845
2933.48158	0.09869
2931.55292	0.09893
2929.62427	0.09925
2927.69562	0.09961
2925.76696	0.09979
2923.83831	0.09973
2921.90966	0.09953
2919.98100	0.09904
2918.05235	0.09823
2916.12370	0.09714
2914.19504	0.09577
2912.26639	0.09424
2910.33774	0.09280
2908.40908	0.09149
2906.48043	0.09037
2904.55178	0.08951
2902.62312	0.08875
2900.69447	0.08802
2898.76582	0.08749
2896.83716	0.08710
2894.90851	0.08667
2892.97986	0.08626
2891.05120	0.08604
2889.12255	0.08596
2887.19390	0.08584
2885.26524	0.08574
2883.33659	0.08574
2881.40794	0.08565
2879.47928	0.08548
2877.55063	0.08550
2875.62198	0.08559
2873.69333	0.08541
2871.76467	0.08496
2869.83602	0.08448
2867.90737	0.08411
2865.97871	0.08385
2864.05006	0.08353
2862.12141	0.08303
2860.19275	0.08262
2858.26410	0.08258
2856.33545	0.08278
2854.40679	0.08296
2852.47814	0.08293
2850.54949	0.08246
2848.62083	0.08140
2846.69218	0.08001
2844.76353	0.07874
2842.83487	0.07762
2840.90622	0.07670
2838.97757	0.07614
2837.04891	0.07577
2835.12026	0.07538
2833.19161	0.07508
2831.26295	0.07485
2829.33430	0.07448
2827.40565	0.07394
2825.47699	0.07337
2823.54834	0.07287
2821.61969	0.07243
2819.69103	0.07218
2817.76238	0.07213
2815.83373	0.07209
2813.90507	0.07195
2811.97642	0.07171
2810.04777	0.07134
2808.11912	0.07084
2806.19046	0.07043
2804.26181	0.07017
2802.33316	0.07002
2800.40450	0.07003
2798.47585	0.07005
2796.54720	0.06978
2794.61854	0.06932
2792.68989	0.06907
2790.76124	0.06897
2788.83258	0.06876
2786.90393	0.06840
2784.97528	0.06806
2783.04662	0.06782
2781.11797	0.06762
2779.18932	0.06741
2777.26066	0.06727
2775.33201	0.06719
2773.40336	0.06707
2771.47470	0.06684
2769.54605	0.06658
2767.61740	0.06640
2765.68874	0.06626
2763.76009	0.06601
2761.83144	0.06569
2759.90278	0.06542
2757.97413	0.06519
2756.04548	0.06495
2754.11682	0.06483
2752.18817	0.06492
2750.25952	0.06496
2748.33086	0.06479
2746.40221	0.06457
2744.47356	0.06437
2742.54490	0.06403
2740.61625	0.06361
2738.68760	0.06338
2736.75895	0.06344
2734.83029	0.06343
2732.90164	0.06318
2730.97299	0.06288
2729.04433	0.06264
2727.11568	0.06247
2725.18703	0.06237
2723.25837	0.06227
2721.32972	0.06223
2719.40107	0.06213
2717.47241	0.06172
2715.54376	0.06131
2713.61511	0.06122
2711.68645	0.06121
2709.75780	0.06110
2707.82915	0.06099
2705.90049	0.06083
2703.97184	0.06052
2702.04319	0.06021
2700.11453	0.06006
2698.18588	0.06011
2696.25723	0.06010
2694.32857	0.05978
2692.39992	0.05940
2690.47127	0.05933
2688.54261	0.05935
2686.61396	0.05919
2684.68531	0.05902
2682.75665	0.05894
2680.82800	0.05881
2678.89935	0.05864
2676.97069	0.05848
2675.04204	0.05830
2673.11339	0.05818
2671.18474	0.05820
2669.25608	0.05818
2667.32743	0.05803
2665.39878	0.05782
2663.47012	0.05763
2661.54147	0.05740
2659.61282	0.05704
2657.68416	0.05666
2655.75551	0.05628
2653.82686	0.05586
2651.89820	0.05549
2649.96955	0.05534
2648.04090	0.05532
2646.11224	0.05513
2644.18359	0.05455
2642.25494	0.05387
2640.32628	0.05356
2638.39763	0.05347
2636.46898	0.05318
2634.54032	0.05272
2632.61167	0.05228
2630.68302	0.05203
2628.75436	0.05190
2626.82571	0.05165
2624.89706	0.05143
2622.96840	0.05140
2621.03975	0.05115
2619.11110	0.05057
2617.18244	0.05010
2615.25379	0.04984
2613.32514	0.04966
2611.39648	0.04945
2609.46783	0.04913
2607.53918	0.04882
2605.61052	0.04865
2603.68187	0.04851
2601.75322	0.04832
2599.82457	0.04814
2597.89591	0.04797
2595.96726	0.04776
2594.03861	0.04768
2592.10995	0.04777
2590.18130	0.04782
2588.25265	0.04755
2586.32399	0.04690
2584.39534	0.04636
2582.46669	0.04625
2580.53803	0.04612
2578.60938	0.04567
2576.68073	0.04523
2574.75207	0.04507
2572.82342	0.04513
2570.89477	0.04531
2568.96611	0.04530
2567.03746	0.04497
2565.10881	0.04476
2563.18015	0.04483
2561.25150	0.04473
2559.32285	0.04444
2557.39419	0.04435
2555.46554	0.04464
2553.53689	0.04502
2551.60823	0.04495
2549.67958	0.04444
2547.75093	0.04398
2545.82227	0.04389
2543.89362	0.04401
2541.96497	0.04391
2540.03631	0.04367
2538.10766	0.04346
2536.17901	0.04312
2534.25036	0.04277
2532.32170	0.04276
2530.39305	0.04285
2528.46440	0.04264
2526.53574	0.04232
2524.60709	0.04227
2522.67844	0.04230
2520.74978	0.04212
2518.82113	0.04185
2516.89248	0.04175
2514.96382	0.04168
2513.03517	0.04147
2511.10652	0.04145
2509.17786	0.04171
2507.24921	0.04182
2505.32056	0.04154
2503.39190	0.04131
2501.46325	0.04137
2499.53460	0.04119
2497.60594	0.04056
2495.67729	0.04020
2493.74864	0.04063
2491.81998	0.04119
2489.89133	0.04115
2487.96268	0.04090
2486.03402	0.04092
2484.10537	0.04102
2482.17672	0.04111
2480.24806	0.04104
2478.31941	0.04061
2476.39076	0.04031
2474.46210	0.04043
2472.53345	0.04049
2470.60480	0.04035
2468.67615	0.04024
2466.74749	0.04008
2464.81884	0.03992
2462.89019	0.04008
2460.96153	0.04031
2459.03288	0.04019
2457.10423	0.03998
2455.17557	0.03980
2453.24692	0.03939
2451.31827	0.03895
2449.38961	0.03883
2447.46096	0.03886
2445.53231	0.03889
2443.60365	0.03893
2441.67500	0.03885
2439.74635	0.03865
2437.81769	0.03859
2435.88904	0.03869
2433.96039	0.03874
2432.03173	0.03856
2430.10308	0.03827
2428.17443	0.03812
2426.24577	0.03809
2424.31712	0.03820
2422.38847	0.03845
2420.45981	0.03851
2418.53116	0.03841
2416.60251	0.03840
2414.67385	0.03828
2412.74520	0.03811
2410.81655	0.03824
2408.88789	0.03845
2406.95924	0.03853
2405.03059	0.03851
2403.10193	0.03841
2401.17328	0.03834
2399.24463	0.03822
2397.31598	0.03802
2395.38732	0.03804
2393.45867	0.03856
2391.53002	0.03902
2389.60136	0.03897
2387.67271	0.03879
2385.74406	0.03886
2383.81540	0.03900
2381.88675	0.03897
2379.95810	0.03899
2378.02944	0.03927
2376.10079	0.03962
2374.17214	0.03970
2372.24348	0.03943
2370.31483	0.03875
2368.38618	0.03984
2366.45752	0.03994
2364.52887	0.04001
2362.60022	0.03911
2360.67156	0.04018
2358.74291	0.03856
2356.81426	0.04031
2354.88560	0.03968
2352.95695	0.03885
2351.02830	0.03933
2349.09964	0.03935
2347.17099	0.03965
2345.24234	0.04037
2343.31368	0.04009
2341.38503	0.03843
2339.45638	0.03777
2337.52772	0.03809
2335.59907	0.03888
2333.67042	0.03947
2331.74177	0.03942
2329.81311	0.03888
2327.88446	0.03840
2325.95581	0.03800
2324.02715	0.03808
2322.09850	0.03833
2320.16985	0.03847
2318.24119	0.03799
2316.31254	0.03720
2314.38389	0.03642
2312.45523	0.03595
2310.52658	0.03587
2308.59793	0.03584
2306.66927	0.03552
2304.74062	0.03515
2302.81197	0.03488
2300.88331	0.03447
2298.95466	0.03404
2297.02601	0.03366
2295.09735	0.03324
2293.16870	0.03265
2291.24005	0.03218
2289.31139	0.03209
2287.38274	0.03217
2285.45409	0.03202
2283.52543	0.03166
2281.59678	0.03132
2279.66813	0.03089
2277.73947	0.03039
2275.81082	0.03022
2273.88217	0.03020
2271.95351	0.02990
2270.02486	0.02948
2268.09621	0.02918
2266.16755	0.02880
2264.23890	0.02856
2262.31025	0.02891
2260.38160	0.02945
2258.45294	0.02931
2256.52429	0.02860
2254.59564	0.02798
2252.66698	0.02749
2250.73833	0.02700
2248.80968	0.02707
2246.88102	0.02720
2244.95237	0.02714
2243.02372	0.02639
2241.09506	0.02569
2239.16641	0.02566
2237.23776	0.02583
2235.30910	0.02584
2233.38045	0.02589
2231.45180	0.02604
2229.52314	0.02605
2227.59449	0.02563
2225.66584	0.02525
2223.73718	0.02546
2221.80853	0.02530
2219.87988	0.02390
2217.95122	0.02250
2216.02257	0.02205
2214.09392	0.02191
2212.16526	0.02184
2210.23661	0.02162
2208.30796	0.02142
2206.37930	0.02181
2204.45065	0.02198
2202.52200	0.02149
2200.59334	0.02121
2198.66469	0.02113
2196.73604	0.02060
2194.80739	0.01975
2192.87873	0.01935
2190.95008	0.01964
2189.02143	0.02041
2187.09277	0.02133
2185.16412	0.02159
2183.23547	0.02094
2181.30681	0.02034
2179.37816	0.02046
2177.44951	0.02028
2175.52085	0.01862
2173.59220	0.01664
2171.66355	0.01606
2169.73489	0.01631
2167.80624	0.01624
2165.87759	0.01556
2163.94893	0.01458
2162.02028	0.01362
2160.09163	0.01251
2158.16297	0.01243
2156.23432	0.01477
2154.30567	0.01758
2152.37701	0.01849
2150.44836	0.01799
2148.51971	0.01732
2146.59105	0.01718
2144.66240	0.01846
2142.73375	0.02061
2140.80509	0.02222
2138.87644	0.02307
2136.94779	0.02327
2135.01913	0.02316
2133.09048	0.02327
2131.16183	0.02352
2129.23318	0.02360
2127.30452	0.02360
2125.37587	0.02402
2123.44722	0.02479
2121.51856	0.02510
2119.58991	0.02493
2117.66126	0.02483
2115.73260	0.02479
2113.80395	0.02474
2111.87530	0.02478
2109.94664	0.02475
2108.01799	0.02435
2106.08934	0.02389
2104.16068	0.02360
2102.23203	0.02302
2100.30338	0.02225
2098.37472	0.02204
2096.44607	0.02264
2094.51742	0.02330
2092.58876	0.02352
2090.66011	0.02363
2088.73146	0.02372
2086.80280	0.02343
2084.87415	0.02300
2082.94550	0.02265
2081.01684	0.02214
2079.08819	0.02149
2077.15954	0.02103
2075.23088	0.02084
2073.30223	0.02065
2071.37358	0.02044
2069.44492	0.02016
2067.51627	0.01969
2065.58762	0.01931
2063.65896	0.01934
2061.73031	0.01994
2059.80166	0.02089
2057.87301	0.02138
2055.94435	0.02114
2054.01570	0.02056
2052.08705	0.01961
2050.15839	0.01814
2048.22974	0.01667
2046.30109	0.01586
2044.37243	0.01556
2042.44378	0.01526
2040.51513	0.01467
2038.58647	0.01396
2036.65782	0.01358
2034.72917	0.01331
2032.80051	0.01280
2030.87186	0.01251
2028.94321	0.01283
2027.01455	0.01331
2025.08590	0.01302
2023.15725	0.01203
2021.22859	0.01200
2019.29994	0.01327
2017.37129	0.01432
2015.44263	0.01513
2013.51398	0.01609
2011.58533	0.01641
2009.65667	0.01603
2007.72802	0.01557
2005.79937	0.01542
2003.87071	0.01576
2001.94206	0.01635
2000.01341	0.01692
1998.08475	0.01744
1996.15610	0.01747
1994.22745	0.01661
1992.29880	0.01585
1990.37014	0.01588
1988.44149	0.01603
1986.51284	0.01590
1984.58418	0.01575
1982.65553	0.01549
1980.72688	0.01475
1978.79822	0.01358
1976.86957	0.01240
1974.94092	0.01162
1973.01226	0.01153
1971.08361	0.01218
1969.15496	0.01348
1967.22630	0.01517
1965.29765	0.01620
1963.36900	0.01616
1961.44034	0.01615
1959.51169	0.01681
1957.58304	0.01740
1955.65438	0.01739
1953.72573	0.01698
1951.79708	0.01661
1949.86842	0.01659
1947.93977	0.01700
1946.01112	0.01762
1944.08246	0.01807
1942.15381	0.01840
1940.22516	0.01876
1938.29650	0.01883
1936.36785	0.01864
1934.43920	0.01864
1932.51054	0.01867
1930.58189	0.01837
1928.65324	0.01812
1926.72458	0.01828
1924.79593	0.01873
1922.86728	0.01917
1920.93863	0.01949
1919.00997	0.01972
1917.08132	0.01986
1915.15267	0.01981
1913.22401	0.01965
1911.29536	0.01963
1909.36671	0.01963
1907.43805	0.01943
1905.50940	0.01919
1903.58075	0.01917
1901.65209	0.01940
1899.72344	0.01954
1897.79479	0.01940
1895.86613	0.01922
1893.93748	0.01913
1892.00883	0.01920
1890.08017	0.01964
1888.15152	0.02001
1886.22287	0.01987
1884.29421	0.01961
1882.36556	0.01946
1880.43691	0.01928
1878.50825	0.01925
1876.57960	0.01947
1874.65095	0.01968
1872.72229	0.01970
1870.79364	0.01961
1868.86499	0.01949
1866.93633	0.01935
1865.00768	0.01928
1863.07903	0.01925
1861.15037	0.01923
1859.22172	0.01928
1857.29307	0.01939
1855.36442	0.01947
1853.43576	0.01942
1851.50711	0.01921
1849.57846	0.01902
1847.64980	0.01895
1845.72115	0.01903
1843.79250	0.01914
1841.86384	0.01912
1839.93519	0.01903
1838.00654	0.01893
1836.07788	0.01890
1834.14923	0.01889
1832.22058	0.01888
1830.29192	0.01887
1828.36327	0.01886
1826.43462	0.01890
1824.50596	0.01885
1822.57731	0.01866
1820.64866	0.01855
1818.72000	0.01862
1816.79135	0.01884
1814.86270	0.01899
1812.93404	0.01895
1811.00539	0.01877
1809.07674	0.01859
1807.14808	0.01849
1805.21943	0.01850
1803.29078	0.01853
1801.36212	0.01850
1799.43347	0.01842
1797.50482	0.01835
1795.57616	0.01829
1793.64751	0.01828
1791.71886	0.01827
1789.79021	0.01819
1787.86155	0.01812
1785.93290	0.01809
1784.00425	0.01803
1782.07559	0.01797
1780.14694	0.01793
1778.21829	0.01783
1776.28963	0.01767
1774.36098	0.01767
1772.43233	0.01784
1770.50367	0.01790
1768.57502	0.01790
1766.64637	0.01776
1764.71771	0.01765
1762.78906	0.01779
1760.86041	0.01790
1758.93175	0.01793
1757.00310	0.01806
1755.07445	0.01825
1753.14579	0.01851
1751.21714	0.01878
1749.28849	0.01901
1747.35983	0.01933
1745.43118	0.01966
1743.50253	0.01994
1741.57387	0.02022
1739.64522	0.02048
1737.71657	0.02064
1735.78791	0.02107
1733.85926	0.02159
1731.93061	0.02176
1730.00195	0.02198
1728.07330	0.02243
1726.14465	0.02297
1724.21599	0.02340
1722.28734	0.02359
1720.35869	0.02376
1718.43004	0.02428
1716.50138	0.02497
1714.57273	0.02574
1712.64408	0.02667
1710.71542	0.02774
1708.78677	0.02902
1706.85812	0.03072
1704.92946	0.03281
1703.00081	0.03525
1701.07216	0.03819
1699.14350	0.04120
1697.21485	0.04450
1695.28620	0.04807
1693.35754	0.05134
1691.42889	0.05464
1689.50024	0.05800
1687.57158	0.06147
1685.64293	0.06535
1683.71428	0.06932
1681.78562	0.07334
1679.85697	0.07789
1677.92832	0.08279
1675.99966	0.08795
1674.07101	0.09319
1672.14236	0.09859
1670.21370	0.10423
1668.28505	0.10978
1666.35640	0.11518
1664.42774	0.12058
1662.49909	0.12576
1660.57044	0.13052
1658.64178	0.13482
1656.71313	0.13855
1654.78448	0.14207
1652.85583	0.14525
1650.92717	0.14751
1648.99852	0.14956
1647.06987	0.15172
1645.14121	0.15361
1643.21256	0.15528
1641.28391	0.15688
1639.35525	0.15830
1637.42660	0.15967
1635.49795	0.16086
1633.56929	0.16145
1631.64064	0.16148
1629.71199	0.16085
1627.78333	0.15924
1625.85468	0.15658
1623.92603	0.15300
1621.99737	0.14855
1620.06872	0.14355
1618.14007	0.13846
1616.21141	0.13320
1614.28276	0.12781
1612.35411	0.12258
1610.42545	0.11748
1608.49680	0.11256
1606.56815	0.10795
1604.63949	0.10362
1602.71084	0.09958
1600.78219	0.09591
1598.85353	0.09262
1596.92488	0.08971
1594.99623	0.08721
1593.06757	0.08518
1591.13892	0.08363
1589.21027	0.08248
1587.28161	0.08164
1585.35296	0.08114
1583.42431	0.08104
1581.49566	0.08134
1579.56700	0.08202
1577.63835	0.08324
1575.70970	0.08490
1573.78104	0.08681
1571.85239	0.08928
1569.92374	0.09223
1567.99508	0.09532
1566.06643	0.09857
1564.13778	0.10191
1562.20912	0.10529
1560.28047	0.10892
1558.35182	0.11238
1556.42316	0.11542
1554.49451	0.11827
1552.56586	0.12062
1550.63720	0.12249
1548.70855	0.12401
1546.77990	0.12526
1544.85124	0.12620
1542.92259	0.12673
1540.99394	0.12703
1539.06528	0.12707
1537.13663	0.12676
1535.20798	0.12638
1533.27932	0.12578
1531.35067	0.12480
1529.42202	0.12378
1527.49336	0.12277
1525.56471	0.12153
1523.63606	0.12001
1521.70740	0.11841
1519.77875	0.11670
1517.85010	0.11504
1515.92145	0.11321
1513.99279	0.11092
1512.06414	0.10820
1510.13549	0.10518
1508.20683	0.10216
1506.27818	0.09903
1504.34953	0.09556
1502.42087	0.09217
1500.49222	0.08898
1498.56357	0.08588
1496.63491	0.08282
1494.70626	0.07967
1492.77761	0.07665
1490.84895	0.07400
1488.92030	0.07165
1486.99165	0.06969
1485.06299	0.06823
1483.13434	0.06724
1481.20569	0.06665
1479.27703	0.06655
1477.34838	0.06700
1475.41973	0.06785
1473.49107	0.06906
1471.56242	0.07051
1469.63377	0.07217
1467.70511	0.07406
1465.77646	0.07603
1463.84781	0.07788
1461.91915	0.07965
1459.99050	0.08157
1458.06185	0.08371
1456.13319	0.08557
1454.20454	0.08685
1452.27589	0.08776
1450.34724	0.08821
1448.41858	0.08815
1446.48993	0.08764
1444.56128	0.08679
1442.63262	0.08576
1440.70397	0.08464
1438.77532	0.08345
1436.84666	0.08196
1434.91801	0.07997
1432.98936	0.07797
1431.06070	0.07634
1429.13205	0.07507
1427.20340	0.07422
1425.27474	0.07371
1423.34609	0.07326
1421.41744	0.07294
1419.48878	0.07292
1417.56013	0.07296
1415.63148	0.07303
1413.70282	0.07316
1411.77417	0.07338
1409.84552	0.07379
1407.91686	0.07438
1405.98821	0.07497
1404.05956	0.07534
1402.13090	0.07546
1400.20225	0.07548
1398.27360	0.07540
1396.34494	0.07522
1394.41629	0.07493
1392.48764	0.07455
1390.55898	0.07425
1388.63033	0.07403
1386.70168	0.07372
1384.77302	0.07330
1382.84437	0.07288
1380.91572	0.07245
1378.98707	0.07197
1377.05841	0.07132
1375.12976	0.07050
1373.20111	0.06956
1371.27245	0.06851
1369.34380	0.06739
1367.41515	0.06619
1365.48649	0.06496
1363.55784	0.06383
1361.62919	0.06288
1359.70053	0.06220
1357.77188	0.06187
1355.84323	0.06189
1353.91457	0.06211
1351.98592	0.06250
1350.05727	0.06315
1348.12861	0.06413
1346.19996	0.06524
1344.27131	0.06627
1342.34265	0.06725
1340.41400	0.06813
1338.48535	0.06874
1336.55669	0.06897
1334.62804	0.06879
1332.69939	0.06818
1330.77073	0.06729
1328.84208	0.06631
1326.91343	0.06540
1324.98477	0.06460
1323.05612	0.06394
1321.12747	0.06346
1319.19881	0.06314
1317.27016	0.06288
1315.34151	0.06260
1313.41286	0.06220
1311.48420	0.06170
1309.55555	0.06123
1307.62690	0.06083
1305.69824	0.06048
1303.76959	0.06015
1301.84094	0.05982
1299.91228	0.05948
1297.98363	0.05925
1296.05498	0.05925
1294.12632	0.05949
1292.19767	0.05995
1290.26902	0.06061
1288.34036	0.06140
1286.41171	0.06217
1284.48306	0.06289
1282.55440	0.06347
1280.62575	0.06385
1278.69710	0.06401
1276.76844	0.06406
1274.83979	0.06409
1272.91114	0.06413
1270.98248	0.06426
1269.05383	0.06455
1267.12518	0.06498
1265.19652	0.06549
1263.26787	0.06601
1261.33922	0.06657
1259.41056	0.06730
1257.48191	0.06827
1255.55326	0.06939
1253.62460	0.07050
1251.69595	0.07159
1249.76730	0.07280
1247.83864	0.07420
1245.90999	0.07565
1243.98134	0.07696
1242.05269	0.07814
1240.12403	0.07920
1238.19538	0.07999
1236.26673	0.08044
1234.33807	0.08051
1232.40942	0.08012
1230.48077	0.07926
1228.55211	0.07813
1226.62346	0.07676
1224.69481	0.07507
1222.76615	0.07319
1220.83750	0.07139
1218.90885	0.06987
1216.98019	0.06867
1215.05154	0.06780
1213.12289	0.06727
1211.19423	0.06711
1209.26558	0.06731
1207.33693	0.06770
1205.40827	0.06808
1203.47962	0.06822
1201.55097	0.06800
1199.62231	0.06742
1197.69366	0.06634
1195.76501	0.06501
1193.83635	0.06368
1191.90770	0.06242
1189.97905	0.06116
1188.05039	0.05992
1186.12174	0.05890
1184.19309	0.05817
1182.26443	0.05762
1180.33578	0.05716
1178.40713	0.05676
1176.47848	0.05639
1174.54982	0.05612
1172.62117	0.05593
1170.69252	0.05575
1168.76386	0.05562
1166.83521	0.05560
1164.90656	0.05563
1162.97790	0.05565
1161.04925	0.05552
1159.12060	0.05502
1157.19194	0.05423
1155.26329	0.05345
1153.33464	0.05267
1151.40598	0.05167
1149.47733	0.05055
1147.54868	0.04957
1145.62002	0.04883
1143.69137	0.04821
1141.76272	0.04763
1139.83406	0.04707
1137.90541	0.04651
1135.97676	0.04604
1134.04810	0.04571
1132.11945	0.04554
1130.19080	0.04546
1128.26214	0.04539
1126.33349	0.04531
1124.40484	0.04520
1122.47618	0.04497
1120.54753	0.04463
1118.61888	0.04438
1116.69022	0.04440
1114.76157	0.04452
1112.83292	0.04453
1110.90427	0.04465
1108.97561	0.04503
1107.04696	0.04544
1105.11831	0.04575
1103.18965	0.04610
1101.26100	0.04654
1099.33235	0.04703
1097.40369	0.04753
1095.47504	0.04800
1093.54639	0.04859
1091.61773	0.04956
1089.68908	0.05074
1087.76043	0.05186
1085.83177	0.05295
1083.90312	0.05402
1081.97447	0.05488
1080.04581	0.05533
1078.11716	0.05537
1076.18851	0.05510
1074.25985	0.05458
1072.33120	0.05400
1070.40255	0.05361
1068.47389	0.05348
1066.54524	0.05350
1064.61659	0.05353
1062.68793	0.05350
1060.75928	0.05339
1058.83063	0.05312
1056.90197	0.05267
1054.97332	0.05216
1053.04467	0.05168
1051.11601	0.05124
1049.18736	0.05081
1047.25871	0.05037
1045.33005	0.05002
1043.40140	0.04983
1041.47275	0.04983
1039.54410	0.05004
1037.61544	0.05044
1035.68679	0.05088
1033.75814	0.05120
1031.82948	0.05127
1029.90083	0.05099
1027.97218	0.05042
1026.04352	0.04969
1024.11487	0.04883
1022.18622	0.04789
1020.25756	0.04706
1018.32891	0.04643
1016.40026	0.04591
1014.47160	0.04540
1012.54295	0.04484
1010.61430	0.04420
1008.68564	0.04344
1006.75699	0.04264
1004.82834	0.04196
1002.89968	0.04144
1000.97103	0.04095
999.04238	0.04036
997.11372	0.03979
995.18507	0.03935
993.25642	0.03889
991.32776	0.03832
989.39911	0.03782
987.47046	0.03750
985.54180	0.03733
983.61315	0.03719
981.68450	0.03710
979.75584	0.03712
977.82719	0.03718
975.89854	0.03723
973.96989	0.03730
972.04123	0.03725
970.11258	0.03696
968.18393	0.03653
966.25527	0.03612
964.32662	0.03578
962.39797	0.03551
960.46931	0.03532
958.54066	0.03513
956.61201	0.03483
954.68335	0.03446
952.75470	0.03417
950.82605	0.03404
948.89739	0.03409
946.96874	0.03422
945.04009	0.03427
943.11143	0.03430
941.18278	0.03446
939.25413	0.03452
937.32547	0.03432
935.39682	0.03409
933.46817	0.03401
931.53951	0.03394
929.61086	0.03379
927.68221	0.03358
925.75355	0.03347
923.82490	0.03358
921.89625	0.03374
919.96759	0.03359
918.03894	0.03315
916.11029	0.03281
914.18163	0.03282
912.25298	0.03292
910.32433	0.03276
908.39567	0.03236
906.46702	0.03205
904.53837	0.03191
902.60972	0.03174
900.68106	0.03152
898.75241	0.03144
896.82376	0.03155
894.89510	0.03163
892.96645	0.03159
891.03780	0.03147
889.10914	0.03118
887.18049	0.03077
885.25184	0.03052
883.32318	0.03062
881.39453	0.03103
879.46588	0.03141
877.53722	0.03150
875.60857	0.03141
873.67992	0.03133
871.75126	0.03124
869.82261	0.03105
867.89396	0.03076
865.96530	0.03057
864.03665	0.03065
862.10800	0.03075
860.17934	0.03057
858.25069	0.03034
856.32204	0.03035
854.39338	0.03046
852.46473	0.03048
850.53608	0.03045
848.60742	0.03046
846.67877	0.03055
844.75012	0.03062
842.82146	0.03053
840.89281	0.03034
838.96416	0.03019
837.03551	0.03015
835.10685	0.03022
833.17820	0.03026
831.24955	0.03030
829.32089	0.03032
827.39224	0.03029
825.46359	0.03043
823.53493	0.03082
821.60628	0.03122
819.67763	0.03151
817.74897	0.03179
815.82032	0.03213
813.89167	0.03230
811.96301	0.03215
810.03436	0.03198
808.10571	0.03210
806.17705	0.03245
804.24840	0.03268
802.31975	0.03275
800.39109	0.03284
798.46244	0.03304
796.53379	0.03322
794.60513	0.03337
792.67648	0.03372
790.74783	0.03420
788.81917	0.03453
786.89052	0.03465
784.96187	0.03479
783.03321	0.03503
781.10456	0.03531
779.17591	0.03547
777.24725	0.03557
775.31860	0.03585
773.38995	0.03629
771.46130	0.03667
769.53264	0.03691
767.60399	0.03699
765.67534	0.03702
763.74668	0.03719
761.81803	0.03745
759.88938	0.03772
757.96072	0.03806
756.03207	0.03853
754.10342	0.03899
752.17476	0.03928
750.24611	0.03950
748.31746	0.03969
746.38880	0.03983
744.46015	0.04006
742.53150	0.04044
740.60284	0.04080
738.67419	0.04092
736.74554	0.04094
734.81688	0.04110
732.88823	0.04149
730.95958	0.04208
729.03092	0.04264
727.10227	0.04293
725.17362	0.04308
723.24496	0.04318
721.31631	0.04377
719.38766	0.04425
717.45900	0.04455
715.53035	0.04475
713.60170	0.04492
711.67304	0.04518
709.74439	0.04549
707.81574	0.04577
705.88708	0.04606
703.95843	0.04644
702.02978	0.04677
700.10113	0.04691
698.17247	0.04698
696.24382	0.04717
694.31517	0.04740
692.38651	0.04754
690.45786	0.04762
688.52921	0.04779
686.60055	0.04803
684.67190	0.04825
682.74325	0.04847
680.81459	0.04870
678.88594	0.04890
676.95729	0.04906
675.02863	0.04931
673.09998	0.04967
671.17133	0.05005
669.24267	0.05026
667.31402	0.05018
665.38537	0.05030
663.45671	0.05058
661.52806	0.05075
659.59941	0.05067
657.67075	0.05069
655.74210	0.05108
653.81345	0.05150
651.88479	0.05151
649.95614	0.05132
648.02749	0.05148
646.09883	0.05198
644.17018	0.05228
642.24153	0.05206
640.31287	0.05172
638.38422	0.05181
636.45557	0.05221
634.52692	0.05245
632.59826	0.05230
630.66961	0.05225
628.74096	0.05318
626.81230	0.05235
624.88365	0.05149
622.95500	0.05059
621.02634	0.04914
619.09769	0.04988
617.16904	0.05405
615.24038	0.05705
613.31173	0.05496
611.38308	0.05109
609.45442	0.05122
607.52577	0.05416
605.59712	0.05485
603.66846	0.05304
601.73981	0.05192
599.81116	0.05247
597.88250	0.05329
595.95385	0.05334
594.02520	0.05285
592.09654	0.05260
590.16789	0.05269
588.23924	0.05277
586.31058	0.05280
584.38193	0.05287
582.45328	0.05280
580.52462	0.05258
578.59597	0.05256
576.66732	0.05283
574.73866	0.05307
572.81001	0.05301
570.88136	0.05285
568.95270	0.05305
567.02405	0.05358
565.09540	0.05379
563.16675	0.05356
561.23809	0.05354
559.30944	0.05395
557.38079	0.05424
555.45213	0.05399
553.52348	0.05345
551.59483	0.05310
549.66617	0.05306
547.73752	0.05307
545.80887	0.05279
543.88021	0.05225
541.95156	0.05198
540.02291	0.05228
538.09425	0.05278
536.16560	0.05293
534.23695	0.05262
532.30829	0.05217
530.37964	0.05184
528.45099	0.05177
526.52233	0.05172
524.59368	0.05140
522.66503	0.05103
520.73637	0.05100
518.80772	0.05104
516.87907	0.05061
514.95041	0.04992
513.02176	0.04956
511.09311	0.04959
509.16445	0.04961
507.23580	0.04925
505.30715	0.04862
503.37849	0.04828
501.44984	0.04836
499.52119	0.04831
497.59254	0.04783
495.66388	0.04733
493.73523	0.04701
491.80658	0.04663
489.87792	0.04625
487.94927	0.04606
486.02062	0.04591
484.09196	0.04556
482.16331	0.04509
480.23466	0.04470
478.30600	0.04441
476.37735	0.04425
474.44870	0.04414
472.52004	0.04385
470.59139	0.04340
468.66274	0.04297
466.73408	0.04263
464.80543	0.04228
462.87678	0.04188
460.94812	0.04149
459.01947	0.04110
457.09082	0.04068
455.16216	0.04020
453.23351	0.03970
451.30486	0.03929
449.37620	0.03908
447.44755	0.03888
445.51890	0.03854
443.59024	0.03823
441.66159	0.03801
439.73294	0.03782
437.80428	0.03762
435.87563	0.03737
433.94698	0.03709
432.01833	0.03686
430.08967	0.03662
428.16102	0.03634
426.23237	0.03607
424.30371	0.03585
422.37506	0.03559
420.44641	0.03522
418.51775	0.03477
416.58910	0.03443
414.66045	0.03434
412.73179	0.03426
410.80314	0.03401
408.87449	0.03371
406.94583	0.03357
405.01718	0.03357
403.08853	0.03347
401.15987	0.03325
399.23122	0.03300
