3996.16951	0.06485
3994.24086	0.06521
3992.31220	0.06615
3990.38355	0.06671
3988.45490	0.06633
3986.52624	0.06572
3984.59759	0.06545
3982.66894	0.06565
3980.74028	0.06579
3978.81163	0.06525
3976.88298	0.06457
3974.95432	0.06448
3973.02567	0.06469
3971.09702	0.06477
3969.16836	0.06478
3967.23971	0.06499
3965.31106	0.06514
3963.38240	0.06482
3961.45375	0.06441
3959.52510	0.06435
3957.59645	0.06438
3955.66779	0.06418
3953.73914	0.06391
3951.81049	0.06365
3949.88183	0.06340
3947.95318	0.06300
3946.02453	0.06265
3944.09587	0.06294
3942.16722	0.06352
3940.23857	0.06383
3938.30991	0.06397
3936.38126	0.06379
3934.45261	0.06335
3932.52395	0.06298
3930.59530	0.06277
3928.66665	0.06250
3926.73799	0.06179
3924.80934	0.06099
3922.88069	0.06082
3920.95203	0.06145
3919.02338	0.06222
3917.09473	0.06287
3915.16607	0.06298
3913.23742	0.06260
3911.30877	0.06209
3909.38011	0.06182
3907.45146	0.06177
3905.52281	0.06158
3903.59415	0.06123
3901.66550	0.06139
3899.73685	0.06212
3897.80819	0.06221
3895.87954	0.06169
3893.95089	0.06152
3892.02224	0.06184
3890.09358	0.06135
3888.16493	0.06068
3886.23628	0.06100
3884.30762	0.06088
3882.37897	0.06099
3880.45032	0.06152
3878.52166	0.06136
3876.59301	0.06150
3874.66436	0.06172
3872.73570	0.06100
3870.80705	0.06057
3868.87840	0.05996
3866.94974	0.05995
3865.02109	0.06069
3863.09244	0.06052
3861.16378	0.06058
3859.23513	0.06065
3857.30648	0.06009
3855.37782	0.06044
3853.44917	0.06072
3851.52052	0.05972
3849.59186	0.05941
3847.66321	0.05955
3845.73456	0.05959
3843.80590	0.05981
3841.87725	0.05975
3839.94860	0.05969
3838.01994	0.05971
3836.09129	0.05901
3834.16264	0.05859
3832.23398	0.05846
3830.30533	0.05842
3828.37668	0.05894
3826.44803	0.05913
3824.51937	0.05845
3822.59072	0.05862
3820.66207	0.05846
3818.73341	0.05758
3816.80476	0.05801
3814.87611	0.05757
3812.94745	0.05709
3811.01880	0.05789
3809.09015	0.05879
3807.16149	0.05908
3805.23284	0.05780
3803.30419	0.05757
3801.37553	0.05827
3799.44688	0.05755
3797.51823	0.05759
3795.58957	0.05777
3793.66092	0.05740
3791.73227	0.05731
3789.80361	0.05716
3787.87496	0.05689
3785.94631	0.05679
3784.01765	0.05673
3782.08900	0.05681
3780.16035	0.05726
3778.23169	0.05730
3776.30304	0.05695
3774.37439	0.05651
3772.44573	0.05598
3770.51708	0.05576
3768.58843	0.05548
3766.65977	0.05574
3764.73112	0.05602
3762.80247	0.05563
3760.87381	0.05564
3758.94516	0.05585
3757.01651	0.05572
3755.08786	0.05547
3753.15920	0.05579
3751.23055	0.05536
3749.30190	0.05397
3747.37324	0.05314
3745.44459	0.05507
3743.51594	0.05551
3741.58728	0.05417
3739.65863	0.05424
3737.72998	0.05451
3735.80132	0.05429
3733.87267	0.05392
3731.94402	0.05421
3730.01536	0.05403
3728.08671	0.05382
3726.15806	0.05334
3724.22940	0.05241
3722.30075	0.05187
3720.37210	0.05183
3718.44344	0.05220
3716.51479	0.05255
3714.58614	0.05261
3712.65748	0.05246
3710.72883	0.05187
3708.80018	0.05179
3706.87152	0.05220
3704.94287	0.05234
3703.01422	0.05232
3701.08556	0.05203
3699.15691	0.05166
3697.22826	0.05175
3695.29960	0.05156
3693.37095	0.05110
3691.44230	0.05133
3689.51365	0.05279
3687.58499	0.05351
3685.65634	0.05267
3683.72769	0.05207
3681.79903	0.05182
3679.87038	0.05154
3677.94173	0.05150
3676.01307	0.05221
3674.08442	0.05158
3672.15577	0.05144
3670.22711	0.05238
3668.29846	0.05265
3666.36981	0.05331
3664.44115	0.05391
3662.51250	0.05397
3660.58385	0.05367
3658.65519	0.05338
3656.72654	0.05350
3654.79789	0.05327
3652.86923	0.05366
3650.94058	0.05515
3649.01193	0.05593
3647.08327	0.05554
3645.15462	0.05522
3643.22597	0.05591
3641.29731	0.05730
3639.36866	0.05817
3637.44001	0.05821
3635.51135	0.05854
3633.58270	0.05934
3631.65405	0.06018
3629.72539	0.06147
3627.79674	0.06212
3625.86809	0.06251
3623.93943	0.06319
3622.01078	0.06331
3620.08213	0.06375
3618.15348	0.06429
3616.22482	0.06491
3614.29617	0.06597
3612.36752	0.06659
3610.43886	0.06698
3608.51021	0.06784
3606.58156	0.06878
3604.65290	0.06951
3602.72425	0.06992
3600.79560	0.07041
3598.86694	0.07123
3596.93829	0.07216
3595.00964	0.07263
3593.08098	0.07255
3591.15233	0.07299
3589.22368	0.07468
3587.29502	0.07645
3585.36637	0.07719
3583.43772	0.07739
3581.50906	0.07775
3579.58041	0.07846
3577.65176	0.07934
3575.72310	0.08033
3573.79445	0.08154
3571.86580	0.08269
3569.93714	0.08374
3568.00849	0.08484
3566.07984	0.08553
3564.15118	0.08621
3562.22253	0.08730
3560.29388	0.08834
3558.36522	0.08908
3556.43657	0.08979
3554.50792	0.09077
3552.57927	0.09190
3550.65061	0.09286
3548.72196	0.09392
3546.79331	0.09517
3544.86465	0.09599
3542.93600	0.09649
3541.00735	0.09750
3539.07869	0.09891
3537.15004	0.09970
3535.22139	0.09996
3533.29273	0.10074
3531.36408	0.10208
3529.43543	0.10319
3527.50677	0.10373
3525.57812	0.10426
3523.64947	0.10530
3521.72081	0.10640
3519.79216	0.10713
3517.86351	0.10786
3515.93485	0.10889
3514.00620	0.10992
3512.07755	0.11062
3510.14889	0.11120
3508.22024	0.11184
3506.29159	0.11261
3504.36293	0.11344
3502.43428	0.11408
3500.50563	0.11483
3498.57697	0.11586
3496.64832	0.11671
3494.71967	0.11736
3492.79101	0.11849
3490.86236	0.11989
3488.93371	0.12057
3487.00506	0.12045
3485.07640	0.12058
3483.14775	0.12142
3481.21910	0.12231
3479.29044	0.12281
3477.36179	0.12345
3475.43314	0.12448
3473.50448	0.12528
3471.57583	0.12586
3469.64718	0.12677
3467.71852	0.12774
3465.78987	0.12824
3463.86122	0.12863
3461.93256	0.12915
3460.00391	0.12956
3458.07526	0.12991
3456.14660	0.13061
3454.21795	0.13165
3452.28930	0.13271
3450.36064	0.13363
3448.43199	0.13440
3446.50334	0.13485
3444.57468	0.13497
3442.64603	0.13532
3440.71738	0.13618
3438.78872	0.13722
3436.86007	0.13793
3434.93142	0.13826
3433.00276	0.13861
3431.07411	0.13922
3429.14546	0.14003
3427.21680	0.14094
3425.28815	0.14191
3423.35950	0.14269
3421.43084	0.14316
3419.50219	0.14366
3417.57354	0.14443
3415.64489	0.14535
3413.71623	0.14630
3411.78758	0.14718
3409.85893	0.14786
3407.93027	0.14837
3406.00162	0.14886
3404.07297	0.14936
3402.14431	0.14984
3400.21566	0.15040
3398.28701	0.15107
3396.35835	0.15164
3394.42970	0.15219
3392.50105	0.15299
3390.57239	0.15392
3388.64374	0.15458
3386.71509	0.15488
3384.78643	0.15531
3382.85778	0.15628
3380.92913	0.15732
3379.00047	0.15794
3377.07182	0.15868
3375.14317	0.15989
3373.21451	0.16127
3371.28586	0.16269
3369.35721	0.16383
3367.42855	0.16441
3365.49990	0.16499
3363.57125	0.16616
3361.64259	0.16760
3359.71394	0.16899
3357.78529	0.17052
3355.85663	0.17212
3353.92798	0.17354
3351.99933	0.17489
3350.07068	0.17632
3348.14202	0.17763
3346.21337	0.17852
3344.28472	0.17943
3342.35606	0.18099
3340.42741	0.18280
3338.49876	0.18429
3336.57010	0.18563
3334.64145	0.18713
3332.71280	0.18858
3330.78414	0.18966
3328.85549	0.19042
3326.92684	0.19106
3324.99818	0.19193
3323.06953	0.19332
3321.14088	0.19474
3319.21222	0.19549
3317.28357	0.19587
3315.35492	0.19650
3313.42626	0.19725
3311.49761	0.19770
3309.56896	0.19792
3307.64030	0.19840
3305.71165	0.19930
3303.78300	0.20009
3301.85434	0.20026
3299.92569	0.20005
3297.99704	0.19992
3296.06838	0.20007
3294.13973	0.20035
3292.21108	0.20059
3290.28242	0.20079
3288.35377	0.20106
3286.42512	0.20133
3284.49646	0.20131
3282.56781	0.20092
3280.63916	0.20043
3278.71051	0.20012
3276.78185	0.19982
3274.85320	0.19910
3272.92455	0.19799
3270.99589	0.19703
3269.06724	0.19647
3267.13859	0.19585
3265.20993	0.19485
3263.28128	0.19401
3261.35263	0.19361
3259.42397	0.19303
3257.49532	0.19194
3255.56667	0.19083
3253.63801	0.18993
3251.70936	0.18901
3249.78071	0.18817
3247.85205	0.18754
3245.92340	0.18696
3243.99475	0.18622
3242.06609	0.18537
3240.13744	0.18456
3238.20879	0.18377
3236.28013	0.18314
3234.35148	0.18283
3232.42283	0.18248
3230.49417	0.18178
3228.56552	0.18089
3226.63687	0.18021
3224.70821	0.17986
3222.77956	0.17952
3220.85091	0.17907
3218.92225	0.17873
3216.99360	0.17831
3215.06495	0.17761
3213.13630	0.17681
3211.20764	0.17600
3209.27899	0.17515
3207.35034	0.17431
3205.42168	0.17351
3203.49303	0.17287
3201.56438	0.17248
3199.63572	0.17205
3197.70707	0.17133
3195.77842	0.17051
3193.84976	0.16967
3191.92111	0.16857
3189.99246	0.16749
3188.06380	0.16671
3186.13515	0.16599
3184.20650	0.16506
3182.27784	0.16397
3180.34919	0.16277
3178.42054	0.16156
3176.49188	0.16042
3174.56323	0.15938
3172.63458	0.15828
3170.70592	0.15717
3168.77727	0.15621
3166.84862	0.15518
3164.91996	0.15391
3162.99131	0.15263
3161.06266	0.15157
3159.13400	0.15064
3157.20535	0.14981
3155.27670	0.14900
3153.34804	0.14799
3151.41939	0.14684
3149.49074	0.14580
3147.56209	0.14503
3145.63343	0.14435
3143.70478	0.14339
3141.77613	0.14213
3139.84747	0.14102
3137.91882	0.14033
3135.99017	0.13982
3134.06151	0.13920
3132.13286	0.13848
3130.20421	0.13771
3128.27555	0.13701
3126.34690	0.13656
3124.41825	0.13638
3122.48959	0.13614
3120.56094	0.13561
3118.63229	0.13507
3116.70363	0.13488
3114.77498	0.13488
3112.84633	0.13474
3110.91767	0.13441
3108.98902	0.13401
3107.06037	0.13384
3105.13171	0.13403
3103.20306	0.13431
3101.27441	0.13456
3099.34575	0.13489
3097.41710	0.13531
3095.48845	0.13575
3093.55979	0.13619
3091.63114	0.13667
3089.70249	0.13708
3087.77383	0.13735
3085.84518	0.13766
3083.91653	0.13807
3081.98787	0.13843
3080.05922	0.13871
3078.13057	0.13905
3076.20192	0.13924
3074.27326	0.13894
3072.34461	0.13849
3070.41596	0.13844
3068.48730	0.13841
3066.55865	0.13790
3064.63000	0.13729
3062.70134	0.13692
3060.77269	0.13654
3058.84404	0.13599
3056.91538	0.13527
3054.98673	0.13431
3053.05808	0.13327
3051.12942	0.13244
3049.20077	0.13177
3047.27212	0.13106
3045.34346	0.13029
3043.41481	0.12942
3041.48616	0.12829
3039.55750	0.12693
3037.62885	0.12566
3035.70020	0.12461
3033.77154	0.12375
3031.84289	0.12315
3029.91424	0.12264
3027.98558	0.12193
3026.05693	0.12100
3024.12828	0.11989
3022.19962	0.11881
3020.27097	0.11795
3018.34232	0.11728
3016.41366	0.11679
3014.48501	0.11657
3012.55636	0.11644
3010.62771	0.11619
3008.69905	0.11580
3006.77040	0.11537
3004.84175	0.11506
3002.91309	0.11485
3000.98444	0.11465
2999.05579	0.11465
2997.12713	0.11500
2995.19848	0.11550
2993.26983	0.11603
2991.34117	0.11663
2989.41252	0.11722
2987.48387	0.11765
2985.55521	0.11806
2983.62656	0.11871
2981.69791	0.11948
2979.76925	0.12020
2977.84060	0.12082
2975.91195	0.12126
2973.98329	0.12160
2972.05464	0.12191
2970.12599	0.12221
2968.19733	0.12268
2966.26868	0.12358
2964.34003	0.12465
2962.41137	0.12539
2960.48272	0.12578
2958.55407	0.12609
2956.62541	0.12640
2954.69676	0.12657
2952.76811	0.12659
2950.83945	0.12658
2948.91080	0.12650
2946.98215	0.12640
2945.05349	0.12641
2943.12484	0.12650
2941.19619	0.12675
2939.26754	0.12721
2937.33888	0.12751
2935.41023	0.12728
2933.48158	0.12681
2931.55292	0.12658
2929.62427	0.12643
2927.69562	0.12609
2925.76696	0.12555
2923.83831	0.12494
2921.90966	0.12443
2919.98100	0.12388
2918.05235	0.12293
2916.12370	0.12171
2914.19504	0.12060
2912.26639	0.11954
2910.33774	0.11825
2908.40908	0.11696
2906.48043	0.11601
2904.55178	0.11524
2902.62312	0.11442
2900.69447	0.11349
2898.76582	0.11265
2896.83716	0.11210
2894.90851	0.11172
2892.97986	0.11147
2891.05120	0.11128
2889.12255	0.11107
2887.19390	0.11090
2885.26524	0.11092
2883.33659	0.11113
2881.40794	0.11135
2879.47928	0.11133
2877.55063	0.11121
2875.62198	0.11112
2873.69333	0.11073
2871.76467	0.11013
2869.83602	0.10958
2867.90737	0.10888
2865.97871	0.10795
2864.05006	0.10693
2862.12141	0.10584
2860.19275	0.10479
2858.26410	0.10388
2856.33545	0.10298
2854.40679	0.10197
2852.47814	0.10101
2850.54949	0.10033
2848.62083	0.09987
2846.69218	0.09938
2844.76353	0.09877
2842.83487	0.09822
2840.90622	0.09785
2838.97757	0.09753
2837.04891	0.09703
2835.12026	0.09627
2833.19161	0.09555
2831.26295	0.09505
2829.33430	0.09478
2827.40565	0.09461
2825.47699	0.09432
2823.54834	0.09378
2821.61969	0.09322
2819.69103	0.09290
2817.76238	0.09270
2815.83373	0.09248
2813.90507	0.09207
2811.97642	0.09147
2810.04777	0.09094
2808.11912	0.09056
2806.19046	0.09030
2804.26181	0.09004
2802.33316	0.08960
2800.40450	0.08925
2798.47585	0.08911
2796.54720	0.08887
2794.61854	0.08850
2792.68989	0.08817
2790.76124	0.08796
2788.83258	0.08777
2786.90393	0.08737
2784.97528	0.08689
2783.04662	0.08662
2781.11797	0.08656
2779.18932	0.08650
2777.26066	0.08621
2775.33201	0.08576
2773.40336	0.08534
2771.47470	0.08495
2769.54605	0.08452
2767.61740	0.08406
2765.68874	0.08369
2763.76009	0.08345
2761.83144	0.08324
2759.90278	0.08313
2757.97413	0.08308
2756.04548	0.08281
2754.11682	0.08231
2752.18817	0.08180
2750.25952	0.08147
2748.33086	0.08132
2746.40221	0.08112
2744.47356	0.08075
2742.54490	0.08043
2740.61625	0.08025
2738.68760	0.08008
2736.75895	0.07982
2734.83029	0.07957
2732.90164	0.07946
2730.97299	0.07939
2729.04433	0.07906
2727.11568	0.07851
2725.18703	0.07813
2723.25837	0.07798
2721.32972	0.07786
2719.40107	0.07766
2717.47241	0.07740
2715.54376	0.07706
2713.61511	0.07670
2711.68645	0.07648
2709.75780	0.07641
2707.82915	0.07619
2705.90049	0.07580
2703.97184	0.07566
2702.04319	0.07568
2700.11453	0.07540
2698.18588	0.07494
2696.25723	0.07468
2694.32857	0.07468
2692.39992	0.07475
2690.47127	0.07472
2688.54261	0.07455
2686.61396	0.07419
2684.68531	0.07378
2682.75665	0.07358
2680.82800	0.07357
2678.89935	0.07353
2676.97069	0.07331
2675.04204	0.07298
2673.11339	0.07275
2671.18474	0.07272
2669.25608	0.07274
2667.32743	0.07263
2665.39878	0.07244
2663.47012	0.07226
2661.54147	0.07204
2659.61282	0.07182
2657.68416	0.07158
2655.75551	0.07134
2653.82686	0.07130
2651.89820	0.07137
2649.96955	0.07112
2648.04090	0.07064
2646.11224	0.07031
2644.18359	0.06994
2642.25494	0.06935
2640.32628	0.06892
2638.39763	0.06873
2636.46898	0.06832
2634.54032	0.06763
2632.61167	0.06711
2630.68302	0.06689
2628.75436	0.06658
2626.82571	0.06602
2624.89706	0.06562
2622.96840	0.06569
2621.03975	0.06587
2619.11110	0.06563
2617.18244	0.06501
2615.25379	0.06441
2613.32514	0.06399
2611.39648	0.06367
2609.46783	0.06340
2607.53918	0.06313
2605.61052	0.06276
2603.68187	0.06237
2601.75322	0.06217
2599.82457	0.06215
2597.89591	0.06208
2595.96726	0.06173
2594.03861	0.06121
2592.10995	0.06078
2590.18130	0.06058
2588.25265	0.06054
2586.32399	0.06034
2584.39534	0.05994
2582.46669	0.05963
2580.53803	0.05935
2578.60938	0.05907
2576.68073	0.05891
2574.75207	0.05861
2572.82342	0.05791
2570.89477	0.05718
2568.96611	0.05709
2567.03746	0.05756
2565.10881	0.05790
2563.18015	0.05773
2561.25150	0.05744
2559.32285	0.05736
2557.39419	0.05721
2555.46554	0.05706
2553.53689	0.05710
2551.60823	0.05701
2549.67958	0.05671
2547.75093	0.05650
2545.82227	0.05625
2543.89362	0.05564
2541.96497	0.05506
2540.03631	0.05499
2538.10766	0.05512
2536.17901	0.05508
2534.25036	0.05488
2532.32170	0.05442
2530.39305	0.05381
2528.46440	0.05349
2526.53574	0.05338
2524.60709	0.05327
2522.67844	0.05342
2520.74978	0.05375
2518.82113	0.05389
2516.89248	0.05398
2514.96382	0.05422
2513.03517	0.05438
2511.10652	0.05413
2509.17786	0.05357
2507.24921	0.05319
2505.32056	0.05320
2503.39190	0.05315
2501.46325	0.05260
2499.53460	0.05191
2497.60594	0.05175
2495.67729	0.05209
2493.74864	0.05220
2491.81998	0.05200
2489.89133	0.05192
2487.96268	0.05195
2486.03402	0.05194
2484.10537	0.05180
2482.17672	0.05139
2480.24806	0.05107
2478.31941	0.05111
2476.39076	0.05116
2474.46210	0.05096
2472.53345	0.05073
2470.60480	0.05078
2468.67615	0.05104
2466.74749	0.05103
2464.81884	0.05075
2462.89019	0.05057
2460.96153	0.05040
2459.03288	0.05011
2457.10423	0.04994
2455.17557	0.04998
2453.24692	0.04997
2451.31827	0.04976
2449.38961	0.04952
2447.46096	0.04942
2445.53231	0.04944
2443.60365	0.04934
2441.67500	0.04915
2439.74635	0.04913
2437.81769	0.04940
2435.88904	0.04976
2433.96039	0.04992
2432.03173	0.04970
2430.10308	0.04920
2428.17443	0.04883
2426.24577	0.04869
2424.31712	0.04858
2422.38847	0.04848
2420.45981	0.04843
2418.53116	0.04831
2416.60251	0.04819
2414.67385	0.04823
2412.74520	0.04823
2410.81655	0.04796
2408.88789	0.04772
2406.95924	0.04783
2405.03059	0.04800
2403.10193	0.04802
2401.17328	0.04818
2399.24463	0.04835
2397.31598	0.04833
2395.38732	0.04816
2393.45867	0.04806
2391.53002	0.04801
2389.60136	0.04814
2387.67271	0.04840
2385.74406	0.04838
2383.81540	0.04816
2381.88675	0.04820
2379.95810	0.04846
2378.02944	0.04863
2376.10079	0.04855
2374.17214	0.04834
2372.24348	0.04802
2370.31483	0.04763
2368.38618	0.04750
2366.45752	0.04782
2364.52887	0.04825
2362.60022	0.04847
2360.67156	0.04861
2358.74291	0.04875
2356.81426	0.04894
2354.88560	0.04917
2352.95695	0.04930
2351.02830	0.04932
2349.09964	0.04936
2347.17099	0.04940
2345.24234	0.04939
2343.31368	0.04935
2341.38503	0.04930
2339.45638	0.04924
2337.52772	0.04912
2335.59907	0.04897
2333.67042	0.04884
2331.74177	0.04871
2329.81311	0.04854
2327.88446	0.04863
2325.95581	0.04912
2324.02715	0.04942
2322.09850	0.04915
2320.16985	0.04857
2318.24119	0.04802
2316.31254	0.04753
2314.38389	0.04707
2312.45523	0.04669
2310.52658	0.04648
2308.59793	0.04630
2306.66927	0.04602
2304.74062	0.04566
2302.81197	0.04525
2300.88331	0.04492
2298.95466	0.04462
2297.02601	0.04409
2295.09735	0.04372
2293.16870	0.04389
2291.24005	0.04417
2289.31139	0.04422
2287.38274	0.04393
2285.45409	0.04317
2283.52543	0.04207
2281.59678	0.04107
2279.66813	0.04052
2277.73947	0.04044
2275.81082	0.04043
2273.88217	0.04013
2271.95351	0.03987
2270.02486	0.03990
2268.09621	0.03968
2266.16755	0.03882
2264.23890	0.03787
2262.31025	0.03738
2260.38160	0.03728
2258.45294	0.03720
2256.52429	0.03689
2254.59564	0.03634
2252.66698	0.03562
2250.73833	0.03503
2248.80968	0.03514
2246.88102	0.03558
2244.95237	0.03600
2243.02372	0.03620
2241.09506	0.03614
2239.16641	0.03550
2237.23776	0.03450
2235.30910	0.03360
2233.38045	0.03291
2231.45180	0.03271
2229.52314	0.03343
2227.59449	0.03433
2225.66584	0.03411
2223.73718	0.03306
2221.80853	0.03224
2219.87988	0.03155
2217.95122	0.03079
2216.02257	0.03059
2214.09392	0.03099
2212.16526	0.03083
2210.23661	0.02997
2208.30796	0.02943
2206.37930	0.02909
2204.45065	0.02820
2202.52200	0.02718
2200.59334	0.02697
2198.66469	0.02786
2196.73604	0.02922
2194.80739	0.02989
2192.87873	0.02922
2190.95008	0.02773
2189.02143	0.02663
2187.09277	0.02627
2185.16412	0.02566
2183.23547	0.02472
2181.30681	0.02451
2179.37816	0.02477
2177.44951	0.02457
2175.52085	0.02416
2173.59220	0.02401
2171.66355	0.02406
2169.73489	0.02435
2167.80624	0.02457
2165.87759	0.02426
2163.94893	0.02347
2162.02028	0.02202
2160.09163	0.02028
2158.16297	0.01985
2156.23432	0.02108
2154.30567	0.02269
2152.37701	0.02380
2150.44836	0.02438
2148.51971	0.02475
2146.59105	0.02499
2144.66240	0.02519
2142.73375	0.02568
2140.80509	0.02608
2138.87644	0.02604
2136.94779	0.02611
2135.01913	0.02664
2133.09048	0.02741
2131.16183	0.02822
2129.23318	0.02910
2127.30452	0.02965
2125.37587	0.02988
2123.44722	0.03053
2121.51856	0.03135
2119.58991	0.03183
2117.66126	0.03215
2115.73260	0.03222
2113.80395	0.03200
2111.87530	0.03183
2109.94664	0.03171
2108.01799	0.03146
2106.08934	0.03128
2104.16068	0.03130
2102.23203	0.03136
2100.30338	0.03126
2098.37472	0.03075
2096.44607	0.03029
2094.51742	0.03025
2092.58876	0.03054
2090.66011	0.03064
2088.73146	0.03023
2086.80280	0.02968
2084.87415	0.02943
2082.94550	0.02932
2081.01684	0.02917
2079.08819	0.02889
2077.15954	0.02846
2075.23088	0.02795
2073.30223	0.02738
2071.37358	0.02678
2069.44492	0.02625
2067.51627	0.02572
2065.58762	0.02529
2063.65896	0.02508
2061.73031	0.02509
2059.80166	0.02549
2057.87301	0.02599
2055.94435	0.02602
2054.01570	0.02589
2052.08705	0.02567
2050.15839	0.02446
2048.22974	0.02242
2046.30109	0.02107
2044.37243	0.02082
2042.44378	0.02038
2040.51513	0.01924
2038.58647	0.01836
2036.65782	0.01827
2034.72917	0.01837
2032.80051	0.01820
2030.87186	0.01803
2028.94321	0.01841
2027.01455	0.01897
2025.08590	0.01901
2023.15725	0.01920
2021.22859	0.02009
2019.29994	0.02061
2017.37129	0.01988
2015.44263	0.01874
2013.51398	0.01804
2011.58533	0.01742
2009.65667	0.01673
2007.72802	0.01651
2005.79937	0.01716
2003.87071	0.01888
2001.94206	0.02111
2000.01341	0.02255
1998.08475	0.02282
1996.15610	0.02261
1994.22745	0.02227
1992.29880	0.02180
1990.37014	0.02131
1988.44149	0.02116
1986.51284	0.02173
1984.58418	0.02249
1982.65553	0.02210
1980.72688	0.02010
1978.79822	0.01744
1976.86957	0.01581
1974.94092	0.01596
1973.01226	0.01713
1971.08361	0.01869
1969.15496	0.02009
1967.22630	0.02053
1965.29765	0.02001
1963.36900	0.01927
1961.44034	0.01897
1959.51169	0.01941
1957.58304	0.02046
1955.65438	0.02150
1953.72573	0.02221
1951.79708	0.02299
1949.86842	0.02366
1947.93977	0.02351
1946.01112	0.02292
1944.08246	0.02280
1942.15381	0.02312
1940.22516	0.02344
1938.29650	0.02396
1936.36785	0.02456
1934.43920	0.02478
1932.51054	0.02450
1930.58189	0.02399
1928.65324	0.02372
1926.72458	0.02396
1924.79593	0.02446
1922.86728	0.02475
1920.93863	0.02478
1919.00997	0.02482
1917.08132	0.02490
1915.15267	0.02516
1913.22401	0.02551
1911.29536	0.02548
1909.36671	0.02517
1907.43805	0.02494
1905.50940	0.02486
1903.58075	0.02477
1901.65209	0.02471
1899.72344	0.02491
1897.79479	0.02517
1895.86613	0.02525
1893.93748	0.02516
1892.00883	0.02504
1890.08017	0.02492
1888.15152	0.02463
1886.22287	0.02433
1884.29421	0.02439
1882.36556	0.02471
1880.43691	0.02497
1878.50825	0.02518
1876.57960	0.02543
1874.65095	0.02558
1872.72229	0.02546
1870.79364	0.02521
1868.86499	0.02492
1866.93633	0.02461
1865.00768	0.02467
1863.07903	0.02513
1861.15037	0.02542
1859.22172	0.02517
1857.29307	0.02475
1855.36442	0.02457
1853.43576	0.02450
1851.50711	0.02433
1849.57846	0.02419
1847.64980	0.02417
1845.72115	0.02434
1843.79250	0.02436
1841.86384	0.02401
1839.93519	0.02387
1838.00654	0.02396
1836.07788	0.02417
1834.14923	0.02430
1832.22058	0.02420
1830.29192	0.02403
1828.36327	0.02374
1826.43462	0.02362
1824.50596	0.02363
1822.57731	0.02355
1820.64866	0.02350
1818.72000	0.02350
1816.79135	0.02372
1814.86270	0.02407
1812.93404	0.02427
1811.00539	0.02419
1809.07674	0.02402
1807.14808	0.02399
1805.21943	0.02401
1803.29078	0.02400
1801.36212	0.02398
1799.43347	0.02386
1797.50482	0.02365
1795.57616	0.02346
1793.64751	0.02349
1791.71886	0.02351
1789.79021	0.02334
1787.86155	0.02324
1785.93290	0.02312
1784.00425	0.02297
1782.07559	0.02293
1780.14694	0.02294
1778.21829	0.02274
1776.28963	0.02248
1774.36098	0.02254
1772.43233	0.02279
1770.50367	0.02270
1768.57502	0.02287
1766.64637	0.02300
1764.71771	0.02295
1762.78906	0.02303
1760.86041	0.02294
1758.93175	0.02300
1757.00310	0.02338
1755.07445	0.02345
1753.14579	0.02363
1751.21714	0.02401
1749.28849	0.02414
1747.35983	0.02444
1745.43118	0.02492
1743.50253	0.02549
1741.57387	0.02615
1739.64522	0.02663
1737.71657	0.02668
1735.78791	0.02744
1733.85926	0.02852
1731.93061	0.02878
1730.00195	0.02926
1728.07330	0.03008
1726.14465	0.03091
1724.21599	0.03171
1722.28734	0.03209
1720.35869	0.03238
1718.43004	0.03332
1716.50138	0.03429
1714.57273	0.03520
1712.64408	0.03660
1710.71542	0.03850
1708.78677	0.04087
1706.85812	0.04381
1704.92946	0.04709
1703.00081	0.05078
1701.07216	0.05546
1699.14350	0.05962
1697.21485	0.06418
1695.28620	0.06954
1693.35754	0.07430
1691.42889	0.07949
1689.50024	0.08460
1687.57158	0.08947
1685.64293	0.09533
1683.71428	0.10133
1681.78562	0.10696
1679.85697	0.11331
1677.92832	0.12013
1675.99966	0.12753
1674.07101	0.13485
1672.14236	0.14227
1670.21370	0.15034
1668.28505	0.15831
1666.35640	0.16594
1664.42774	0.17374
1662.49909	0.18134
1660.57044	0.18819
1658.64178	0.19425
1656.71313	0.19946
1654.78448	0.20502
1652.85583	0.21046
1650.92717	0.21408
1648.99852	0.21771
1647.06987	0.22179
1645.14121	0.22511
1643.21256	0.22790
1641.28391	0.23072
1639.35525	0.23321
1637.42660	0.23569
1635.49795	0.23799
1633.56929	0.23921
1631.64064	0.23980
1629.71199	0.23962
1627.78333	0.23795
1625.85468	0.23465
1623.92603	0.23012
1621.99737	0.22423
1620.06872	0.21737
1618.14007	0.21044
1616.21141	0.20301
1614.28276	0.19485
1612.35411	0.18706
1610.42545	0.17946
1608.49680	0.17199
1606.56815	0.16483
1604.63949	0.15808
1602.71084	0.15180
1600.78219	0.14601
1598.85353	0.14082
1596.92488	0.13624
1594.99623	0.13224
1593.06757	0.12886
1591.13892	0.12611
1589.21027	0.12399
1587.28161	0.12252
1585.35296	0.12167
1583.42431	0.12135
1581.49566	0.12146
1579.56700	0.12207
1577.63835	0.12383
1575.70970	0.12625
1573.78104	0.12858
1571.85239	0.13190
1569.92374	0.13604
1567.99508	0.14026
1566.06643	0.14485
1564.13778	0.14945
1562.20912	0.15392
1560.28047	0.15916
1558.35182	0.16406
1556.42316	0.16816
1554.49451	0.17243
1552.56586	0.17624
1550.63720	0.17957
1548.70855	0.18235
1546.77990	0.18447
1544.85124	0.18601
1542.92259	0.18707
1540.99394	0.18825
1539.06528	0.18907
1537.13663	0.18898
1535.20798	0.18901
1533.27932	0.18890
1531.35067	0.18806
1529.42202	0.18707
1527.49336	0.18595
1525.56471	0.18441
1523.63606	0.18267
1521.70740	0.18107
1519.77875	0.17893
1517.85010	0.17669
1515.92145	0.17423
1513.99279	0.17094
1512.06414	0.16697
1510.13549	0.16241
1508.20683	0.15798
1506.27818	0.15337
1504.34953	0.14797
1502.42087	0.14278
1500.49222	0.13779
1498.56357	0.13267
1496.63491	0.12764
1494.70626	0.12244
1492.77761	0.11749
1490.84895	0.11319
1488.92030	0.10930
1486.99165	0.10600
1485.06299	0.10344
1483.13434	0.10176
1481.20569	0.10080
1479.27703	0.10035
1477.34838	0.10055
1475.41973	0.10148
1473.49107	0.10325
1471.56242	0.10538
1469.63377	0.10761
1467.70511	0.11013
1465.77646	0.11289
1463.84781	0.11556
1461.91915	0.11821
1459.99050	0.12122
1458.06185	0.12478
1456.13319	0.12786
1454.20454	0.12992
1452.27589	0.13157
1450.34724	0.13242
1448.41858	0.13247
1446.48993	0.13181
1444.56128	0.13066
1442.63262	0.12926
1440.70397	0.12761
1438.77532	0.12580
1436.84666	0.12368
1434.91801	0.12083
1432.98936	0.11804
1431.06070	0.11567
1429.13205	0.11359
1427.20340	0.11198
1425.27474	0.11091
1423.34609	0.11010
1421.41744	0.10965
1419.48878	0.10963
1417.56013	0.10949
1415.63148	0.10960
1413.70282	0.11005
1411.77417	0.11059
1409.84552	0.11118
1407.91686	0.11181
1405.98821	0.11249
1404.05956	0.11299
1402.13090	0.11317
1400.20225	0.11317
1398.27360	0.11294
1396.34494	0.11258
1394.41629	0.11218
1392.48764	0.11156
1390.55898	0.11102
1388.63033	0.11064
1386.70168	0.11010
1384.77302	0.10937
1382.84437	0.10879
1380.91572	0.10819
1378.98707	0.10742
1377.05841	0.10644
1375.12976	0.10530
1373.20111	0.10389
1371.27245	0.10227
1369.34380	0.10061
1367.41515	0.09877
1365.48649	0.09684
1363.55784	0.09514
1361.62919	0.09373
1359.70053	0.09271
1357.77188	0.09221
1355.84323	0.09215
1353.91457	0.09248
1351.98592	0.09323
1350.05727	0.09437
1348.12861	0.09574
1346.19996	0.09724
1344.27131	0.09880
1342.34265	0.10031
1340.41400	0.10160
1338.48535	0.10247
1336.55669	0.10286
1334.62804	0.10270
1332.69939	0.10193
1330.77073	0.10069
1328.84208	0.09927
1326.91343	0.09785
1324.98477	0.09658
1323.05612	0.09557
1321.12747	0.09481
1319.19881	0.09418
1317.27016	0.09365
1315.34151	0.09319
1313.41286	0.09269
1311.48420	0.09210
1309.55555	0.09145
1307.62690	0.09078
1305.69824	0.09019
1303.76959	0.08970
1301.84094	0.08923
1299.91228	0.08881
1297.98363	0.08851
1296.05498	0.08840
1294.12632	0.08859
1292.19767	0.08918
1290.26902	0.09010
1288.34036	0.09120
1286.41171	0.09232
1284.48306	0.09338
1282.55440	0.09431
1280.62575	0.09499
1278.69710	0.09530
1276.76844	0.09532
1274.83979	0.09532
1272.91114	0.09549
1270.98248	0.09582
1269.05383	0.09620
1267.12518	0.09670
1265.19652	0.09745
1263.26787	0.09845
1261.33922	0.09959
1259.41056	0.10080
1257.48191	0.10211
1255.55326	0.10353
1253.62460	0.10511
1251.69595	0.10688
1249.76730	0.10879
1247.83864	0.11073
1245.90999	0.11265
1243.98134	0.11452
1242.05269	0.11629
1240.12403	0.11787
1238.19538	0.11909
1236.26673	0.11982
1234.33807	0.12005
1232.40942	0.11974
1230.48077	0.11884
1228.55211	0.11736
1226.62346	0.11541
1224.69481	0.11311
1222.76615	0.11056
1220.83750	0.10802
1218.90885	0.10578
1216.98019	0.10398
1215.05154	0.10263
1213.12289	0.10174
1211.19423	0.10137
1209.26558	0.10149
1207.33693	0.10192
1205.40827	0.10235
1203.47962	0.10243
1201.55097	0.10207
1199.62231	0.10138
1197.69366	0.10009
1195.76501	0.09835
1193.83635	0.09646
1191.90770	0.09455
1189.97905	0.09259
1188.05039	0.09076
1186.12174	0.08917
1184.19309	0.08780
1182.26443	0.08666
1180.33578	0.08580
1178.40713	0.08517
1176.47848	0.08466
1174.54982	0.08423
1172.62117	0.08396
1170.69252	0.08384
1168.76386	0.08375
1166.83521	0.08360
1164.90656	0.08338
1162.97790	0.08322
1161.04925	0.08297
1159.12060	0.08239
1157.19194	0.08139
1155.26329	0.08006
1153.33464	0.07867
1151.40598	0.07738
1149.47733	0.07605
1147.54868	0.07452
1145.62002	0.07303
1143.69137	0.07186
1141.76272	0.07096
1139.83406	0.07017
1137.90541	0.06945
1135.97676	0.06880
1134.04810	0.06818
1132.11945	0.06757
1130.19080	0.06708
1128.26214	0.06682
1126.33349	0.06660
1124.40484	0.06628
1122.47618	0.06598
1120.54753	0.06577
1118.61888	0.06555
1116.69022	0.06534
1114.76157	0.06535
1112.83292	0.06551
1110.90427	0.06570
1108.97561	0.06602
1107.04696	0.06648
1105.11831	0.06702
1103.18965	0.06769
1101.26100	0.06841
1099.33235	0.06898
1097.40369	0.06948
1095.47504	0.07015
1093.54639	0.07115
1091.61773	0.07253
1089.68908	0.07416
1087.76043	0.07595
1085.83177	0.07789
1083.90312	0.07973
1081.97447	0.08108
1080.04581	0.08177
1078.11716	0.08187
1076.18851	0.08151
1074.25985	0.08083
1072.33120	0.08009
1070.40255	0.07955
1068.47389	0.07926
1066.54524	0.07917
1064.61659	0.07909
1062.68793	0.07882
1060.75928	0.07844
1058.83063	0.07804
1056.90197	0.07746
1054.97332	0.07667
1053.04467	0.07583
1051.11601	0.07506
1049.18736	0.07438
1047.25871	0.07384
1045.33005	0.07344
1043.40140	0.07313
1041.47275	0.07288
1039.54410	0.07291
1037.61544	0.07337
1035.68679	0.07405
1033.75814	0.07462
1031.82948	0.07483
1029.90083	0.07448
1027.97218	0.07359
1026.04352	0.07232
1024.11487	0.07088
1022.18622	0.06950
1020.25756	0.06826
1018.32891	0.06723
1016.40026	0.06638
1014.47160	0.06558
1012.54295	0.06474
1010.61430	0.06382
1008.68564	0.06279
1006.75699	0.06179
1004.82834	0.06088
1002.89968	0.06000
1000.97103	0.05918
999.04238	0.05841
997.11372	0.05763
995.18507	0.05684
993.25642	0.05606
991.32776	0.05536
989.39911	0.05481
987.47046	0.05439
985.54180	0.05396
983.61315	0.05355
981.68450	0.05333
979.75584	0.05336
977.82719	0.05361
975.89854	0.05393
973.96989	0.05402
972.04123	0.05384
970.11258	0.05349
968.18393	0.05298
966.25527	0.05240
964.32662	0.05186
962.39797	0.05144
960.46931	0.05115
958.54066	0.05093
956.61201	0.05059
954.68335	0.05012
952.75470	0.04969
950.82605	0.04943
948.89739	0.04933
946.96874	0.04936
945.04009	0.04943
943.11143	0.04956
941.18278	0.04980
939.25413	0.04995
937.32547	0.04983
935.39682	0.04959
933.46817	0.04949
931.53951	0.04949
929.61086	0.04944
927.68221	0.04934
925.75355	0.04928
923.82490	0.04932
921.89625	0.04940
919.96759	0.04933
918.03894	0.04906
916.11029	0.04860
914.18163	0.04814
912.25298	0.04783
910.32433	0.04752
908.39567	0.04714
906.46702	0.04689
904.53837	0.04677
902.60972	0.04661
900.68106	0.04643
898.75241	0.04624
896.82376	0.04598
894.89510	0.04562
892.96645	0.04517
891.03780	0.04480
889.10914	0.04464
887.18049	0.04464
885.25184	0.04480
883.32318	0.04514
881.39453	0.04551
879.46588	0.04574
877.53722	0.04584
875.60857	0.04586
873.67992	0.04578
871.75126	0.04545
869.82261	0.04504
867.89396	0.04486
865.96530	0.04484
864.03665	0.04470
862.10800	0.04439
860.17934	0.04416
858.25069	0.04420
856.32204	0.04452
854.39338	0.04493
852.46473	0.04510
850.53608	0.04500
848.60742	0.04482
846.67877	0.04469
844.75012	0.04460
842.82146	0.04446
840.89281	0.04430
838.96416	0.04415
837.03551	0.04405
835.10685	0.04397
833.17820	0.04390
831.24955	0.04397
829.32089	0.04425
827.39224	0.04456
825.46359	0.04485
823.53493	0.04516
821.60628	0.04546
819.67763	0.04579
817.74897	0.04617
815.82032	0.04654
813.89167	0.04685
811.96301	0.04708
810.03436	0.04721
808.10571	0.04733
806.17705	0.04750
804.24840	0.04760
802.31975	0.04765
800.39109	0.04785
798.46244	0.04825
796.53379	0.04869
794.60513	0.04898
792.67648	0.04913
790.74783	0.04936
788.81917	0.04975
786.89052	0.05010
784.96187	0.05040
783.03321	0.05082
781.10456	0.05130
779.17591	0.05159
777.24725	0.05173
775.31860	0.05193
773.38995	0.05222
771.46130	0.05260
769.53264	0.05300
767.60399	0.05339
765.67534	0.05379
763.74668	0.05417
761.81803	0.05453
759.88938	0.05491
757.96072	0.05527
756.03207	0.05574
754.10342	0.05635
752.17476	0.05689
750.24611	0.05726
748.31746	0.05754
746.38880	0.05776
744.46015	0.05803
742.53150	0.05844
740.60284	0.05879
738.67419	0.05900
736.74554	0.05924
734.81688	0.05963
732.88823	0.06011
730.95958	0.06067
729.03092	0.06119
727.10227	0.06163
725.17362	0.06218
723.24496	0.06269
721.31631	0.06330
719.38766	0.06379
717.45900	0.06423
715.53035	0.06465
713.60170	0.06501
711.67304	0.06540
709.74439	0.06590
707.81574	0.06643
705.88708	0.06685
703.95843	0.06725
702.02978	0.06774
700.10113	0.06821
698.17247	0.06856
696.24382	0.06885
694.31517	0.06904
692.38651	0.06908
690.45786	0.06921
688.52921	0.06959
686.60055	0.07002
684.67190	0.07032
682.74325	0.07056
680.81459	0.07085
678.88594	0.07122
676.95729	0.07165
675.02863	0.07199
673.09998	0.07216
671.17133	0.07227
669.24267	0.07249
667.31402	0.07285
665.38537	0.07327
663.45671	0.07359
661.52806	0.07378
659.59941	0.07396
657.67075	0.07418
655.74210	0.07436
653.81345	0.07451
651.88479	0.07472
649.95614	0.07494
648.02749	0.07510
646.09883	0.07522
644.17018	0.07532
642.24153	0.07540
640.31287	0.07549
638.38422	0.07561
636.45557	0.07578
634.52692	0.07583
632.59826	0.07574
630.66961	0.07611
628.74096	0.07755
626.81230	0.07578
624.88365	0.07248
622.95500	0.06974
621.02634	0.06900
619.09769	0.06974
617.16904	0.07082
615.24038	0.07128
613.31173	0.07091
611.38308	0.07048
609.45442	0.07068
607.52577	0.07184
605.59712	0.07375
603.66846	0.07535
601.73981	0.07608
599.81116	0.07650
597.88250	0.07679
595.95385	0.07665
594.02520	0.07646
592.09654	0.07681
590.16789	0.07732
588.23924	0.07733
586.31058	0.07697
584.38193	0.07680
582.45328	0.07696
580.52462	0.07709
578.59597	0.07711
576.66732	0.07724
574.73866	0.07750
572.81001	0.07777
570.88136	0.07803
568.95270	0.07832
567.02405	0.07866
565.09540	0.07897
563.16675	0.07921
561.23809	0.07938
559.30944	0.07936
557.38079	0.07932
555.45213	0.07946
553.52348	0.07958
551.59483	0.07941
549.66617	0.07904
547.73752	0.07862
545.80887	0.07824
543.88021	0.07801
541.95156	0.07800
540.02291	0.07793
538.09425	0.07768
536.16560	0.07744
534.23695	0.07737
532.30829	0.07760
530.37964	0.07809
528.45099	0.07840
526.52233	0.07843
524.59368	0.07830
522.66503	0.07793
520.73637	0.07714
518.80772	0.07606
516.87907	0.07516
514.95041	0.07476
513.02176	0.07470
511.09311	0.07460
509.16445	0.07434
507.23580	0.07392
505.30715	0.07342
503.37849	0.07302
501.44984	0.07272
499.52119	0.07228
497.59254	0.07166
495.66388	0.07105
493.73523	0.07058
491.80658	0.07012
489.87792	0.06958
487.94927	0.06921
486.02062	0.06900
484.09196	0.06863
482.16331	0.06806
480.23466	0.06761
478.30600	0.06737
476.37735	0.06715
474.44870	0.06674
472.52004	0.06619
470.59139	0.06564
468.66274	0.06515
466.73408	0.06467
464.80543	0.06415
462.87678	0.06347
460.94812	0.06278
459.01947	0.06230
457.09082	0.06191
455.16216	0.06147
453.23351	0.06101
451.30486	0.06046
449.37620	0.05989
447.44755	0.05938
445.51890	0.05894
443.59024	0.05856
441.66159	0.05813
439.73294	0.05765
437.80428	0.05716
435.87563	0.05670
433.94698	0.05624
432.01833	0.05574
430.08967	0.05540
428.16102	0.05522
426.23237	0.05493
424.30371	0.05450
422.37506	0.05416
420.44641	0.05398
418.51775	0.05368
416.58910	0.05323
414.66045	0.05291
412.73179	0.05265
410.80314	0.05240
408.87449	0.05217
406.94583	0.05186
405.01718	0.05144
403.08853	0.05099
401.15987	0.05057
399.23122	0.05015
