3996.16951	0.07198
3994.24086	0.07225
3992.31220	0.07268
3990.38355	0.07278
3988.45490	0.07238
3986.52624	0.07205
3984.59759	0.07207
3982.66894	0.07212
3980.74028	0.07195
3978.81163	0.07149
3976.88298	0.07107
3974.95432	0.07104
3973.02567	0.07134
3971.09702	0.07163
3969.16836	0.07166
3967.23971	0.07141
3965.31106	0.07096
3963.38240	0.07041
3961.45375	0.07014
3959.52510	0.07049
3957.59645	0.07100
3955.66779	0.07101
3953.73914	0.07077
3951.81049	0.07073
3949.88183	0.07062
3947.95318	0.07022
3946.02453	0.06974
3944.09587	0.06961
3942.16722	0.06996
3940.23857	0.07031
3938.30991	0.07039
3936.38126	0.07019
3934.45261	0.06959
3932.52395	0.06885
3930.59530	0.06868
3928.66665	0.06909
3926.73799	0.06925
3924.80934	0.06900
3922.88069	0.06904
3920.95203	0.06938
3919.02338	0.06945
3917.09473	0.06937
3915.16607	0.06949
3913.23742	0.06955
3911.30877	0.06921
3909.38011	0.06889
3907.45146	0.06880
3905.52281	0.06857
3903.59415	0.06833
3901.66550	0.06838
3899.73685	0.06851
3897.80819	0.06843
3895.87954	0.06815
3893.95089	0.06787
3892.02224	0.06773
3890.09358	0.06765
3888.16493	0.06748
3886.23628	0.06733
3884.30762	0.06744
3882.37897	0.06777
3880.45032	0.06807
3878.52166	0.06819
3876.59301	0.06808
3874.66436	0.06771
3872.73570	0.06719
3870.80705	0.06661
3868.87840	0.06626
3866.94974	0.06662
3865.02109	0.06724
3863.09244	0.06727
3861.16378	0.06713
3859.23513	0.06736
3857.30648	0.06723
3855.37782	0.06648
3853.44917	0.06604
3851.52052	0.06632
3849.59186	0.06666
3847.66321	0.06649
3845.73456	0.06600
3843.80590	0.06580
3841.87725	0.06592
3839.94860	0.06568
3838.01994	0.06505
3836.09129	0.06478
3834.16264	0.06485
3832.23398	0.06478
3830.30533	0.06469
3828.37668	0.06466
3826.44803	0.06432
3824.51937	0.06385
3822.59072	0.06387
3820.66207	0.06424
3818.73341	0.06426
3816.80476	0.06367
3814.87611	0.06298
3812.94745	0.06292
3811.01880	0.06359
3809.09015	0.06420
3807.16149	0.06413
3805.23284	0.06382
3803.30419	0.06388
3801.37553	0.06420
3799.44688	0.06441
3797.51823	0.06435
3795.58957	0.06380
3793.66092	0.06282
3791.73227	0.06198
3789.80361	0.06174
3787.87496	0.06203
3785.94631	0.06231
3784.01765	0.06220
3782.08900	0.06182
3780.16035	0.06158
3778.23169	0.06178
3776.30304	0.06221
3774.37439	0.06225
3772.44573	0.06184
3770.51708	0.06134
3768.58843	0.06095
3766.65977	0.06082
3764.73112	0.06071
3762.80247	0.06027
3760.87381	0.05984
3758.94516	0.05990
3757.01651	0.06044
3755.08786	0.06137
3753.15920	0.06216
3751.23055	0.06198
3749.30190	0.06104
3747.37324	0.06050
3745.44459	0.06063
3743.51594	0.06055
3741.58728	0.06002
3739.65863	0.05959
3737.72998	0.05930
3735.80132	0.05906
3733.87267	0.05898
3731.94402	0.05878
3730.01536	0.05854
3728.08671	0.05841
3726.15806	0.05817
3724.22940	0.05785
3722.30075	0.05758
3720.37210	0.05736
3718.44344	0.05728
3716.51479	0.05729
3714.58614	0.05731
3712.65748	0.05746
3710.72883	0.05765
3708.80018	0.05767
3706.87152	0.05757
3704.94287	0.05752
3703.01422	0.05729
3701.08556	0.05676
3699.15691	0.05639
3697.22826	0.05628
3695.29960	0.05617
3693.37095	0.05606
3691.44230	0.05621
3689.51365	0.05671
3687.58499	0.05704
3685.65634	0.05679
3683.72769	0.05630
3681.79903	0.05612
3679.87038	0.05654
3677.94173	0.05706
3676.01307	0.05703
3674.08442	0.05671
3672.15577	0.05657
3670.22711	0.05659
3668.29846	0.05673
3666.36981	0.05721
3664.44115	0.05807
3662.51250	0.05868
3660.58385	0.05858
3658.65519	0.05823
3656.72654	0.05802
3654.79789	0.05801
3652.86923	0.05848
3650.94058	0.05939
3649.01193	0.06006
3647.08327	0.06007
3645.15462	0.05984
3643.22597	0.06025
3641.29731	0.06149
3639.36866	0.06258
3637.44001	0.06297
3635.51135	0.06327
3633.58270	0.06395
3631.65405	0.06472
3629.72539	0.06565
3627.79674	0.06667
3625.86809	0.06714
3623.93943	0.06697
3622.01078	0.06723
3620.08213	0.06810
3618.15348	0.06878
3616.22482	0.06923
3614.29617	0.06984
3612.36752	0.07035
3610.43886	0.07053
3608.51021	0.07087
3606.58156	0.07143
3604.65290	0.07172
3602.72425	0.07195
3600.79560	0.07268
3598.86694	0.07372
3596.93829	0.07447
3595.00964	0.07492
3593.08098	0.07542
3591.15233	0.07622
3589.22368	0.07738
3587.29502	0.07861
3585.36637	0.07956
3583.43772	0.08023
3581.50906	0.08092
3579.58041	0.08164
3577.65176	0.08224
3575.72310	0.08285
3573.79445	0.08381
3571.86580	0.08511
3569.93714	0.08633
3568.00849	0.08716
3566.07984	0.08783
3564.15118	0.08877
3562.22253	0.09007
3560.29388	0.09129
3558.36522	0.09198
3556.43657	0.09225
3554.50792	0.09261
3552.57927	0.09336
3550.65061	0.09440
3548.72196	0.09563
3546.79331	0.09687
3544.86465	0.09786
3542.93600	0.09880
3541.00735	0.09988
3539.07869	0.10095
3537.15004	0.10189
3535.22139	0.10287
3533.29273	0.10389
3531.36408	0.10476
3529.43543	0.10543
3527.50677	0.10592
3525.57812	0.10628
3523.64947	0.10685
3521.72081	0.10791
3519.79216	0.10917
3517.86351	0.11038
3515.93485	0.11165
3514.00620	0.11281
3512.07755	0.11354
3510.14889	0.11396
3508.22024	0.11445
3506.29159	0.11519
3504.36293	0.11590
3502.43428	0.11625
3500.50563	0.11656
3498.57697	0.11731
3496.64832	0.11853
3494.71967	0.11987
3492.79101	0.12101
3490.86236	0.12197
3488.93371	0.12283
3487.00506	0.12344
3485.07640	0.12385
3483.14775	0.12419
3481.21910	0.12453
3479.29044	0.12486
3477.36179	0.12532
3475.43314	0.12606
3473.50448	0.12682
3471.57583	0.12745
3469.64718	0.12822
3467.71852	0.12918
3465.78987	0.13003
3463.86122	0.13071
3461.93256	0.13132
3460.00391	0.13180
3458.07526	0.13220
3456.14660	0.13274
3454.21795	0.13355
3452.28930	0.13460
3450.36064	0.13558
3448.43199	0.13622
3446.50334	0.13661
3444.57468	0.13700
3442.64603	0.13758
3440.71738	0.13850
3438.78872	0.13969
3436.86007	0.14058
3434.93142	0.14087
3433.00276	0.14081
3431.07411	0.14095
3429.14546	0.14186
3427.21680	0.14323
3425.28815	0.14413
3423.35950	0.14446
3421.43084	0.14479
3419.50219	0.14542
3417.57354	0.14618
3415.64489	0.14693
3413.71623	0.14771
3411.78758	0.14857
3409.85893	0.14950
3407.93027	0.15028
3406.00162	0.15087
3404.07297	0.15144
3402.14431	0.15208
3400.21566	0.15270
3398.28701	0.15323
3396.35835	0.15367
3394.42970	0.15405
3392.50105	0.15454
3390.57239	0.15538
3388.64374	0.15629
3386.71509	0.15686
3384.78643	0.15734
3382.85778	0.15830
3380.92913	0.15948
3379.00047	0.16033
3377.07182	0.16112
3375.14317	0.16213
3373.21451	0.16310
3371.28586	0.16399
3369.35721	0.16491
3367.42855	0.16583
3365.49990	0.16686
3363.57125	0.16796
3361.64259	0.16898
3359.71394	0.17017
3357.78529	0.17189
3355.85663	0.17362
3353.92798	0.17480
3351.99933	0.17589
3350.07068	0.17749
3348.14202	0.17932
3346.21337	0.18082
3344.28472	0.18215
3342.35606	0.18371
3340.42741	0.18539
3338.49876	0.18691
3336.57010	0.18827
3334.64145	0.18960
3332.71280	0.19095
3330.78414	0.19199
3328.85549	0.19255
3326.92684	0.19314
3324.99818	0.19400
3323.06953	0.19477
3321.14088	0.19553
3319.21222	0.19646
3317.28357	0.19734
3315.35492	0.19807
3313.42626	0.19879
3311.49761	0.19935
3309.56896	0.19955
3307.64030	0.19979
3305.71165	0.20040
3303.78300	0.20098
3301.85434	0.20115
3299.92569	0.20118
3297.99704	0.20135
3296.06838	0.20163
3294.13973	0.20186
3292.21108	0.20183
3290.28242	0.20162
3288.35377	0.20153
3286.42512	0.20148
3284.49646	0.20126
3282.56781	0.20085
3280.63916	0.20033
3278.71051	0.19983
3276.78185	0.19944
3274.85320	0.19891
3272.92455	0.19814
3270.99589	0.19743
3269.06724	0.19677
3267.13859	0.19604
3265.20993	0.19510
3263.28128	0.19393
3261.35263	0.19292
3259.42397	0.19215
3257.49532	0.19120
3255.56667	0.18990
3253.63801	0.18853
3251.70936	0.18743
3249.78071	0.18678
3247.85205	0.18637
3245.92340	0.18586
3243.99475	0.18517
3242.06609	0.18431
3240.13744	0.18325
3238.20879	0.18214
3236.28013	0.18128
3234.35148	0.18072
3232.42283	0.18014
3230.49417	0.17946
3228.56552	0.17881
3226.63687	0.17836
3224.70821	0.17806
3222.77956	0.17768
3220.85091	0.17718
3218.92225	0.17651
3216.99360	0.17555
3215.06495	0.17433
3213.13630	0.17316
3211.20764	0.17241
3209.27899	0.17214
3207.35034	0.17193
3205.42168	0.17144
3203.49303	0.17101
3201.56438	0.17085
3199.63572	0.17029
3197.70707	0.16901
3195.77842	0.16767
3193.84976	0.16650
3191.92111	0.16508
3189.99246	0.16386
3188.06380	0.16351
3186.13515	0.16341
3184.20650	0.16258
3182.27784	0.16115
3180.34919	0.15965
3178.42054	0.15816
3176.49188	0.15672
3174.56323	0.15562
3172.63458	0.15463
3170.70592	0.15350
3168.77727	0.15248
3166.84862	0.15171
3164.91996	0.15092
3162.99131	0.14991
3161.06266	0.14870
3159.13400	0.14757
3157.20535	0.14666
3155.27670	0.14564
3153.34804	0.14430
3151.41939	0.14297
3149.49074	0.14203
3147.56209	0.14139
3145.63343	0.14072
3143.70478	0.13985
3141.77613	0.13878
3139.84747	0.13761
3137.91882	0.13664
3135.99017	0.13609
3134.06151	0.13569
3132.13286	0.13519
3130.20421	0.13453
3128.27555	0.13372
3126.34690	0.13305
3124.41825	0.13270
3122.48959	0.13243
3120.56094	0.13213
3118.63229	0.13191
3116.70363	0.13161
3114.77498	0.13126
3112.84633	0.13116
3110.91767	0.13121
3108.98902	0.13110
3107.06037	0.13106
3105.13171	0.13125
3103.20306	0.13142
3101.27441	0.13156
3099.34575	0.13186
3097.41710	0.13214
3095.48845	0.13238
3093.55979	0.13289
3091.63114	0.13361
3089.70249	0.13399
3087.77383	0.13403
3085.84518	0.13422
3083.91653	0.13451
3081.98787	0.13473
3080.05922	0.13503
3078.13057	0.13539
3076.20192	0.13551
3074.27326	0.13538
3072.34461	0.13520
3070.41596	0.13496
3068.48730	0.13439
3066.55865	0.13358
3064.63000	0.13294
3062.70134	0.13261
3060.77269	0.13226
3058.84404	0.13168
3056.91538	0.13100
3054.98673	0.13032
3053.05808	0.12947
3051.12942	0.12846
3049.20077	0.12749
3047.27212	0.12657
3045.34346	0.12561
3043.41481	0.12468
3041.48616	0.12382
3039.55750	0.12291
3037.62885	0.12188
3035.70020	0.12082
3033.77154	0.11999
3031.84289	0.11955
3029.91424	0.11914
3027.98558	0.11828
3026.05693	0.11707
3024.12828	0.11586
3022.19962	0.11481
3020.27097	0.11400
3018.34232	0.11329
3016.41366	0.11273
3014.48501	0.11246
3012.55636	0.11235
3010.62771	0.11204
3008.69905	0.11140
3006.77040	0.11076
3004.84175	0.11052
3002.91309	0.11068
3000.98444	0.11093
2999.05579	0.11112
2997.12713	0.11123
2995.19848	0.11141
2993.26983	0.11180
2991.34117	0.11236
2989.41252	0.11302
2987.48387	0.11369
2985.55521	0.11434
2983.62656	0.11494
2981.69791	0.11543
2979.76925	0.11597
2977.84060	0.11660
2975.91195	0.11707
2973.98329	0.11730
2972.05464	0.11753
2970.12599	0.11786
2968.19733	0.11827
2966.26868	0.11888
2964.34003	0.11954
2962.41137	0.12001
2960.48272	0.12039
2958.55407	0.12081
2956.62541	0.12109
2954.69676	0.12105
2952.76811	0.12091
2950.83945	0.12099
2948.91080	0.12104
2946.98215	0.12079
2945.05349	0.12046
2943.12484	0.12040
2941.19619	0.12084
2939.26754	0.12157
2937.33888	0.12201
2935.41023	0.12183
2933.48158	0.12128
2931.55292	0.12073
2929.62427	0.12029
2927.69562	0.12004
2925.76696	0.11972
2923.83831	0.11892
2921.90966	0.11797
2919.98100	0.11726
2918.05235	0.11645
2916.12370	0.11534
2914.19504	0.11418
2912.26639	0.11310
2910.33774	0.11200
2908.40908	0.11089
2906.48043	0.10992
2904.55178	0.10913
2902.62312	0.10843
2900.69447	0.10777
2898.76582	0.10719
2896.83716	0.10675
2894.90851	0.10645
2892.97986	0.10612
2891.05120	0.10570
2889.12255	0.10541
2887.19390	0.10536
2885.26524	0.10544
2883.33659	0.10551
2881.40794	0.10550
2879.47928	0.10540
2877.55063	0.10529
2875.62198	0.10519
2873.69333	0.10496
2871.76467	0.10460
2869.83602	0.10405
2867.90737	0.10309
2865.97871	0.10192
2864.05006	0.10093
2862.12141	0.10002
2860.19275	0.09913
2858.26410	0.09844
2856.33545	0.09778
2854.40679	0.09697
2852.47814	0.09618
2850.54949	0.09553
2848.62083	0.09496
2846.69218	0.09442
2844.76353	0.09394
2842.83487	0.09351
2840.90622	0.09312
2838.97757	0.09275
2837.04891	0.09218
2835.12026	0.09128
2833.19161	0.09039
2831.26295	0.08992
2829.33430	0.08973
2827.40565	0.08940
2825.47699	0.08897
2823.54834	0.08866
2821.61969	0.08842
2819.69103	0.08816
2817.76238	0.08784
2815.83373	0.08743
2813.90507	0.08703
2811.97642	0.08677
2810.04777	0.08661
2808.11912	0.08640
2806.19046	0.08615
2804.26181	0.08583
2802.33316	0.08541
2800.40450	0.08500
2798.47585	0.08474
2796.54720	0.08457
2794.61854	0.08439
2792.68989	0.08420
2790.76124	0.08400
2788.83258	0.08376
2786.90393	0.08339
2784.97528	0.08295
2783.04662	0.08262
2781.11797	0.08236
2779.18932	0.08198
2777.26066	0.08152
2775.33201	0.08116
2773.40336	0.08094
2771.47470	0.08077
2769.54605	0.08054
2767.61740	0.08018
2765.68874	0.07982
2763.76009	0.07951
2761.83144	0.07927
2759.90278	0.07912
2757.97413	0.07889
2756.04548	0.07843
2754.11682	0.07800
2752.18817	0.07777
2750.25952	0.07768
2748.33086	0.07753
2746.40221	0.07714
2744.47356	0.07667
2742.54490	0.07638
2740.61625	0.07618
2738.68760	0.07594
2736.75895	0.07572
2734.83029	0.07557
2732.90164	0.07540
2730.97299	0.07512
2729.04433	0.07478
2727.11568	0.07458
2725.18703	0.07451
2723.25837	0.07436
2721.32972	0.07405
2719.40107	0.07377
2717.47241	0.07353
2715.54376	0.07319
2713.61511	0.07290
2711.68645	0.07277
2709.75780	0.07265
2707.82915	0.07238
2705.90049	0.07200
2703.97184	0.07190
2702.04319	0.07204
2700.11453	0.07190
2698.18588	0.07146
2696.25723	0.07119
2694.32857	0.07119
2692.39992	0.07111
2690.47127	0.07083
2688.54261	0.07053
2686.61396	0.07024
2684.68531	0.06998
2682.75665	0.06988
2680.82800	0.06986
2678.89935	0.06974
2676.97069	0.06952
2675.04204	0.06920
2673.11339	0.06881
2671.18474	0.06853
2669.25608	0.06848
2667.32743	0.06857
2665.39878	0.06863
2663.47012	0.06855
2661.54147	0.06838
2659.61282	0.06818
2657.68416	0.06803
2655.75551	0.06789
2653.82686	0.06766
2651.89820	0.06741
2649.96955	0.06711
2648.04090	0.06674
2646.11224	0.06640
2644.18359	0.06601
2642.25494	0.06556
2640.32628	0.06526
2638.39763	0.06506
2636.46898	0.06476
2634.54032	0.06437
2632.61167	0.06395
2630.68302	0.06352
2628.75436	0.06305
2626.82571	0.06254
2624.89706	0.06222
2622.96840	0.06216
2621.03975	0.06202
2619.11110	0.06164
2617.18244	0.06123
2615.25379	0.06089
2613.32514	0.06054
2611.39648	0.06023
2609.46783	0.05999
2607.53918	0.05981
2605.61052	0.05956
2603.68187	0.05916
2601.75322	0.05884
2599.82457	0.05869
2597.89591	0.05860
2595.96726	0.05853
2594.03861	0.05838
2592.10995	0.05803
2590.18130	0.05742
2588.25265	0.05678
2586.32399	0.05643
2584.39534	0.05634
2582.46669	0.05637
2580.53803	0.05627
2578.60938	0.05584
2576.68073	0.05532
2574.75207	0.05504
2572.82342	0.05484
2570.89477	0.05451
2568.96611	0.05438
2567.03746	0.05469
2565.10881	0.05498
2563.18015	0.05495
2561.25150	0.05455
2559.32285	0.05399
2557.39419	0.05362
2555.46554	0.05353
2553.53689	0.05353
2551.60823	0.05346
2549.67958	0.05333
2547.75093	0.05316
2545.82227	0.05287
2543.89362	0.05248
2541.96497	0.05219
2540.03631	0.05198
2538.10766	0.05158
2536.17901	0.05107
2534.25036	0.05074
2532.32170	0.05063
2530.39305	0.05071
2528.46440	0.05097
2526.53574	0.05113
2524.60709	0.05105
2522.67844	0.05099
2520.74978	0.05094
2518.82113	0.05080
2516.89248	0.05067
2514.96382	0.05051
2513.03517	0.05024
2511.10652	0.05021
2509.17786	0.05053
2507.24921	0.05074
2505.32056	0.05047
2503.39190	0.04982
2501.46325	0.04912
2499.53460	0.04870
2497.60594	0.04864
2495.67729	0.04875
2493.74864	0.04882
2491.81998	0.04872
2489.89133	0.04845
2487.96268	0.04806
2486.03402	0.04788
2484.10537	0.04812
2482.17672	0.04842
2480.24806	0.04839
2478.31941	0.04794
2476.39076	0.04733
2474.46210	0.04709
2472.53345	0.04727
2470.60480	0.04749
2468.67615	0.04765
2466.74749	0.04774
2464.81884	0.04755
2462.89019	0.04732
2460.96153	0.04725
2459.03288	0.04711
2457.10423	0.04702
2455.17557	0.04705
2453.24692	0.04689
2451.31827	0.04655
2449.38961	0.04639
2447.46096	0.04644
2445.53231	0.04646
2443.60365	0.04637
2441.67500	0.04635
2439.74635	0.04639
2437.81769	0.04640
2435.88904	0.04634
2433.96039	0.04615
2432.03173	0.04607
2430.10308	0.04621
2428.17443	0.04631
2426.24577	0.04624
2424.31712	0.04603
2422.38847	0.04573
2420.45981	0.04554
2418.53116	0.04531
2416.60251	0.04481
2414.67385	0.04438
2412.74520	0.04439
2410.81655	0.04467
2408.88789	0.04478
2406.95924	0.04479
2405.03059	0.04509
2403.10193	0.04539
2401.17328	0.04532
2399.24463	0.04513
2397.31598	0.04520
2395.38732	0.04525
2393.45867	0.04505
2391.53002	0.04485
2389.60136	0.04496
2387.67271	0.04530
2385.74406	0.04546
2383.81540	0.04528
2381.88675	0.04495
2379.95810	0.04480
2378.02944	0.04487
2376.10079	0.04518
2374.17214	0.04533
2372.24348	0.04525
2370.31483	0.04455
2368.38618	0.04541
2366.45752	0.04578
2364.52887	0.04576
2362.60022	0.04580
2360.67156	0.04564
2358.74291	0.04476
2356.81426	0.04599
2354.88560	0.04653
2352.95695	0.04581
2351.02830	0.04575
2349.09964	0.04580
2347.17099	0.04611
2345.24234	0.04608
2343.31368	0.04597
2341.38503	0.04591
2339.45638	0.04493
2337.52772	0.04588
2335.59907	0.04609
2333.67042	0.04533
2331.74177	0.04500
2329.81311	0.04494
2327.88446	0.04503
2325.95581	0.04539
2324.02715	0.04564
2322.09850	0.04544
2320.16985	0.04498
2318.24119	0.04447
2316.31254	0.04401
2314.38389	0.04348
2312.45523	0.04285
2310.52658	0.04260
2308.59793	0.04289
2306.66927	0.04301
2304.74062	0.04248
2302.81197	0.04184
2300.88331	0.04137
2298.95466	0.04110
2297.02601	0.04089
2295.09735	0.04075
2293.16870	0.04077
2291.24005	0.04078
2289.31139	0.04059
2287.38274	0.04026
2285.45409	0.03963
2283.52543	0.03867
2281.59678	0.03793
2279.66813	0.03765
2277.73947	0.03751
2275.81082	0.03724
2273.88217	0.03665
2271.95351	0.03600
2270.02486	0.03586
2268.09621	0.03600
2266.16755	0.03569
2264.23890	0.03498
2262.31025	0.03446
2260.38160	0.03433
2258.45294	0.03427
2256.52429	0.03403
2254.59564	0.03357
2252.66698	0.03301
2250.73833	0.03256
2248.80968	0.03252
2246.88102	0.03253
2244.95237	0.03281
2243.02372	0.03293
2241.09506	0.03288
2239.16641	0.03295
2237.23776	0.03293
2235.30910	0.03251
2233.38045	0.03181
2231.45180	0.03128
2229.52314	0.03111
2227.59449	0.03088
2225.66584	0.03017
2223.73718	0.02945
2221.80853	0.02926
2219.87988	0.02906
2217.95122	0.02819
2216.02257	0.02739
2214.09392	0.02743
2212.16526	0.02780
2210.23661	0.02780
2208.30796	0.02735
2206.37930	0.02656
2204.45065	0.02548
2202.52200	0.02492
2200.59334	0.02570
2198.66469	0.02684
2196.73604	0.02737
2194.80739	0.02773
2192.87873	0.02766
2190.95008	0.02662
2189.02143	0.02522
2187.09277	0.02414
2185.16412	0.02364
2183.23547	0.02346
2181.30681	0.02308
2179.37816	0.02285
2177.44951	0.02294
2175.52085	0.02275
2173.59220	0.02235
2171.66355	0.02227
2169.73489	0.02301
2167.80624	0.02418
2165.87759	0.02457
2163.94893	0.02330
2162.02028	0.02035
2160.09163	0.01736
2158.16297	0.01637
2156.23432	0.01732
2154.30567	0.01937
2152.37701	0.02190
2150.44836	0.02349
2148.51971	0.02352
2146.59105	0.02312
2144.66240	0.02314
2142.73375	0.02339
2140.80509	0.02360
2138.87644	0.02375
2136.94779	0.02422
2135.01913	0.02494
2133.09048	0.02556
2131.16183	0.02648
2129.23318	0.02748
2127.30452	0.02755
2125.37587	0.02729
2123.44722	0.02782
2121.51856	0.02857
2119.58991	0.02888
2117.66126	0.02901
2115.73260	0.02922
2113.80395	0.02947
2111.87530	0.02963
2109.94664	0.02950
2108.01799	0.02907
2106.08934	0.02883
2104.16068	0.02882
2102.23203	0.02863
2100.30338	0.02839
2098.37472	0.02799
2096.44607	0.02728
2094.51742	0.02704
2092.58876	0.02774
2090.66011	0.02846
2088.73146	0.02825
2086.80280	0.02741
2084.87415	0.02677
2082.94550	0.02676
2081.01684	0.02718
2079.08819	0.02735
2077.15954	0.02704
2075.23088	0.02664
2073.30223	0.02622
2071.37358	0.02564
2069.44492	0.02520
2067.51627	0.02502
2065.58762	0.02496
2063.65896	0.02484
2061.73031	0.02414
2059.80166	0.02323
2057.87301	0.02311
2055.94435	0.02352
2054.01570	0.02378
2052.08705	0.02392
2050.15839	0.02382
2048.22974	0.02306
2046.30109	0.02157
2044.37243	0.01997
2042.44378	0.01887
2040.51513	0.01818
2038.58647	0.01811
2036.65782	0.01894
2034.72917	0.01932
2032.80051	0.01810
2030.87186	0.01644
2028.94321	0.01598
2027.01455	0.01648
2025.08590	0.01665
2023.15725	0.01674
2021.22859	0.01811
2019.29994	0.02024
2017.37129	0.02118
2015.44263	0.02031
2013.51398	0.01861
2011.58533	0.01712
2009.65667	0.01630
2007.72802	0.01595
2005.79937	0.01599
2003.87071	0.01697
2001.94206	0.01879
2000.01341	0.02023
1998.08475	0.02077
1996.15610	0.02109
1994.22745	0.02125
1992.29880	0.02093
1990.37014	0.02037
1988.44149	0.02007
1986.51284	0.02050
1984.58418	0.02102
1982.65553	0.02026
1980.72688	0.01860
1978.79822	0.01731
1976.86957	0.01697
1974.94092	0.01771
1973.01226	0.01870
1971.08361	0.01881
1969.15496	0.01831
1967.22630	0.01816
1965.29765	0.01832
1963.36900	0.01841
1961.44034	0.01855
1959.51169	0.01896
1957.58304	0.01964
1955.65438	0.02024
1953.72573	0.02047
1951.79708	0.02075
1949.86842	0.02116
1947.93977	0.02113
1946.01112	0.02095
1944.08246	0.02132
1942.15381	0.02194
1940.22516	0.02224
1938.29650	0.02232
1936.36785	0.02232
1934.43920	0.02212
1932.51054	0.02193
1930.58189	0.02209
1928.65324	0.02237
1926.72458	0.02232
1924.79593	0.02217
1922.86728	0.02229
1920.93863	0.02264
1919.00997	0.02290
1917.08132	0.02295
1915.15267	0.02294
1913.22401	0.02288
1911.29536	0.02272
1909.36671	0.02255
1907.43805	0.02260
1905.50940	0.02274
1903.58075	0.02262
1901.65209	0.02237
1899.72344	0.02245
1897.79479	0.02286
1895.86613	0.02319
1893.93748	0.02317
1892.00883	0.02285
1890.08017	0.02242
1888.15152	0.02208
1886.22287	0.02197
1884.29421	0.02211
1882.36556	0.02241
1880.43691	0.02280
1878.50825	0.02306
1876.57960	0.02302
1874.65095	0.02286
1872.72229	0.02276
1870.79364	0.02270
1868.86499	0.02254
1866.93633	0.02236
1865.00768	0.02238
1863.07903	0.02256
1861.15037	0.02260
1859.22172	0.02243
1857.29307	0.02220
1855.36442	0.02209
1853.43576	0.02210
1851.50711	0.02208
1849.57846	0.02206
1847.64980	0.02211
1845.72115	0.02212
1843.79250	0.02198
1841.86384	0.02184
1839.93519	0.02185
1838.00654	0.02194
1836.07788	0.02204
1834.14923	0.02201
1832.22058	0.02190
1830.29192	0.02188
1828.36327	0.02195
1826.43462	0.02193
1824.50596	0.02179
1822.57731	0.02165
1820.64866	0.02154
1818.72000	0.02152
1816.79135	0.02158
1814.86270	0.02165
1812.93404	0.02167
1811.00539	0.02161
1809.07674	0.02155
1807.14808	0.02155
1805.21943	0.02158
1803.29078	0.02164
1801.36212	0.02170
1799.43347	0.02175
1797.50482	0.02177
1795.57616	0.02170
1793.64751	0.02154
1791.71886	0.02144
1789.79021	0.02142
1787.86155	0.02132
1785.93290	0.02108
1784.00425	0.02095
1782.07559	0.02100
1780.14694	0.02105
1778.21829	0.02107
1776.28963	0.02110
1774.36098	0.02110
1772.43233	0.02109
1770.50367	0.02110
1768.57502	0.02116
1766.64637	0.02123
1764.71771	0.02127
1762.78906	0.02127
1760.86041	0.02128
1758.93175	0.02143
1757.00310	0.02164
1755.07445	0.02175
1753.14579	0.02192
1751.21714	0.02229
1749.28849	0.02271
1747.35983	0.02310
1745.43118	0.02348
1743.50253	0.02396
1741.57387	0.02457
1739.64522	0.02519
1737.71657	0.02579
1735.78791	0.02647
1733.85926	0.02718
1731.93061	0.02779
1730.00195	0.02836
1728.07330	0.02897
1726.14465	0.02962
1724.21599	0.03025
1722.28734	0.03083
1720.35869	0.03147
1718.43004	0.03236
1716.50138	0.03351
1714.57273	0.03475
1712.64408	0.03610
1710.71542	0.03793
1708.78677	0.04044
1706.85812	0.04355
1704.92946	0.04715
1703.00081	0.05116
1701.07216	0.05559
1699.14350	0.06037
1697.21485	0.06535
1695.28620	0.07049
1693.35754	0.07569
1691.42889	0.08085
1689.50024	0.08610
1687.57158	0.09161
1685.64293	0.09758
1683.71428	0.10400
1681.78562	0.11057
1679.85697	0.11737
1677.92832	0.12468
1675.99966	0.13258
1674.07101	0.14085
1672.14236	0.14935
1670.21370	0.15805
1668.28505	0.16678
1666.35640	0.17525
1664.42774	0.18351
1662.49909	0.19153
1660.57044	0.19894
1658.64178	0.20551
1656.71313	0.21143
1654.78448	0.21689
1652.85583	0.22176
1650.92717	0.22574
1648.99852	0.22896
1647.06987	0.23190
1645.14121	0.23467
1643.21256	0.23714
1641.28391	0.23931
1639.35525	0.24125
1637.42660	0.24290
1635.49795	0.24408
1633.56929	0.24449
1631.64064	0.24383
1629.71199	0.24190
1627.78333	0.23842
1625.85468	0.23321
1623.92603	0.22648
1621.99737	0.21866
1620.06872	0.21023
1618.14007	0.20150
1616.21141	0.19260
1614.28276	0.18374
1612.35411	0.17515
1610.42545	0.16692
1608.49680	0.15914
1606.56815	0.15185
1604.63949	0.14507
1602.71084	0.13885
1600.78219	0.13333
1598.85353	0.12856
1596.92488	0.12455
1594.99623	0.12121
1593.06757	0.11847
1591.13892	0.11634
1589.21027	0.11481
1587.28161	0.11386
1585.35296	0.11347
1583.42431	0.11367
1581.49566	0.11450
1579.56700	0.11599
1577.63835	0.11815
1575.70970	0.12104
1573.78104	0.12452
1571.85239	0.12842
1569.92374	0.13273
1567.99508	0.13749
1566.06643	0.14262
1564.13778	0.14798
1562.20912	0.15340
1560.28047	0.15881
1558.35182	0.16398
1556.42316	0.16858
1554.49451	0.17261
1552.56586	0.17617
1550.63720	0.17917
1548.70855	0.18150
1546.77990	0.18322
1544.85124	0.18438
1542.92259	0.18503
1540.99394	0.18522
1539.06528	0.18494
1537.13663	0.18424
1535.20798	0.18324
1533.27932	0.18202
1531.35067	0.18056
1529.42202	0.17879
1527.49336	0.17669
1525.56471	0.17433
1523.63606	0.17183
1521.70740	0.16925
1519.77875	0.16659
1517.85010	0.16369
1515.92145	0.16035
1513.99279	0.15640
1512.06414	0.15188
1510.13549	0.14705
1508.20683	0.14209
1506.27818	0.13700
1504.34953	0.13182
1502.42087	0.12667
1500.49222	0.12163
1498.56357	0.11676
1496.63491	0.11199
1494.70626	0.10733
1492.77761	0.10294
1490.84895	0.09893
1488.92030	0.09544
1486.99165	0.09261
1485.06299	0.09061
1483.13434	0.08941
1481.20569	0.08890
1479.27703	0.08897
1477.34838	0.08970
1475.41973	0.09109
1473.49107	0.09305
1471.56242	0.09541
1469.63377	0.09794
1467.70511	0.10055
1465.77646	0.10330
1463.84781	0.10620
1461.91915	0.10922
1459.99050	0.11239
1458.06185	0.11555
1456.13319	0.11828
1454.20454	0.12024
1452.27589	0.12137
1450.34724	0.12172
1448.41858	0.12139
1446.48993	0.12047
1444.56128	0.11901
1442.63262	0.11726
1440.70397	0.11545
1438.77532	0.11345
1436.84666	0.11104
1434.91801	0.10833
1432.98936	0.10571
1431.06070	0.10337
1429.13205	0.10142
1427.20340	0.09998
1425.27474	0.09908
1423.34609	0.09859
1421.41744	0.09837
1419.48878	0.09830
1417.56013	0.09838
1415.63148	0.09856
1413.70282	0.09891
1411.77417	0.09952
1409.84552	0.10033
1407.91686	0.10117
1405.98821	0.10193
1404.05956	0.10253
1402.13090	0.10286
1400.20225	0.10283
1398.27360	0.10258
1396.34494	0.10223
1394.41629	0.10178
1392.48764	0.10121
1390.55898	0.10057
1388.63033	0.09990
1386.70168	0.09920
1384.77302	0.09848
1382.84437	0.09780
1380.91572	0.09710
1378.98707	0.09627
1377.05841	0.09527
1375.12976	0.09404
1373.20111	0.09264
1371.27245	0.09114
1369.34380	0.08953
1367.41515	0.08778
1365.48649	0.08597
1363.55784	0.08434
1361.62919	0.08313
1359.70053	0.08241
1357.77188	0.08207
1355.84323	0.08210
1353.91457	0.08254
1351.98592	0.08344
1350.05727	0.08470
1348.12861	0.08615
1346.19996	0.08771
1344.27131	0.08931
1342.34265	0.09080
1340.41400	0.09199
1338.48535	0.09276
1336.55669	0.09302
1334.62804	0.09261
1332.69939	0.09154
1330.77073	0.09011
1328.84208	0.08862
1326.91343	0.08725
1324.98477	0.08608
1323.05612	0.08518
1321.12747	0.08455
1319.19881	0.08410
1317.27016	0.08370
1315.34151	0.08327
1313.41286	0.08273
1311.48420	0.08209
1309.55555	0.08140
1307.62690	0.08075
1305.69824	0.08023
1303.76959	0.07985
1301.84094	0.07951
1299.91228	0.07918
1297.98363	0.07895
1296.05498	0.07897
1294.12632	0.07936
1292.19767	0.08010
1290.26902	0.08111
1288.34036	0.08233
1286.41171	0.08359
1284.48306	0.08467
1282.55440	0.08552
1280.62575	0.08615
1278.69710	0.08648
1276.76844	0.08650
1274.83979	0.08644
1272.91114	0.08655
1270.98248	0.08686
1269.05383	0.08725
1267.12518	0.08774
1265.19652	0.08848
1263.26787	0.08948
1261.33922	0.09069
1259.41056	0.09199
1257.48191	0.09331
1255.55326	0.09470
1253.62460	0.09629
1251.69595	0.09813
1249.76730	0.10011
1247.83864	0.10212
1245.90999	0.10408
1243.98134	0.10589
1242.05269	0.10751
1240.12403	0.10889
1238.19538	0.10987
1236.26673	0.11031
1234.33807	0.11020
1232.40942	0.10946
1230.48077	0.10806
1228.55211	0.10610
1226.62346	0.10375
1224.69481	0.10106
1222.76615	0.09820
1220.83750	0.09548
1218.90885	0.09317
1216.98019	0.09139
1215.05154	0.09017
1213.12289	0.08947
1211.19423	0.08923
1209.26558	0.08944
1207.33693	0.08996
1205.40827	0.09045
1203.47962	0.09054
1201.55097	0.09004
1199.62231	0.08895
1197.69366	0.08735
1195.76501	0.08542
1193.83635	0.08343
1191.90770	0.08146
1189.97905	0.07949
1188.05039	0.07771
1186.12174	0.07627
1184.19309	0.07511
1182.26443	0.07416
1180.33578	0.07346
1178.40713	0.07300
1176.47848	0.07268
1174.54982	0.07234
1172.62117	0.07199
1170.69252	0.07179
1168.76386	0.07179
1166.83521	0.07177
1164.90656	0.07168
1162.97790	0.07160
1161.04925	0.07135
1159.12060	0.07071
1157.19194	0.06968
1155.26329	0.06840
1153.33464	0.06702
1151.40598	0.06563
1149.47733	0.06415
1147.54868	0.06265
1145.62002	0.06132
1143.69137	0.06029
1141.76272	0.05948
1139.83406	0.05885
1137.90541	0.05837
1135.97676	0.05798
1134.04810	0.05766
1132.11945	0.05731
1130.19080	0.05697
1128.26214	0.05677
1126.33349	0.05671
1124.40484	0.05666
1122.47618	0.05655
1120.54753	0.05640
1118.61888	0.05627
1116.69022	0.05631
1114.76157	0.05654
1112.83292	0.05679
1110.90427	0.05705
1108.97561	0.05744
1107.04696	0.05788
1105.11831	0.05834
1103.18965	0.05893
1101.26100	0.05961
1099.33235	0.06028
1097.40369	0.06095
1095.47504	0.06171
1093.54639	0.06270
1091.61773	0.06405
1089.68908	0.06573
1087.76043	0.06755
1085.83177	0.06937
1083.90312	0.07098
1081.97447	0.07209
1080.04581	0.07253
1078.11716	0.07234
1076.18851	0.07175
1074.25985	0.07096
1072.33120	0.07024
1070.40255	0.06980
1068.47389	0.06961
1066.54524	0.06958
1064.61659	0.06955
1062.68793	0.06937
1060.75928	0.06904
1058.83063	0.06857
1056.90197	0.06795
1054.97332	0.06724
1053.04467	0.06648
1051.11601	0.06569
1049.18736	0.06503
1047.25871	0.06457
1045.33005	0.06413
1043.40140	0.06367
1041.47275	0.06346
1039.54410	0.06370
1037.61544	0.06428
1035.68679	0.06494
1033.75814	0.06549
1031.82948	0.06559
1029.90083	0.06506
1027.97218	0.06408
1026.04352	0.06285
1024.11487	0.06150
1022.18622	0.06018
1020.25756	0.05900
1018.32891	0.05806
1016.40026	0.05732
1014.47160	0.05660
1012.54295	0.05573
1010.61430	0.05474
1008.68564	0.05374
1006.75699	0.05290
1004.82834	0.05220
1002.89968	0.05146
1000.97103	0.05064
999.04238	0.04984
997.11372	0.04916
995.18507	0.04856
993.25642	0.04791
991.32776	0.04718
989.39911	0.04649
987.47046	0.04592
985.54180	0.04550
983.61315	0.04531
981.68450	0.04537
979.75584	0.04558
977.82719	0.04578
975.89854	0.04594
973.96989	0.04600
972.04123	0.04588
970.11258	0.04553
968.18393	0.04503
966.25527	0.04453
964.32662	0.04410
962.39797	0.04374
960.46931	0.04346
958.54066	0.04315
956.61201	0.04279
954.68335	0.04237
952.75470	0.04192
950.82605	0.04161
948.89739	0.04154
946.96874	0.04166
945.04009	0.04186
943.11143	0.04206
941.18278	0.04228
939.25413	0.04242
937.32547	0.04239
935.39682	0.04234
933.46817	0.04231
931.53951	0.04217
929.61086	0.04194
927.68221	0.04176
925.75355	0.04175
923.82490	0.04178
921.89625	0.04167
919.96759	0.04152
918.03894	0.04144
916.11029	0.04118
914.18163	0.04071
912.25298	0.04042
910.32433	0.04039
908.39567	0.04028
906.46702	0.03996
904.53837	0.03967
902.60972	0.03952
900.68106	0.03943
898.75241	0.03929
896.82376	0.03905
894.89510	0.03872
892.96645	0.03842
891.03780	0.03827
889.10914	0.03832
887.18049	0.03838
885.25184	0.03843
883.32318	0.03862
881.39453	0.03892
879.46588	0.03924
877.53722	0.03948
875.60857	0.03959
873.67992	0.03947
871.75126	0.03906
869.82261	0.03862
867.89396	0.03844
865.96530	0.03847
864.03665	0.03838
862.10800	0.03818
860.17934	0.03816
858.25069	0.03835
856.32204	0.03854
854.39338	0.03861
852.46473	0.03865
850.53608	0.03876
848.60742	0.03883
846.67877	0.03877
844.75012	0.03869
842.82146	0.03864
840.89281	0.03856
838.96416	0.03844
837.03551	0.03833
835.10685	0.03828
833.17820	0.03833
831.24955	0.03848
829.32089	0.03867
827.39224	0.03895
825.46359	0.03936
823.53493	0.03974
821.60628	0.03999
819.67763	0.04040
817.74897	0.04100
815.82032	0.04147
813.89167	0.04165
811.96301	0.04175
810.03436	0.04183
808.10571	0.04189
806.17705	0.04213
804.24840	0.04251
802.31975	0.04278
800.39109	0.04301
798.46244	0.04345
796.53379	0.04399
794.60513	0.04431
792.67648	0.04448
790.74783	0.04480
788.81917	0.04535
786.89052	0.04589
784.96187	0.04626
783.03321	0.04651
781.10456	0.04681
779.17591	0.04709
777.24725	0.04727
775.31860	0.04743
773.38995	0.04774
771.46130	0.04818
769.53264	0.04869
767.60399	0.04916
765.67534	0.04949
763.74668	0.04965
761.81803	0.04988
759.88938	0.05045
757.96072	0.05111
756.03207	0.05153
754.10342	0.05185
752.17476	0.05219
750.24611	0.05261
748.31746	0.05306
746.38880	0.05336
744.46015	0.05362
742.53150	0.05404
740.60284	0.05442
738.67419	0.05461
736.74554	0.05493
734.81688	0.05548
732.88823	0.05597
730.95958	0.05637
729.03092	0.05680
727.10227	0.05726
725.17362	0.05773
723.24496	0.05812
721.31631	0.05882
719.38766	0.05957
717.45900	0.06011
715.53035	0.06041
713.60170	0.06071
711.67304	0.06118
709.74439	0.06173
707.81574	0.06223
705.88708	0.06264
703.95843	0.06305
702.02978	0.06352
700.10113	0.06396
698.17247	0.06434
696.24382	0.06462
694.31517	0.06479
692.38651	0.06488
690.45786	0.06497
688.52921	0.06517
686.60055	0.06541
684.67190	0.06569
682.74325	0.06600
680.81459	0.06630
678.88594	0.06667
676.95729	0.06702
675.02863	0.06736
673.09998	0.06771
671.17133	0.06808
669.24267	0.06841
667.31402	0.06864
665.38537	0.06882
663.45671	0.06901
661.52806	0.06916
659.59941	0.06929
657.67075	0.06949
655.74210	0.06969
653.81345	0.06989
651.88479	0.07011
649.95614	0.07032
648.02749	0.07038
646.09883	0.07041
644.17018	0.07056
642.24153	0.07068
640.31287	0.07070
638.38422	0.07084
636.45557	0.07115
634.52692	0.07129
632.59826	0.07121
630.66961	0.07120
628.74096	0.07130
626.81230	0.07127
624.88365	0.07067
622.95500	0.06980
621.02634	0.06909
619.09769	0.06805
617.16904	0.06723
615.24038	0.06779
613.31173	0.06880
611.38308	0.06850
609.45442	0.06791
607.52577	0.06871
605.59712	0.06992
603.66846	0.07056
601.73981	0.07102
599.81116	0.07156
597.88250	0.07183
595.95385	0.07180
594.02520	0.07169
592.09654	0.07164
590.16789	0.07179
588.23924	0.07202
586.31058	0.07211
584.38193	0.07219
582.45328	0.07217
580.52462	0.07186
578.59597	0.07169
576.66732	0.07192
574.73866	0.07215
572.81001	0.07220
570.88136	0.07230
568.95270	0.07253
567.02405	0.07274
565.09540	0.07281
563.16675	0.07278
561.23809	0.07272
559.30944	0.07279
557.38079	0.07294
555.45213	0.07304
553.52348	0.07310
551.59483	0.07306
549.66617	0.07271
547.73752	0.07218
545.80887	0.07187
543.88021	0.07185
541.95156	0.07183
540.02291	0.07171
538.09425	0.07162
536.16560	0.07151
534.23695	0.07127
532.30829	0.07112
530.37964	0.07130
528.45099	0.07156
526.52233	0.07155
524.59368	0.07118
522.66503	0.07068
520.73637	0.07016
518.80772	0.06953
516.87907	0.06876
514.95041	0.06806
513.02176	0.06754
511.09311	0.06712
509.16445	0.06668
507.23580	0.06617
505.30715	0.06566
503.37849	0.06527
501.44984	0.06498
499.52119	0.06467
497.59254	0.06417
495.66388	0.06350
493.73523	0.06288
491.80658	0.06240
489.87792	0.06204
487.94927	0.06179
486.02062	0.06154
484.09196	0.06120
482.16331	0.06088
480.23466	0.06060
478.30600	0.06027
476.37735	0.05984
474.44870	0.05938
472.52004	0.05895
470.59139	0.05855
468.66274	0.05809
466.73408	0.05755
464.80543	0.05702
462.87678	0.05652
460.94812	0.05602
459.01947	0.05549
457.09082	0.05496
455.16216	0.05444
453.23351	0.05386
451.30486	0.05334
449.37620	0.05293
447.44755	0.05251
445.51890	0.05206
443.59024	0.05162
441.66159	0.05119
439.73294	0.05079
437.80428	0.05042
435.87563	0.05008
433.94698	0.04972
432.01833	0.04933
430.08967	0.04898
428.16102	0.04868
426.23237	0.04838
424.30371	0.04807
422.37506	0.04777
420.44641	0.04744
418.51775	0.04708
416.58910	0.04677
414.66045	0.04653
412.73179	0.04630
410.80314	0.04602
408.87449	0.04570
406.94583	0.04541
405.01718	0.04522
403.08853	0.04501
401.15987	0.04459
399.23122	0.04401
