3996.16951	0.03428
3994.24086	0.03456
3992.31220	0.03456
3990.38355	0.03445
3988.45490	0.03428
3986.52624	0.03387
3984.59759	0.03326
3982.66894	0.03283
3980.74028	0.03274
3978.81163	0.03290
3976.88298	0.03311
3974.95432	0.03323
3973.02567	0.03312
3971.09702	0.03281
3969.16836	0.03276
3967.23971	0.03329
3965.31106	0.03384
3963.38240	0.03398
3961.45375	0.03411
3959.52510	0.03442
3957.59645	0.03456
3955.66779	0.03437
3953.73914	0.03412
3951.81049	0.03404
3949.88183	0.03411
3947.95318	0.03394
3946.02453	0.03343
3944.09587	0.03301
3942.16722	0.03265
3940.23857	0.03230
3938.30991	0.03213
3936.38126	0.03198
3934.45261	0.03201
3932.52395	0.03219
3930.59530	0.03202
3928.66665	0.03172
3926.73799	0.03174
3924.80934	0.03179
3922.88069	0.03150
3920.95203	0.03137
3919.02338	0.03164
3917.09473	0.03212
3915.16607	0.03242
3913.23742	0.03235
3911.30877	0.03211
3909.38011	0.03218
3907.45146	0.03234
3905.52281	0.03202
3903.59415	0.03153
3901.66550	0.03162
3899.73685	0.03193
3897.80819	0.03163
3895.87954	0.03123
3893.95089	0.03129
3892.02224	0.03166
3890.09358	0.03133
3888.16493	0.03083
3886.23628	0.03115
3884.30762	0.03114
3882.37897	0.03088
3880.45032	0.03086
3878.52166	0.03091
3876.59301	0.03135
3874.66436	0.03134
3872.73570	0.03084
3870.80705	0.03135
3868.87840	0.03166
3866.94974	0.03150
3865.02109	0.03164
3863.09244	0.03148
3861.16378	0.03134
3859.23513	0.03096
3857.30648	0.03051
3855.37782	0.03112
3853.44917	0.03152
3851.52052	0.03066
3849.59186	0.03022
3847.66321	0.03003
3845.73456	0.02938
3843.80590	0.02861
3841.87725	0.02811
3839.94860	0.02864
3838.01994	0.02971
3836.09129	0.02960
3834.16264	0.02917
3832.23398	0.02913
3830.30533	0.02906
3828.37668	0.02927
3826.44803	0.02937
3824.51937	0.02875
3822.59072	0.02879
3820.66207	0.02907
3818.73341	0.02907
3816.80476	0.02982
3814.87611	0.02963
3812.94745	0.02871
3811.01880	0.02833
3809.09015	0.02861
3807.16149	0.02919
3805.23284	0.02850
3803.30419	0.02804
3801.37553	0.02862
3799.44688	0.02892
3797.51823	0.02940
3795.58957	0.02913
3793.66092	0.02833
3791.73227	0.02849
3789.80361	0.02926
3787.87496	0.02979
3785.94631	0.02984
3784.01765	0.02929
3782.08900	0.02866
3780.16035	0.02863
3778.23169	0.02841
3776.30304	0.02774
3774.37439	0.02755
3772.44573	0.02822
3770.51708	0.02880
3768.58843	0.02829
3766.65977	0.02784
3764.73112	0.02782
3762.80247	0.02767
3760.87381	0.02776
3758.94516	0.02811
3757.01651	0.02831
3755.08786	0.02809
3753.15920	0.02831
3751.23055	0.02879
3749.30190	0.02846
3747.37324	0.02739
3745.44459	0.02773
3743.51594	0.02760
3741.58728	0.02678
3739.65863	0.02684
3737.72998	0.02689
3735.80132	0.02678
3733.87267	0.02666
3731.94402	0.02650
3730.01536	0.02566
3728.08671	0.02582
3726.15806	0.02709
3724.22940	0.02766
3722.30075	0.02715
3720.37210	0.02623
3718.44344	0.02575
3716.51479	0.02581
3714.58614	0.02611
3712.65748	0.02643
3710.72883	0.02650
3708.80018	0.02655
3706.87152	0.02651
3704.94287	0.02656
3703.01422	0.02696
3701.08556	0.02702
3699.15691	0.02659
3697.22826	0.02630
3695.29960	0.02596
3693.37095	0.02565
3691.44230	0.02576
3689.51365	0.02628
3687.58499	0.02620
3685.65634	0.02579
3683.72769	0.02617
3681.79903	0.02655
3679.87038	0.02620
3677.94173	0.02565
3676.01307	0.02551
3674.08442	0.02457
3672.15577	0.02455
3670.22711	0.02576
3668.29846	0.02619
3666.36981	0.02619
3664.44115	0.02592
3662.51250	0.02572
3660.58385	0.02581
3658.65519	0.02588
3656.72654	0.02580
3654.79789	0.02516
3652.86923	0.02493
3650.94058	0.02577
3649.01193	0.02655
3647.08327	0.02683
3645.15462	0.02723
3643.22597	0.02779
3641.29731	0.02802
3639.36866	0.02767
3637.44001	0.02714
3635.51135	0.02715
3633.58270	0.02728
3631.65405	0.02719
3629.72539	0.02755
3627.79674	0.02756
3625.86809	0.02729
3623.93943	0.02728
3622.01078	0.02748
3620.08213	0.02841
3618.15348	0.02944
3616.22482	0.02999
3614.29617	0.03003
3612.36752	0.02965
3610.43886	0.02972
3608.51021	0.03020
3606.58156	0.03042
3604.65290	0.03066
3602.72425	0.03076
3600.79560	0.03069
3598.86694	0.03079
3596.93829	0.03107
3595.00964	0.03121
3593.08098	0.03116
3591.15233	0.03121
3589.22368	0.03130
3587.29502	0.03105
3585.36637	0.03102
3583.43772	0.03184
3581.50906	0.03268
3579.58041	0.03300
3577.65176	0.03329
3575.72310	0.03363
3573.79445	0.03357
3571.86580	0.03326
3569.93714	0.03329
3568.00849	0.03373
3566.07984	0.03422
3564.15118	0.03477
3562.22253	0.03515
3560.29388	0.03517
3558.36522	0.03537
3556.43657	0.03584
3554.50792	0.03609
3552.57927	0.03613
3550.65061	0.03623
3548.72196	0.03653
3546.79331	0.03683
3544.86465	0.03694
3542.93600	0.03712
3541.00735	0.03731
3539.07869	0.03730
3537.15004	0.03725
3535.22139	0.03737
3533.29273	0.03775
3531.36408	0.03830
3529.43543	0.03868
3527.50677	0.03879
3525.57812	0.03889
3523.64947	0.03909
3521.72081	0.03913
3519.79216	0.03914
3517.86351	0.03956
3515.93485	0.04023
3514.00620	0.04055
3512.07755	0.04042
3510.14889	0.04036
3508.22024	0.04057
3506.29159	0.04094
3504.36293	0.04145
3502.43428	0.04178
3500.50563	0.04175
3498.57697	0.04172
3496.64832	0.04194
3494.71967	0.04237
3492.79101	0.04281
3490.86236	0.04302
3488.93371	0.04305
3487.00506	0.04299
3485.07640	0.04293
3483.14775	0.04302
3481.21910	0.04312
3479.29044	0.04308
3477.36179	0.04317
3475.43314	0.04355
3473.50448	0.04390
3471.57583	0.04413
3469.64718	0.04451
3467.71852	0.04504
3465.78987	0.04548
3463.86122	0.04550
3461.93256	0.04518
3460.00391	0.04508
3458.07526	0.04539
3456.14660	0.04575
3454.21795	0.04592
3452.28930	0.04612
3450.36064	0.04647
3448.43199	0.04680
3446.50334	0.04668
3444.57468	0.04634
3442.64603	0.04641
3440.71738	0.04660
3438.78872	0.04657
3436.86007	0.04682
3434.93142	0.04744
3433.00276	0.04808
3431.07411	0.04856
3429.14546	0.04853
3427.21680	0.04807
3425.28815	0.04792
3423.35950	0.04841
3421.43084	0.04901
3419.50219	0.04912
3417.57354	0.04902
3415.64489	0.04940
3413.71623	0.05007
3411.78758	0.05027
3409.85893	0.05007
3407.93027	0.05002
3406.00162	0.05006
3404.07297	0.05005
3402.14431	0.05022
3400.21566	0.05056
3398.28701	0.05061
3396.35835	0.05047
3394.42970	0.05075
3392.50105	0.05133
3390.57239	0.05161
3388.64374	0.05165
3386.71509	0.05167
3384.78643	0.05151
3382.85778	0.05116
3380.92913	0.05097
3379.00047	0.05126
3377.07182	0.05185
3375.14317	0.05225
3373.21451	0.05232
3371.28586	0.05250
3369.35721	0.05294
3367.42855	0.05328
3365.49990	0.05346
3363.57125	0.05386
3361.64259	0.05445
3359.71394	0.05472
3357.78529	0.05460
3355.85663	0.05453
3353.92798	0.05480
3351.99933	0.05543
3350.07068	0.05620
3348.14202	0.05691
3346.21337	0.05737
3344.28472	0.05743
3342.35606	0.05746
3340.42741	0.05779
3338.49876	0.05808
3336.57010	0.05814
3334.64145	0.05823
3332.71280	0.05865
3330.78414	0.05954
3328.85549	0.06065
3326.92684	0.06135
3324.99818	0.06133
3323.06953	0.06113
3321.14088	0.06117
3319.21222	0.06126
3317.28357	0.06126
3315.35492	0.06147
3313.42626	0.06201
3311.49761	0.06243
3309.56896	0.06245
3307.64030	0.06218
3305.71165	0.06194
3303.78300	0.06195
3301.85434	0.06220
3299.92569	0.06239
3297.99704	0.06240
3296.06838	0.06232
3294.13973	0.06212
3292.21108	0.06178
3290.28242	0.06168
3288.35377	0.06195
3286.42512	0.06209
3284.49646	0.06203
3282.56781	0.06222
3280.63916	0.06248
3278.71051	0.06241
3276.78185	0.06210
3274.85320	0.06170
3272.92455	0.06118
3270.99589	0.06076
3269.06724	0.06067
3267.13859	0.06086
3265.20993	0.06114
3263.28128	0.06113
3261.35263	0.06073
3259.42397	0.06032
3257.49532	0.06016
3255.56667	0.06004
3253.63801	0.05969
3251.70936	0.05914
3249.78071	0.05872
3247.85205	0.05861
3245.92340	0.05883
3243.99475	0.05919
3242.06609	0.05921
3240.13744	0.05876
3238.20879	0.05827
3236.28013	0.05811
3234.35148	0.05802
3232.42283	0.05767
3230.49417	0.05721
3228.56552	0.05700
3226.63687	0.05710
3224.70821	0.05715
3222.77956	0.05698
3220.85091	0.05676
3218.92225	0.05682
3216.99360	0.05697
3215.06495	0.05687
3213.13630	0.05652
3211.20764	0.05611
3209.27899	0.05577
3207.35034	0.05556
3205.42168	0.05542
3203.49303	0.05544
3201.56438	0.05570
3199.63572	0.05582
3197.70707	0.05541
3195.77842	0.05462
3193.84976	0.05383
3191.92111	0.05347
3189.99246	0.05373
3188.06380	0.05428
3186.13515	0.05443
3184.20650	0.05407
3182.27784	0.05362
3180.34919	0.05329
3178.42054	0.05292
3176.49188	0.05249
3174.56323	0.05217
3172.63458	0.05185
3170.70592	0.05125
3168.77727	0.05061
3166.84862	0.05034
3164.91996	0.05013
3162.99131	0.04968
3161.06266	0.04932
3159.13400	0.04925
3157.20535	0.04911
3155.27670	0.04885
3153.34804	0.04876
3151.41939	0.04879
3149.49074	0.04859
3147.56209	0.04810
3145.63343	0.04761
3143.70478	0.04737
3141.77613	0.04745
3139.84747	0.04765
3137.91882	0.04754
3135.99017	0.04702
3134.06151	0.04645
3132.13286	0.04616
3130.20421	0.04612
3128.27555	0.04604
3126.34690	0.04579
3124.41825	0.04558
3122.48959	0.04549
3120.56094	0.04543
3118.63229	0.04555
3116.70363	0.04573
3114.77498	0.04560
3112.84633	0.04530
3110.91767	0.04518
3108.98902	0.04515
3107.06037	0.04516
3105.13171	0.04537
3103.20306	0.04561
3101.27441	0.04549
3099.34575	0.04501
3097.41710	0.04469
3095.48845	0.04485
3093.55979	0.04521
3091.63114	0.04546
3089.70249	0.04555
3087.77383	0.04553
3085.84518	0.04548
3083.91653	0.04553
3081.98787	0.04560
3080.05922	0.04567
3078.13057	0.04584
3076.20192	0.04600
3074.27326	0.04598
3072.34461	0.04584
3070.41596	0.04583
3068.48730	0.04589
3066.55865	0.04580
3064.63000	0.04555
3062.70134	0.04541
3060.77269	0.04543
3058.84404	0.04548
3056.91538	0.04541
3054.98673	0.04514
3053.05808	0.04474
3051.12942	0.04441
3049.20077	0.04420
3047.27212	0.04397
3045.34346	0.04358
3043.41481	0.04322
3041.48616	0.04309
3039.55750	0.04304
3037.62885	0.04277
3035.70020	0.04239
3033.77154	0.04215
3031.84289	0.04207
3029.91424	0.04200
3027.98558	0.04193
3026.05693	0.04180
3024.12828	0.04144
3022.19962	0.04086
3020.27097	0.04028
3018.34232	0.03980
3016.41366	0.03951
3014.48501	0.03955
3012.55636	0.03980
3010.62771	0.03995
3008.69905	0.03998
3006.77040	0.04006
3004.84175	0.04015
3002.91309	0.04013
3000.98444	0.04007
2999.05579	0.04009
2997.12713	0.04013
2995.19848	0.04019
2993.26983	0.04024
2991.34117	0.04036
2989.41252	0.04056
2987.48387	0.04064
2985.55521	0.04058
2983.62656	0.04079
2981.69791	0.04137
2979.76925	0.04192
2977.84060	0.04215
2975.91195	0.04211
2973.98329	0.04206
2972.05464	0.04225
2970.12599	0.04268
2968.19733	0.04308
2966.26868	0.04347
2964.34003	0.04406
2962.41137	0.04462
2960.48272	0.04488
2958.55407	0.04502
2956.62541	0.04526
2954.69676	0.04537
2952.76811	0.04514
2950.83945	0.04476
2948.91080	0.04465
2946.98215	0.04496
2945.05349	0.04532
2943.12484	0.04563
2941.19619	0.04622
2939.26754	0.04703
2937.33888	0.04759
2935.41023	0.04767
2933.48158	0.04761
2931.55292	0.04781
2929.62427	0.04840
2927.69562	0.04926
2925.76696	0.04986
2923.83831	0.05001
2921.90966	0.04990
2919.98100	0.04950
2918.05235	0.04887
2916.12370	0.04805
2914.19504	0.04692
2912.26639	0.04575
2910.33774	0.04488
2908.40908	0.04416
2906.48043	0.04351
2904.55178	0.04300
2902.62312	0.04253
2900.69447	0.04215
2898.76582	0.04202
2896.83716	0.04207
2894.90851	0.04192
2892.97986	0.04141
2891.05120	0.04096
2889.12255	0.04090
2887.19390	0.04103
2885.26524	0.04108
2883.33659	0.04101
2881.40794	0.04088
2879.47928	0.04084
2877.55063	0.04084
2875.62198	0.04076
2873.69333	0.04072
2871.76467	0.04069
2869.83602	0.04055
2867.90737	0.04035
2865.97871	0.04018
2864.05006	0.04003
2862.12141	0.03993
2860.19275	0.04000
2858.26410	0.04029
2856.33545	0.04065
2854.40679	0.04092
2852.47814	0.04105
2850.54949	0.04088
2848.62083	0.04023
2846.69218	0.03931
2844.76353	0.03845
2842.83487	0.03763
2840.90622	0.03681
2838.97757	0.03619
2837.04891	0.03598
2835.12026	0.03600
2833.19161	0.03588
2831.26295	0.03551
2829.33430	0.03502
2827.40565	0.03471
2825.47699	0.03466
2823.54834	0.03458
2821.61969	0.03430
2819.69103	0.03402
2817.76238	0.03394
2815.83373	0.03399
2813.90507	0.03397
2811.97642	0.03390
2810.04777	0.03378
2808.11912	0.03353
2806.19046	0.03330
2804.26181	0.03321
2802.33316	0.03323
2800.40450	0.03329
2798.47585	0.03318
2796.54720	0.03289
2794.61854	0.03259
2792.68989	0.03241
2790.76124	0.03230
2788.83258	0.03224
2786.90393	0.03215
2784.97528	0.03202
2783.04662	0.03192
2781.11797	0.03186
2779.18932	0.03179
2777.26066	0.03176
2775.33201	0.03176
2773.40336	0.03168
2771.47470	0.03150
2769.54605	0.03139
2767.61740	0.03138
2765.68874	0.03133
2763.76009	0.03125
2761.83144	0.03123
2759.90278	0.03124
2757.97413	0.03115
2756.04548	0.03097
2754.11682	0.03084
2752.18817	0.03091
2750.25952	0.03104
2748.33086	0.03100
2746.40221	0.03085
2744.47356	0.03073
2742.54490	0.03054
2740.61625	0.03015
2738.68760	0.02983
2736.75895	0.02995
2734.83029	0.03016
2732.90164	0.03004
2730.97299	0.02984
2729.04433	0.02975
2727.11568	0.02975
2725.18703	0.02978
2723.25837	0.02979
2721.32972	0.02984
2719.40107	0.02987
2717.47241	0.02963
2715.54376	0.02924
2713.61511	0.02900
2711.68645	0.02892
2709.75780	0.02886
2707.82915	0.02884
2705.90049	0.02887
2703.97184	0.02888
2702.04319	0.02885
2700.11453	0.02884
2698.18588	0.02887
2696.25723	0.02886
2694.32857	0.02868
2692.39992	0.02843
2690.47127	0.02827
2688.54261	0.02822
2686.61396	0.02822
2684.68531	0.02822
2682.75665	0.02817
2680.82800	0.02803
2678.89935	0.02791
2676.97069	0.02788
2675.04204	0.02790
2673.11339	0.02804
2671.18474	0.02820
2669.25608	0.02807
2667.32743	0.02768
2665.39878	0.02748
2663.47012	0.02770
2661.54147	0.02794
2659.61282	0.02771
2657.68416	0.02718
2655.75551	0.02668
2653.82686	0.02636
2651.89820	0.02628
2649.96955	0.02631
2648.04090	0.02621
2646.11224	0.02599
2644.18359	0.02574
2642.25494	0.02554
2640.32628	0.02545
2638.39763	0.02533
2636.46898	0.02509
2634.54032	0.02481
2632.61167	0.02454
2630.68302	0.02440
2628.75436	0.02438
2626.82571	0.02437
2624.89706	0.02447
2622.96840	0.02458
2621.03975	0.02446
2619.11110	0.02412
2617.18244	0.02383
2615.25379	0.02379
2613.32514	0.02389
2611.39648	0.02386
2609.46783	0.02343
2607.53918	0.02274
2605.61052	0.02234
2603.68187	0.02262
2601.75322	0.02322
2599.82457	0.02348
2597.89591	0.02319
2595.96726	0.02284
2594.03861	0.02290
2592.10995	0.02299
2590.18130	0.02280
2588.25265	0.02248
2586.32399	0.02218
2584.39534	0.02196
2582.46669	0.02190
2580.53803	0.02194
2578.60938	0.02192
2576.68073	0.02175
2574.75207	0.02155
2572.82342	0.02166
2570.89477	0.02194
2568.96611	0.02179
2567.03746	0.02130
2565.10881	0.02105
2563.18015	0.02113
2561.25150	0.02127
2559.32285	0.02131
2557.39419	0.02141
2555.46554	0.02163
2553.53689	0.02178
2551.60823	0.02169
2549.67958	0.02149
2547.75093	0.02120
2545.82227	0.02093
2543.89362	0.02097
2541.96497	0.02108
2540.03631	0.02086
2538.10766	0.02055
2536.17901	0.02048
2534.25036	0.02046
2532.32170	0.02033
2530.39305	0.02028
2528.46440	0.02043
2526.53574	0.02057
2524.60709	0.02046
2522.67844	0.02026
2520.74978	0.02021
2518.82113	0.02004
2516.89248	0.01966
2514.96382	0.01950
2513.03517	0.01973
2511.10652	0.02010
2509.17786	0.02032
2507.24921	0.02012
2505.32056	0.01960
2503.39190	0.01933
2501.46325	0.01948
2499.53460	0.01965
2497.60594	0.01960
2495.67729	0.01962
2493.74864	0.02008
2491.81998	0.02042
2489.89133	0.02003
2487.96268	0.01951
2486.03402	0.01956
2484.10537	0.01985
2482.17672	0.01987
2480.24806	0.01958
2478.31941	0.01924
2476.39076	0.01913
2474.46210	0.01922
2472.53345	0.01916
2470.60480	0.01909
2468.67615	0.01925
2466.74749	0.01937
2464.81884	0.01944
2462.89019	0.01969
2460.96153	0.01967
2459.03288	0.01916
2457.10423	0.01868
2455.17557	0.01852
2453.24692	0.01845
2451.31827	0.01841
2449.38961	0.01847
2447.46096	0.01844
2445.53231	0.01843
2443.60365	0.01860
2441.67500	0.01862
2439.74635	0.01855
2437.81769	0.01875
2435.88904	0.01893
2433.96039	0.01886
2432.03173	0.01876
2430.10308	0.01866
2428.17443	0.01856
2426.24577	0.01857
2424.31712	0.01868
2422.38847	0.01881
2420.45981	0.01885
2418.53116	0.01896
2416.60251	0.01920
2414.67385	0.01921
2412.74520	0.01897
2410.81655	0.01895
2408.88789	0.01925
2406.95924	0.01953
2405.03059	0.01945
2403.10193	0.01914
2401.17328	0.01903
2399.24463	0.01910
2397.31598	0.01893
2395.38732	0.01868
2393.45867	0.01892
2391.53002	0.01946
2389.60136	0.01961
2387.67271	0.01938
2385.74406	0.01925
2383.81540	0.01935
2381.88675	0.01952
2379.95810	0.01970
2378.02944	0.02000
2376.10079	0.02001
2374.17214	0.01959
2372.24348	0.01939
2370.31483	0.02040
2368.38618	0.01929
2366.45752	0.01935
2364.52887	0.01912
2362.60022	0.01983
2360.67156	0.01911
2358.74291	0.02088
2356.81426	0.01935
2354.88560	0.01960
2352.95695	0.02023
2351.02830	0.01950
2349.09964	0.01946
2347.17099	0.01924
2345.24234	0.01923
2343.31368	0.01905
2341.38503	0.01974
2339.45638	0.02075
2337.52772	0.01971
2335.59907	0.01827
2333.67042	0.01847
2331.74177	0.01894
2329.81311	0.01902
2327.88446	0.01875
2325.95581	0.01811
2324.02715	0.01748
2322.09850	0.01744
2320.16985	0.01773
2318.24119	0.01784
2316.31254	0.01762
2314.38389	0.01732
2312.45523	0.01723
2310.52658	0.01732
2308.59793	0.01729
2306.66927	0.01711
2304.74062	0.01704
2302.81197	0.01698
2300.88331	0.01688
2298.95466	0.01657
2297.02601	0.01612
2295.09735	0.01560
2293.16870	0.01512
2291.24005	0.01477
2289.31139	0.01471
2287.38274	0.01469
2285.45409	0.01448
2283.52543	0.01442
2281.59678	0.01474
2279.66813	0.01502
2277.73947	0.01485
2275.81082	0.01448
2273.88217	0.01418
2271.95351	0.01396
2270.02486	0.01395
2268.09621	0.01409
2266.16755	0.01410
2264.23890	0.01403
2262.31025	0.01406
2260.38160	0.01398
2258.45294	0.01358
2256.52429	0.01329
2254.59564	0.01330
2252.66698	0.01312
2250.73833	0.01279
2248.80968	0.01271
2246.88102	0.01261
2244.95237	0.01215
2243.02372	0.01179
2241.09506	0.01186
2239.16641	0.01209
2237.23776	0.01206
2235.30910	0.01171
2233.38045	0.01161
2231.45180	0.01202
2229.52314	0.01241
2227.59449	0.01240
2225.66584	0.01242
2223.73718	0.01281
2221.80853	0.01260
2219.87988	0.01128
2217.95122	0.01035
2216.02257	0.01064
2214.09392	0.01098
2212.16526	0.01065
2210.23661	0.00983
2208.30796	0.00938
2206.37930	0.00979
2204.45065	0.00974
2202.52200	0.00903
2200.59334	0.00907
2198.66469	0.00983
2196.73604	0.01052
2194.80739	0.01066
2192.87873	0.01006
2190.95008	0.00922
2189.02143	0.00890
2187.09277	0.00911
2185.16412	0.00883
2183.23547	0.00785
2181.30681	0.00721
2179.37816	0.00710
2177.44951	0.00711
2175.52085	0.00693
2173.59220	0.00660
2171.66355	0.00609
2169.73489	0.00514
2167.80624	0.00411
2165.87759	0.00337
2163.94893	0.00292
2162.02028	0.00294
2160.09163	0.00332
2158.16297	0.00462
2156.23432	0.00696
2154.30567	0.00835
2152.37701	0.00809
2150.44836	0.00818
2148.51971	0.00926
2146.59105	0.00975
2144.66240	0.00952
2142.73375	0.00959
2140.80509	0.01027
2138.87644	0.01124
2136.94779	0.01185
2135.01913	0.01196
2133.09048	0.01198
2131.16183	0.01222
2129.23318	0.01270
2127.30452	0.01304
2125.37587	0.01297
2123.44722	0.01259
2121.51856	0.01201
2119.58991	0.01167
2117.66126	0.01184
2115.73260	0.01196
2113.80395	0.01187
2111.87530	0.01179
2109.94664	0.01147
2108.01799	0.01096
2106.08934	0.01076
2104.16068	0.01082
2102.23203	0.01064
2100.30338	0.01025
2098.37472	0.01004
2096.44607	0.01073
2094.51742	0.01167
2092.58876	0.01203
2090.66011	0.01196
2088.73146	0.01199
2086.80280	0.01196
2084.87415	0.01163
2082.94550	0.01091
2081.01684	0.00995
2079.08819	0.00880
2077.15954	0.00797
2075.23088	0.00788
2073.30223	0.00797
2071.37358	0.00776
2069.44492	0.00746
2067.51627	0.00739
2065.58762	0.00733
2063.65896	0.00723
2061.73031	0.00773
2059.80166	0.00869
2057.87301	0.00914
2055.94435	0.00899
2054.01570	0.00860
2052.08705	0.00780
2050.15839	0.00634
2048.22974	0.00483
2046.30109	0.00437
2044.37243	0.00513
2042.44378	0.00602
2040.51513	0.00623
2038.58647	0.00581
2036.65782	0.00514
2034.72917	0.00479
2032.80051	0.00525
2030.87186	0.00597
2028.94321	0.00577
2027.01455	0.00475
2025.08590	0.00408
2023.15725	0.00406
2021.22859	0.00455
2019.29994	0.00522
2017.37129	0.00542
2015.44263	0.00546
2013.51398	0.00582
2011.58533	0.00609
2009.65667	0.00570
2007.72802	0.00476
2005.79937	0.00430
2003.87071	0.00537
2001.94206	0.00731
2000.01341	0.00852
1998.08475	0.00860
1996.15610	0.00820
1994.22745	0.00780
1992.29880	0.00766
1990.37014	0.00770
1988.44149	0.00754
1986.51284	0.00724
1984.58418	0.00705
1982.65553	0.00644
1980.72688	0.00461
1978.79822	0.00246
1976.86957	0.00164
1974.94092	0.00191
1973.01226	0.00233
1971.08361	0.00295
1969.15496	0.00379
1967.22630	0.00469
1965.29765	0.00565
1963.36900	0.00667
1961.44034	0.00773
1959.51169	0.00857
1957.58304	0.00871
1955.65438	0.00832
1953.72573	0.00808
1951.79708	0.00802
1949.86842	0.00804
1947.93977	0.00837
1946.01112	0.00882
1944.08246	0.00898
1942.15381	0.00877
1940.22516	0.00857
1938.29650	0.00866
1936.36785	0.00891
1934.43920	0.00921
1932.51054	0.00926
1930.58189	0.00895
1928.65324	0.00880
1926.72458	0.00903
1924.79593	0.00936
1922.86728	0.00980
1920.93863	0.01016
1919.00997	0.01012
1917.08132	0.00986
1915.15267	0.00964
1913.22401	0.00946
1911.29536	0.00937
1909.36671	0.00934
1907.43805	0.00935
1905.50940	0.00944
1903.58075	0.00948
1901.65209	0.00950
1899.72344	0.00953
1897.79479	0.00958
1895.86613	0.00979
1893.93748	0.00987
1892.00883	0.00968
1890.08017	0.00956
1888.15152	0.00957
1886.22287	0.00966
1884.29421	0.00981
1882.36556	0.00995
1880.43691	0.01003
1878.50825	0.00997
1876.57960	0.00985
1874.65095	0.00978
1872.72229	0.00962
1870.79364	0.00947
1868.86499	0.00946
1866.93633	0.00963
1865.00768	0.00996
1863.07903	0.01018
1861.15037	0.01015
1859.22172	0.01004
1857.29307	0.01013
1855.36442	0.01045
1853.43576	0.01048
1851.50711	0.00997
1849.57846	0.00945
1847.64980	0.00935
1845.72115	0.00973
1843.79250	0.01023
1841.86384	0.01034
1839.93519	0.01018
1838.00654	0.00998
1836.07788	0.00992
1834.14923	0.00994
1832.22058	0.00995
1830.29192	0.01002
1828.36327	0.01004
1826.43462	0.00997
1824.50596	0.00964
1822.57731	0.00910
1820.64866	0.00890
1818.72000	0.00919
1816.79135	0.00977
1814.86270	0.01026
1812.93404	0.01044
1811.00539	0.01036
1809.07674	0.01012
1807.14808	0.00994
1805.21943	0.01001
1803.29078	0.01021
1801.36212	0.01025
1799.43347	0.01000
1797.50482	0.00967
1795.57616	0.00948
1793.64751	0.00952
1791.71886	0.00958
1789.79021	0.00952
1787.86155	0.00954
1785.93290	0.00959
1784.00425	0.00956
1782.07559	0.00950
1780.14694	0.00948
1778.21829	0.00941
1776.28963	0.00934
1774.36098	0.00948
1772.43233	0.00973
1770.50367	0.00971
1768.57502	0.00976
1766.64637	0.00976
1764.71771	0.00974
1762.78906	0.00987
1760.86041	0.00975
1758.93175	0.00967
1757.00310	0.00993
1755.07445	0.01005
1753.14579	0.01015
1751.21714	0.01037
1749.28849	0.01055
1747.35983	0.01091
1745.43118	0.01126
1743.50253	0.01140
1741.57387	0.01149
1739.64522	0.01152
1737.71657	0.01132
1735.78791	0.01162
1733.85926	0.01213
1731.93061	0.01199
1730.00195	0.01203
1728.07330	0.01236
1726.14465	0.01260
1724.21599	0.01274
1722.28734	0.01270
1720.35869	0.01272
1718.43004	0.01312
1716.50138	0.01344
1714.57273	0.01366
1712.64408	0.01413
1710.71542	0.01471
1708.78677	0.01537
1706.85812	0.01621
1704.92946	0.01703
1703.00081	0.01790
1701.07216	0.01944
1699.14350	0.02078
1697.21485	0.02242
1695.28620	0.02442
1693.35754	0.02584
1691.42889	0.02752
1689.50024	0.02924
1687.57158	0.03081
1685.64293	0.03281
1683.71428	0.03457
1681.78562	0.03606
1679.85697	0.03827
1677.92832	0.04080
1675.99966	0.04339
1674.07101	0.04567
1672.14236	0.04797
1670.21370	0.05068
1668.28505	0.05320
1666.35640	0.05544
1664.42774	0.05787
1662.49909	0.06033
1660.57044	0.06256
1658.64178	0.06453
1656.71313	0.06601
1654.78448	0.06769
1652.85583	0.06934
1650.92717	0.07005
1648.99852	0.07110
1647.06987	0.07255
1645.14121	0.07348
1643.21256	0.07422
1641.28391	0.07512
1639.35525	0.07578
1637.42660	0.07644
1635.49795	0.07714
1633.56929	0.07729
1631.64064	0.07731
1629.71199	0.07730
1627.78333	0.07683
1625.85468	0.07580
1623.92603	0.07445
1621.99737	0.07257
1620.06872	0.07035
1618.14007	0.06838
1616.21141	0.06626
1614.28276	0.06369
1612.35411	0.06137
1610.42545	0.05917
1608.49680	0.05694
1606.56815	0.05477
1604.63949	0.05271
1602.71084	0.05077
1600.78219	0.04898
1598.85353	0.04737
1596.92488	0.04590
1594.99623	0.04457
1593.06757	0.04345
1591.13892	0.04264
1589.21027	0.04206
1587.28161	0.04160
1585.35296	0.04127
1583.42431	0.04113
1581.49566	0.04113
1579.56700	0.04124
1577.63835	0.04185
1575.70970	0.04262
1573.78104	0.04316
1571.85239	0.04429
1569.92374	0.04582
1567.99508	0.04711
1566.06643	0.04843
1564.13778	0.04978
1562.20912	0.05116
1560.28047	0.05305
1558.35182	0.05466
1556.42316	0.05587
1554.49451	0.05735
1552.56586	0.05852
1550.63720	0.05943
1548.70855	0.06024
1546.77990	0.06101
1544.85124	0.06169
1542.92259	0.06211
1540.99394	0.06256
1539.06528	0.06281
1537.13663	0.06266
1535.20798	0.06280
1533.27932	0.06291
1531.35067	0.06260
1529.42202	0.06230
1527.49336	0.06199
1525.56471	0.06145
1523.63606	0.06087
1521.70740	0.06050
1519.77875	0.05985
1517.85010	0.05922
1515.92145	0.05859
1513.99279	0.05765
1512.06414	0.05652
1510.13549	0.05511
1508.20683	0.05383
1506.27818	0.05247
1504.34953	0.05062
1502.42087	0.04899
1500.49222	0.04759
1498.56357	0.04606
1496.63491	0.04447
1494.70626	0.04270
1492.77761	0.04109
1490.84895	0.03985
1488.92030	0.03860
1486.99165	0.03740
1485.06299	0.03644
1483.13434	0.03583
1481.20569	0.03552
1479.27703	0.03539
1477.34838	0.03547
1475.41973	0.03579
1473.49107	0.03645
1471.56242	0.03714
1469.63377	0.03781
1467.70511	0.03875
1465.77646	0.03984
1463.84781	0.04075
1461.91915	0.04150
1459.99050	0.04237
1458.06185	0.04348
1456.13319	0.04429
1454.20454	0.04473
1452.27589	0.04533
1450.34724	0.04570
1448.41858	0.04570
1446.48993	0.04549
1444.56128	0.04524
1442.63262	0.04492
1440.70397	0.04445
1438.77532	0.04401
1436.84666	0.04346
1434.91801	0.04243
1432.98936	0.04141
1431.06070	0.04069
1429.13205	0.04008
1427.20340	0.03964
1425.27474	0.03940
1423.34609	0.03917
1421.41744	0.03905
1419.48878	0.03909
1417.56013	0.03888
1415.63148	0.03877
1413.70282	0.03891
1411.77417	0.03909
1409.84552	0.03922
1407.91686	0.03939
1405.98821	0.03969
1404.05956	0.03990
1402.13090	0.03990
1400.20225	0.03987
1398.27360	0.03978
1396.34494	0.03966
1394.41629	0.03957
1392.48764	0.03943
1390.55898	0.03938
1388.63033	0.03940
1386.70168	0.03927
1384.77302	0.03902
1382.84437	0.03884
1380.91572	0.03866
1378.98707	0.03842
1377.05841	0.03812
1375.12976	0.03775
1373.20111	0.03730
1371.27245	0.03681
1369.34380	0.03633
1367.41515	0.03575
1365.48649	0.03518
1363.55784	0.03471
1361.62919	0.03423
1359.70053	0.03378
1357.77188	0.03351
1355.84323	0.03349
1353.91457	0.03362
1351.98592	0.03382
1350.05727	0.03412
1348.12861	0.03454
1346.19996	0.03505
1344.27131	0.03555
1342.34265	0.03602
1340.41400	0.03641
1338.48535	0.03670
1336.55669	0.03689
1334.62804	0.03692
1332.69939	0.03667
1330.77073	0.03621
1328.84208	0.03573
1326.91343	0.03534
1324.98477	0.03501
1323.05612	0.03473
1321.12747	0.03451
1319.19881	0.03436
1317.27016	0.03424
1315.34151	0.03412
1313.41286	0.03394
1311.48420	0.03371
1309.55555	0.03347
1307.62690	0.03323
1305.69824	0.03302
1303.76959	0.03289
1301.84094	0.03278
1299.91228	0.03259
1297.98363	0.03241
1296.05498	0.03238
1294.12632	0.03252
1292.19767	0.03275
1290.26902	0.03304
1288.34036	0.03336
1286.41171	0.03374
1284.48306	0.03414
1282.55440	0.03452
1280.62575	0.03478
1278.69710	0.03493
1276.76844	0.03496
1274.83979	0.03490
1272.91114	0.03488
1270.98248	0.03499
1269.05383	0.03518
1267.12518	0.03543
1265.19652	0.03575
1263.26787	0.03606
1261.33922	0.03634
1259.41056	0.03667
1257.48191	0.03710
1255.55326	0.03763
1253.62460	0.03820
1251.69595	0.03880
1249.76730	0.03942
1247.83864	0.04010
1245.90999	0.04077
1243.98134	0.04140
1242.05269	0.04201
1240.12403	0.04260
1238.19538	0.04304
1236.26673	0.04330
1234.33807	0.04344
1232.40942	0.04342
1230.48077	0.04320
1228.55211	0.04281
1226.62346	0.04226
1224.69481	0.04149
1222.76615	0.04060
1220.83750	0.03976
1218.90885	0.03901
1216.98019	0.03839
1215.05154	0.03793
1213.12289	0.03762
1211.19423	0.03747
1209.26558	0.03755
1207.33693	0.03778
1205.40827	0.03797
1203.47962	0.03800
1201.55097	0.03790
1199.62231	0.03786
1197.69366	0.03740
1195.76501	0.03679
1193.83635	0.03617
1191.90770	0.03559
1189.97905	0.03499
1188.05039	0.03439
1186.12174	0.03388
1184.19309	0.03343
1182.26443	0.03311
1180.33578	0.03291
1178.40713	0.03272
1176.47848	0.03255
1174.54982	0.03249
1172.62117	0.03242
1170.69252	0.03228
1168.76386	0.03215
1166.83521	0.03208
1164.90656	0.03209
1162.97790	0.03212
1161.04925	0.03206
1159.12060	0.03184
1157.19194	0.03151
1155.26329	0.03115
1153.33464	0.03072
1151.40598	0.03017
1149.47733	0.02966
1147.54868	0.02925
1145.62002	0.02890
1143.69137	0.02856
1141.76272	0.02819
1139.83406	0.02775
1137.90541	0.02729
1135.97676	0.02699
1134.04810	0.02691
1132.11945	0.02688
1130.19080	0.02679
1128.26214	0.02675
1126.33349	0.02674
1124.40484	0.02666
1122.47618	0.02654
1120.54753	0.02640
1118.61888	0.02623
1116.69022	0.02617
1114.76157	0.02616
1112.83292	0.02610
1110.90427	0.02613
1108.97561	0.02630
1107.04696	0.02638
1105.11831	0.02641
1103.18965	0.02655
1101.26100	0.02678
1099.33235	0.02702
1097.40369	0.02736
1095.47504	0.02775
1093.54639	0.02805
1091.61773	0.02844
1089.68908	0.02903
1087.76043	0.02964
1085.83177	0.03011
1083.90312	0.03047
1081.97447	0.03081
1080.04581	0.03118
1078.11716	0.03146
1076.18851	0.03147
1074.25985	0.03119
1072.33120	0.03091
1070.40255	0.03077
1068.47389	0.03066
1066.54524	0.03060
1064.61659	0.03063
1062.68793	0.03069
1060.75928	0.03067
1058.83063	0.03052
1056.90197	0.03027
1054.97332	0.03001
1053.04467	0.02981
1051.11601	0.02959
1049.18736	0.02925
1047.25871	0.02893
1045.33005	0.02875
1043.40140	0.02868
1041.47275	0.02872
1039.54410	0.02883
1037.61544	0.02895
1035.68679	0.02906
1033.75814	0.02923
1031.82948	0.02940
1029.90083	0.02935
1027.97218	0.02903
1026.04352	0.02856
1024.11487	0.02805
1022.18622	0.02757
1020.25756	0.02711
1018.32891	0.02675
1016.40026	0.02658
1014.47160	0.02639
1012.54295	0.02601
1010.61430	0.02560
1008.68564	0.02527
1006.75699	0.02498
1004.82834	0.02467
1002.89968	0.02436
1000.97103	0.02406
999.04238	0.02373
997.11372	0.02341
995.18507	0.02319
993.25642	0.02303
991.32776	0.02286
989.39911	0.02267
987.47046	0.02253
985.54180	0.02236
983.61315	0.02211
981.68450	0.02193
979.75584	0.02189
977.82719	0.02198
975.89854	0.02213
973.96989	0.02229
972.04123	0.02231
970.11258	0.02217
968.18393	0.02206
966.25527	0.02202
964.32662	0.02182
962.39797	0.02150
960.46931	0.02130
958.54066	0.02123
956.61201	0.02114
954.68335	0.02098
952.75470	0.02078
950.82605	0.02062
948.89739	0.02054
946.96874	0.02060
945.04009	0.02069
943.11143	0.02073
941.18278	0.02073
939.25413	0.02063
937.32547	0.02046
935.39682	0.02043
933.46817	0.02053
931.53951	0.02061
929.61086	0.02059
927.68221	0.02059
925.75355	0.02068
923.82490	0.02073
921.89625	0.02065
919.96759	0.02051
918.03894	0.02033
916.11029	0.02010
914.18163	0.01994
912.25298	0.01998
910.32433	0.02006
908.39567	0.02001
906.46702	0.01977
904.53837	0.01943
902.60972	0.01927
900.68106	0.01937
898.75241	0.01950
896.82376	0.01944
894.89510	0.01926
892.96645	0.01908
891.03780	0.01900
889.10914	0.01901
887.18049	0.01898
885.25184	0.01889
883.32318	0.01887
881.39453	0.01895
879.46588	0.01910
877.53722	0.01924
875.60857	0.01931
873.67992	0.01931
871.75126	0.01923
869.82261	0.01911
867.89396	0.01906
865.96530	0.01905
864.03665	0.01901
862.10800	0.01889
860.17934	0.01883
858.25069	0.01896
856.32204	0.01920
854.39338	0.01933
852.46473	0.01930
850.53608	0.01916
848.60742	0.01900
846.67877	0.01894
844.75012	0.01905
842.82146	0.01911
840.89281	0.01898
838.96416	0.01879
837.03551	0.01872
835.10685	0.01877
833.17820	0.01883
831.24955	0.01888
829.32089	0.01888
827.39224	0.01880
825.46359	0.01875
823.53493	0.01887
821.60628	0.01914
819.67763	0.01938
817.74897	0.01952
815.82032	0.01969
813.89167	0.01982
811.96301	0.01982
810.03436	0.01983
808.10571	0.02004
806.17705	0.02034
804.24840	0.02051
802.31975	0.02053
800.39109	0.02053
798.46244	0.02062
796.53379	0.02073
794.60513	0.02074
792.67648	0.02079
790.74783	0.02103
788.81917	0.02127
786.89052	0.02129
784.96187	0.02128
783.03321	0.02141
781.10456	0.02159
779.17591	0.02172
777.24725	0.02183
775.31860	0.02191
773.38995	0.02208
771.46130	0.02243
769.53264	0.02271
767.60399	0.02274
765.67534	0.02271
763.74668	0.02278
761.81803	0.02280
759.88938	0.02274
757.96072	0.02283
756.03207	0.02313
754.10342	0.02344
752.17476	0.02368
750.24611	0.02387
748.31746	0.02397
746.38880	0.02402
744.46015	0.02418
742.53150	0.02444
740.60284	0.02464
738.67419	0.02474
736.74554	0.02499
734.81688	0.02537
732.88823	0.02558
730.95958	0.02567
729.03092	0.02591
727.10227	0.02621
725.17362	0.02628
723.24496	0.02619
721.31631	0.02628
719.38766	0.02657
717.45900	0.02689
715.53035	0.02709
713.60170	0.02718
711.67304	0.02722
709.74439	0.02735
707.81574	0.02763
705.88708	0.02799
703.95843	0.02828
702.02978	0.02840
700.10113	0.02840
698.17247	0.02839
696.24382	0.02849
694.31517	0.02861
692.38651	0.02869
690.45786	0.02880
688.52921	0.02891
686.60055	0.02902
684.67190	0.02913
682.74325	0.02929
680.81459	0.02952
678.88594	0.02966
676.95729	0.02981
675.02863	0.02996
673.09998	0.03013
671.17133	0.03026
669.24267	0.03035
667.31402	0.03043
665.38537	0.03050
663.45671	0.03063
661.52806	0.03076
659.59941	0.03088
657.67075	0.03097
655.74210	0.03099
653.81345	0.03096
651.88479	0.03106
649.95614	0.03129
648.02749	0.03153
646.09883	0.03164
644.17018	0.03163
642.24153	0.03159
640.31287	0.03161
638.38422	0.03173
636.45557	0.03187
634.52692	0.03196
632.59826	0.03184
630.66961	0.03230
628.74096	0.03486
626.81230	0.03084
624.88365	0.02503
622.95500	0.02183
621.02634	0.02336
619.09769	0.02763
617.16904	0.03269
615.24038	0.03642
613.31173	0.03606
611.38308	0.03293
609.45442	0.03128
607.52577	0.03114
605.59712	0.03027
603.66846	0.02978
601.73981	0.03078
599.81116	0.03198
597.88250	0.03244
595.95385	0.03242
594.02520	0.03247
592.09654	0.03284
590.16789	0.03317
588.23924	0.03308
586.31058	0.03289
584.38193	0.03290
582.45328	0.03297
580.52462	0.03299
578.59597	0.03301
576.66732	0.03298
574.73866	0.03299
572.81001	0.03287
570.88136	0.03238
568.95270	0.03186
567.02405	0.03194
565.09540	0.03239
563.16675	0.03271
561.23809	0.03296
559.30944	0.03335
557.38079	0.03378
555.45213	0.03400
553.52348	0.03386
551.59483	0.03353
549.66617	0.03337
547.73752	0.03345
545.80887	0.03352
543.88021	0.03343
541.95156	0.03332
540.02291	0.03327
538.09425	0.03315
536.16560	0.03292
534.23695	0.03278
532.30829	0.03291
530.37964	0.03309
528.45099	0.03311
526.52233	0.03315
524.59368	0.03318
522.66503	0.03298
520.73637	0.03275
518.80772	0.03273
516.87907	0.03267
514.95041	0.03242
513.02176	0.03221
511.09311	0.03215
509.16445	0.03215
507.23580	0.03217
505.30715	0.03208
503.37849	0.03182
501.44984	0.03165
499.52119	0.03177
497.59254	0.03189
495.66388	0.03167
493.73523	0.03125
491.80658	0.03090
489.87792	0.03065
487.94927	0.03049
486.02062	0.03040
484.09196	0.03029
482.16331	0.03012
480.23466	0.02998
478.30600	0.02993
476.37735	0.02988
474.44870	0.02971
472.52004	0.02937
470.59139	0.02906
468.66274	0.02889
466.73408	0.02877
464.80543	0.02860
462.87678	0.02837
460.94812	0.02809
459.01947	0.02780
457.09082	0.02753
455.16216	0.02737
453.23351	0.02726
451.30486	0.02707
449.37620	0.02688
447.44755	0.02676
445.51890	0.02660
443.59024	0.02639
441.66159	0.02617
439.73294	0.02594
437.80428	0.02577
435.87563	0.02565
433.94698	0.02557
432.01833	0.02558
430.08967	0.02560
428.16102	0.02552
426.23237	0.02531
424.30371	0.02499
422.37506	0.02467
420.44641	0.02450
418.51775	0.02434
416.58910	0.02412
414.66045	0.02402
412.73179	0.02402
410.80314	0.02402
408.87449	0.02398
406.94583	0.02388
405.01718	0.02368
403.08853	0.02342
401.15987	0.02319
399.23122	0.02302
