3996.16951	0.04906
3994.24086	0.04992
3992.31220	0.05021
3990.38355	0.04979
3988.45490	0.04947
3986.52624	0.04965
3984.59759	0.04956
3982.66894	0.04866
3980.74028	0.04800
3978.81163	0.04837
3976.88298	0.04896
3974.95432	0.04911
3973.02567	0.04901
3971.09702	0.04873
3969.16836	0.04852
3967.23971	0.04848
3965.31106	0.04832
3963.38240	0.04807
3961.45375	0.04756
3959.52510	0.04673
3957.59645	0.04636
3955.66779	0.04679
3953.73914	0.04735
3951.81049	0.04761
3949.88183	0.04782
3947.95318	0.04793
3946.02453	0.04781
3944.09587	0.04779
3942.16722	0.04787
3940.23857	0.04762
3938.30991	0.04722
3936.38126	0.04719
3934.45261	0.04729
3932.52395	0.04700
3930.59530	0.04675
3928.66665	0.04695
3926.73799	0.04708
3924.80934	0.04696
3922.88069	0.04692
3920.95203	0.04693
3919.02338	0.04680
3917.09473	0.04663
3915.16607	0.04662
3913.23742	0.04685
3911.30877	0.04693
3909.38011	0.04659
3907.45146	0.04633
3905.52281	0.04660
3903.59415	0.04708
3901.66550	0.04716
3899.73685	0.04671
3897.80819	0.04620
3895.87954	0.04611
3893.95089	0.04636
3892.02224	0.04643
3890.09358	0.04608
3888.16493	0.04553
3886.23628	0.04516
3884.30762	0.04500
3882.37897	0.04485
3880.45032	0.04489
3878.52166	0.04528
3876.59301	0.04564
3874.66436	0.04576
3872.73570	0.04570
3870.80705	0.04532
3868.87840	0.04479
3866.94974	0.04459
3865.02109	0.04469
3863.09244	0.04475
3861.16378	0.04466
3859.23513	0.04437
3857.30648	0.04397
3855.37782	0.04373
3853.44917	0.04365
3851.52052	0.04360
3849.59186	0.04375
3847.66321	0.04410
3845.73456	0.04421
3843.80590	0.04404
3841.87725	0.04394
3839.94860	0.04407
3838.01994	0.04425
3836.09129	0.04437
3834.16264	0.04434
3832.23398	0.04405
3830.30533	0.04373
3828.37668	0.04370
3826.44803	0.04378
3824.51937	0.04370
3822.59072	0.04363
3820.66207	0.04359
3818.73341	0.04341
3816.80476	0.04320
3814.87611	0.04316
3812.94745	0.04321
3811.01880	0.04331
3809.09015	0.04345
3807.16149	0.04332
3805.23284	0.04289
3803.30419	0.04253
3801.37553	0.04250
3799.44688	0.04256
3797.51823	0.04249
3795.58957	0.04234
3793.66092	0.04204
3791.73227	0.04169
3789.80361	0.04145
3787.87496	0.04138
3785.94631	0.04186
3784.01765	0.04254
3782.08900	0.04245
3780.16035	0.04185
3778.23169	0.04171
3776.30304	0.04206
3774.37439	0.04228
3772.44573	0.04219
3770.51708	0.04186
3768.58843	0.04152
3766.65977	0.04135
3764.73112	0.04123
3762.80247	0.04113
3760.87381	0.04118
3758.94516	0.04122
3757.01651	0.04096
3755.08786	0.04057
3753.15920	0.04052
3751.23055	0.04075
3749.30190	0.04080
3747.37324	0.04054
3745.44459	0.04029
3743.51594	0.04024
3741.58728	0.04026
3739.65863	0.04024
3737.72998	0.04029
3735.80132	0.04046
3733.87267	0.04064
3731.94402	0.04041
3730.01536	0.03990
3728.08671	0.03957
3726.15806	0.03952
3724.22940	0.03936
3722.30075	0.03878
3720.37210	0.03797
3718.44344	0.03776
3716.51479	0.03863
3714.58614	0.03980
3712.65748	0.04018
3710.72883	0.03992
3708.80018	0.03978
3706.87152	0.03964
3704.94287	0.03910
3703.01422	0.03841
3701.08556	0.03836
3699.15691	0.03903
3697.22826	0.03932
3695.29960	0.03873
3693.37095	0.03812
3691.44230	0.03804
3689.51365	0.03830
3687.58499	0.03882
3685.65634	0.03921
3683.72769	0.03892
3681.79903	0.03852
3679.87038	0.03854
3677.94173	0.03849
3676.01307	0.03819
3674.08442	0.03804
3672.15577	0.03821
3670.22711	0.03872
3668.29846	0.03936
3666.36981	0.03979
3664.44115	0.04001
3662.51250	0.04024
3660.58385	0.04040
3658.65519	0.04050
3656.72654	0.04083
3654.79789	0.04143
3652.86923	0.04185
3650.94058	0.04183
3649.01193	0.04181
3647.08327	0.04244
3645.15462	0.04352
3643.22597	0.04425
3641.29731	0.04442
3639.36866	0.04479
3637.44001	0.04542
3635.51135	0.04554
3633.58270	0.04544
3631.65405	0.04598
3629.72539	0.04695
3627.79674	0.04743
3625.86809	0.04734
3623.93943	0.04716
3622.01078	0.04775
3620.08213	0.04890
3618.15348	0.04946
3616.22482	0.04918
3614.29617	0.04890
3612.36752	0.04919
3610.43886	0.04996
3608.51021	0.05110
3606.58156	0.05217
3604.65290	0.05277
3602.72425	0.05321
3600.79560	0.05395
3598.86694	0.05476
3596.93829	0.05517
3595.00964	0.05519
3593.08098	0.05518
3591.15233	0.05537
3589.22368	0.05581
3587.29502	0.05666
3585.36637	0.05791
3583.43772	0.05897
3581.50906	0.05967
3579.58041	0.06051
3577.65176	0.06125
3575.72310	0.06152
3573.79445	0.06197
3571.86580	0.06310
3569.93714	0.06444
3568.00849	0.06536
3566.07984	0.06574
3564.15118	0.06595
3562.22253	0.06639
3560.29388	0.06710
3558.36522	0.06791
3556.43657	0.06861
3554.50792	0.06919
3552.57927	0.06985
3550.65061	0.07056
3548.72196	0.07119
3546.79331	0.07181
3544.86465	0.07269
3542.93600	0.07392
3541.00735	0.07508
3539.07869	0.07579
3537.15004	0.07613
3535.22139	0.07648
3533.29273	0.07698
3531.36408	0.07744
3529.43543	0.07810
3527.50677	0.07908
3525.57812	0.07995
3523.64947	0.08071
3521.72081	0.08173
3519.79216	0.08259
3517.86351	0.08296
3515.93485	0.08338
3514.00620	0.08402
3512.07755	0.08449
3510.14889	0.08489
3508.22024	0.08547
3506.29159	0.08620
3504.36293	0.08691
3502.43428	0.08767
3500.50563	0.08864
3498.57697	0.08950
3496.64832	0.08997
3494.71967	0.09031
3492.79101	0.09079
3490.86236	0.09140
3488.93371	0.09200
3487.00506	0.09229
3485.07640	0.09217
3483.14775	0.09221
3481.21910	0.09283
3479.29044	0.09361
3477.36179	0.09410
3475.43314	0.09462
3473.50448	0.09536
3471.57583	0.09599
3469.64718	0.09634
3467.71852	0.09667
3465.78987	0.09719
3463.86122	0.09774
3461.93256	0.09791
3460.00391	0.09798
3458.07526	0.09845
3456.14660	0.09925
3454.21795	0.10022
3452.28930	0.10113
3450.36064	0.10162
3448.43199	0.10189
3446.50334	0.10238
3444.57468	0.10296
3442.64603	0.10335
3440.71738	0.10364
3438.78872	0.10426
3436.86007	0.10525
3434.93142	0.10615
3433.00276	0.10664
3431.07411	0.10690
3429.14546	0.10724
3427.21680	0.10775
3425.28815	0.10829
3423.35950	0.10869
3421.43084	0.10885
3419.50219	0.10900
3417.57354	0.10952
3415.64489	0.11030
3413.71623	0.11093
3411.78758	0.11140
3409.85893	0.11186
3407.93027	0.11240
3406.00162	0.11290
3404.07297	0.11323
3402.14431	0.11350
3400.21566	0.11394
3398.28701	0.11453
3396.35835	0.11508
3394.42970	0.11546
3392.50105	0.11579
3390.57239	0.11615
3388.64374	0.11644
3386.71509	0.11687
3384.78643	0.11756
3382.85778	0.11811
3380.92913	0.11851
3379.00047	0.11909
3377.07182	0.11973
3375.14317	0.12034
3373.21451	0.12097
3371.28586	0.12148
3369.35721	0.12203
3367.42855	0.12296
3365.49990	0.12409
3363.57125	0.12508
3361.64259	0.12591
3359.71394	0.12668
3357.78529	0.12763
3355.85663	0.12887
3353.92798	0.13014
3351.99933	0.13108
3350.07068	0.13199
3348.14202	0.13337
3346.21337	0.13491
3344.28472	0.13600
3342.35606	0.13661
3340.42741	0.13725
3338.49876	0.13818
3336.57010	0.13923
3334.64145	0.14028
3332.71280	0.14110
3330.78414	0.14153
3328.85549	0.14206
3326.92684	0.14299
3324.99818	0.14387
3323.06953	0.14453
3321.14088	0.14523
3319.21222	0.14586
3317.28357	0.14633
3315.35492	0.14690
3313.42626	0.14760
3311.49761	0.14812
3309.56896	0.14848
3307.64030	0.14879
3305.71165	0.14891
3303.78300	0.14896
3301.85434	0.14921
3299.92569	0.14950
3297.99704	0.14965
3296.06838	0.14977
3294.13973	0.14997
3292.21108	0.15030
3290.28242	0.15058
3288.35377	0.15060
3286.42512	0.15035
3284.49646	0.14997
3282.56781	0.14972
3280.63916	0.14967
3278.71051	0.14954
3276.78185	0.14926
3274.85320	0.14893
3272.92455	0.14866
3270.99589	0.14838
3269.06724	0.14780
3267.13859	0.14693
3265.20993	0.14599
3263.28128	0.14520
3261.35263	0.14485
3259.42397	0.14481
3257.49532	0.14452
3255.56667	0.14382
3253.63801	0.14301
3251.70936	0.14241
3249.78071	0.14189
3247.85205	0.14121
3245.92340	0.14054
3243.99475	0.14009
3242.06609	0.13982
3240.13744	0.13959
3238.20879	0.13942
3236.28013	0.13935
3234.35148	0.13899
3232.42283	0.13808
3230.49417	0.13725
3228.56552	0.13698
3226.63687	0.13693
3224.70821	0.13675
3222.77956	0.13633
3220.85091	0.13570
3218.92225	0.13513
3216.99360	0.13461
3215.06495	0.13394
3213.13630	0.13340
3211.20764	0.13333
3209.27899	0.13338
3207.35034	0.13305
3205.42168	0.13243
3203.49303	0.13163
3201.56438	0.13064
3199.63572	0.12975
3197.70707	0.12921
3195.77842	0.12889
3193.84976	0.12841
3191.92111	0.12762
3189.99246	0.12675
3188.06380	0.12603
3186.13515	0.12544
3184.20650	0.12488
3182.27784	0.12432
3180.34919	0.12394
3178.42054	0.12375
3176.49188	0.12319
3174.56323	0.12200
3172.63458	0.12070
3170.70592	0.11960
3168.77727	0.11866
3166.84862	0.11801
3164.91996	0.11754
3162.99131	0.11696
3161.06266	0.11639
3159.13400	0.11570
3157.20535	0.11462
3155.27670	0.11352
3153.34804	0.11272
3151.41939	0.11191
3149.49074	0.11106
3147.56209	0.11048
3145.63343	0.11005
3143.70478	0.10958
3141.77613	0.10914
3139.84747	0.10873
3137.91882	0.10817
3135.99017	0.10731
3134.06151	0.10633
3132.13286	0.10571
3130.20421	0.10539
3128.27555	0.10490
3126.34690	0.10421
3124.41825	0.10358
3122.48959	0.10304
3120.56094	0.10268
3118.63229	0.10254
3116.70363	0.10245
3114.77498	0.10241
3112.84633	0.10244
3110.91767	0.10240
3108.98902	0.10241
3107.06037	0.10263
3105.13171	0.10282
3103.20306	0.10286
3101.27441	0.10287
3099.34575	0.10294
3097.41710	0.10317
3095.48845	0.10357
3093.55979	0.10384
3091.63114	0.10392
3089.70249	0.10411
3087.77383	0.10444
3085.84518	0.10471
3083.91653	0.10492
3081.98787	0.10505
3080.05922	0.10510
3078.13057	0.10526
3076.20192	0.10545
3074.27326	0.10540
3072.34461	0.10511
3070.41596	0.10490
3068.48730	0.10492
3066.55865	0.10503
3064.63000	0.10497
3062.70134	0.10453
3060.77269	0.10375
3058.84404	0.10299
3056.91538	0.10264
3054.98673	0.10253
3053.05808	0.10215
3051.12942	0.10126
3049.20077	0.10021
3047.27212	0.09946
3045.34346	0.09904
3043.41481	0.09859
3041.48616	0.09785
3039.55750	0.09686
3037.62885	0.09593
3035.70020	0.09533
3033.77154	0.09477
3031.84289	0.09400
3029.91424	0.09333
3027.98558	0.09278
3026.05693	0.09214
3024.12828	0.09148
3022.19962	0.09086
3020.27097	0.09023
3018.34232	0.08973
3016.41366	0.08931
3014.48501	0.08881
3012.55636	0.08834
3010.62771	0.08795
3008.69905	0.08754
3006.77040	0.08721
3004.84175	0.08722
3002.91309	0.08750
3000.98444	0.08768
2999.05579	0.08769
2997.12713	0.08784
2995.19848	0.08819
2993.26983	0.08849
2991.34117	0.08881
2989.41252	0.08927
2987.48387	0.08977
2985.55521	0.09014
2983.62656	0.09039
2981.69791	0.09058
2979.76925	0.09078
2977.84060	0.09095
2975.91195	0.09113
2973.98329	0.09145
2972.05464	0.09186
2970.12599	0.09229
2968.19733	0.09268
2966.26868	0.09287
2964.34003	0.09303
2962.41137	0.09345
2960.48272	0.09400
2958.55407	0.09445
2956.62541	0.09475
2954.69676	0.09495
2952.76811	0.09503
2950.83945	0.09489
2948.91080	0.09458
2946.98215	0.09432
2945.05349	0.09430
2943.12484	0.09459
2941.19619	0.09497
2939.26754	0.09510
2937.33888	0.09514
2935.41023	0.09528
2933.48158	0.09534
2931.55292	0.09525
2929.62427	0.09514
2927.69562	0.09500
2925.76696	0.09474
2923.83831	0.09435
2921.90966	0.09389
2919.98100	0.09337
2918.05235	0.09292
2916.12370	0.09247
2914.19504	0.09191
2912.26639	0.09113
2910.33774	0.09009
2908.40908	0.08913
2906.48043	0.08854
2904.55178	0.08788
2902.62312	0.08687
2900.69447	0.08592
2898.76582	0.08521
2896.83716	0.08461
2894.90851	0.08421
2892.97986	0.08413
2891.05120	0.08415
2889.12255	0.08410
2887.19390	0.08415
2885.26524	0.08432
2883.33659	0.08444
2881.40794	0.08459
2879.47928	0.08474
2877.55063	0.08462
2875.62198	0.08432
2873.69333	0.08406
2871.76467	0.08382
2869.83602	0.08344
2867.90737	0.08271
2865.97871	0.08178
2864.05006	0.08097
2862.12141	0.08021
2860.19275	0.07929
2858.26410	0.07845
2856.33545	0.07804
2854.40679	0.07791
2852.47814	0.07764
2850.54949	0.07715
2848.62083	0.07674
2846.69218	0.07650
2844.76353	0.07613
2842.83487	0.07548
2840.90622	0.07477
2838.97757	0.07427
2837.04891	0.07413
2835.12026	0.07407
2833.19161	0.07379
2831.26295	0.07327
2829.33430	0.07279
2827.40565	0.07262
2825.47699	0.07265
2823.54834	0.07239
2821.61969	0.07184
2819.69103	0.07142
2817.76238	0.07117
2815.83373	0.07081
2813.90507	0.07021
2811.97642	0.06969
2810.04777	0.06956
2808.11912	0.06967
2806.19046	0.06962
2804.26181	0.06927
2802.33316	0.06895
2800.40450	0.06883
2798.47585	0.06875
2796.54720	0.06850
2794.61854	0.06805
2792.68989	0.06761
2790.76124	0.06740
2788.83258	0.06738
2786.90393	0.06737
2784.97528	0.06713
2783.04662	0.06665
2781.11797	0.06619
2779.18932	0.06601
2777.26066	0.06603
2775.33201	0.06594
2773.40336	0.06557
2771.47470	0.06509
2769.54605	0.06480
2767.61740	0.06468
2765.68874	0.06450
2763.76009	0.06430
2761.83144	0.06426
2759.90278	0.06425
2757.97413	0.06394
2756.04548	0.06332
2754.11682	0.06282
2752.18817	0.06268
2750.25952	0.06264
2748.33086	0.06252
2746.40221	0.06245
2744.47356	0.06239
2742.54490	0.06217
2740.61625	0.06190
2738.68760	0.06161
2736.75895	0.06121
2734.83029	0.06089
2732.90164	0.06086
2730.97299	0.06088
2729.04433	0.06071
2727.11568	0.06049
2725.18703	0.06031
2723.25837	0.06002
2721.32972	0.05974
2719.40107	0.05967
2717.47241	0.05959
2715.54376	0.05934
2713.61511	0.05897
2711.68645	0.05852
2709.75780	0.05815
2707.82915	0.05798
2705.90049	0.05804
2703.97184	0.05811
2702.04319	0.05803
2700.11453	0.05793
2698.18588	0.05783
2696.25723	0.05760
2694.32857	0.05742
2692.39992	0.05731
2690.47127	0.05711
2688.54261	0.05686
2686.61396	0.05667
2684.68531	0.05667
2682.75665	0.05689
2680.82800	0.05693
2678.89935	0.05659
2676.97069	0.05620
2675.04204	0.05606
2673.11339	0.05608
2671.18474	0.05618
2669.25608	0.05628
2667.32743	0.05627
2665.39878	0.05616
2663.47012	0.05604
2661.54147	0.05585
2659.61282	0.05556
2657.68416	0.05530
2655.75551	0.05513
2653.82686	0.05494
2651.89820	0.05466
2649.96955	0.05431
2648.04090	0.05404
2646.11224	0.05390
2644.18359	0.05364
2642.25494	0.05322
2640.32628	0.05280
2638.39763	0.05254
2636.46898	0.05248
2634.54032	0.05253
2632.61167	0.05245
2630.68302	0.05215
2628.75436	0.05167
2626.82571	0.05122
2624.89706	0.05100
2622.96840	0.05081
2621.03975	0.05035
2619.11110	0.04995
2617.18244	0.04998
2615.25379	0.05018
2613.32514	0.05011
2611.39648	0.04966
2609.46783	0.04902
2607.53918	0.04857
2605.61052	0.04853
2603.68187	0.04872
2601.75322	0.04875
2599.82457	0.04835
2597.89591	0.04786
2595.96726	0.04761
2594.03861	0.04733
2592.10995	0.04686
2590.18130	0.04662
2588.25265	0.04671
2586.32399	0.04680
2584.39534	0.04668
2582.46669	0.04626
2580.53803	0.04572
2578.60938	0.04547
2576.68073	0.04563
2574.75207	0.04586
2572.82342	0.04590
2570.89477	0.04587
2568.96611	0.04573
2567.03746	0.04531
2565.10881	0.04453
2563.18015	0.04368
2561.25150	0.04331
2559.32285	0.04342
2557.39419	0.04347
2555.46554	0.04325
2553.53689	0.04307
2551.60823	0.04312
2549.67958	0.04340
2547.75093	0.04373
2545.82227	0.04385
2543.89362	0.04375
2541.96497	0.04356
2540.03631	0.04339
2538.10766	0.04338
2536.17901	0.04348
2534.25036	0.04345
2532.32170	0.04319
2530.39305	0.04260
2528.46440	0.04188
2526.53574	0.04161
2524.60709	0.04181
2522.67844	0.04184
2520.74978	0.04154
2518.82113	0.04135
2516.89248	0.04163
2514.96382	0.04219
2513.03517	0.04234
2511.10652	0.04184
2509.17786	0.04118
2507.24921	0.04065
2505.32056	0.04035
2503.39190	0.04037
2501.46325	0.04057
2499.53460	0.04093
2497.60594	0.04133
2495.67729	0.04138
2493.74864	0.04103
2491.81998	0.04043
2489.89133	0.03977
2487.96268	0.03961
2486.03402	0.03994
2484.10537	0.04004
2482.17672	0.03984
2480.24806	0.03971
2478.31941	0.03969
2476.39076	0.03976
2474.46210	0.03987
2472.53345	0.03981
2470.60480	0.03953
2468.67615	0.03934
2466.74749	0.03917
2464.81884	0.03885
2462.89019	0.03880
2460.96153	0.03906
2459.03288	0.03905
2457.10423	0.03886
2455.17557	0.03888
2453.24692	0.03888
2451.31827	0.03863
2449.38961	0.03829
2447.46096	0.03817
2445.53231	0.03833
2443.60365	0.03848
2441.67500	0.03851
2439.74635	0.03841
2437.81769	0.03820
2435.88904	0.03812
2433.96039	0.03812
2432.03173	0.03780
2430.10308	0.03742
2428.17443	0.03739
2426.24577	0.03750
2424.31712	0.03750
2422.38847	0.03753
2420.45981	0.03763
2418.53116	0.03775
2416.60251	0.03793
2414.67385	0.03813
2412.74520	0.03816
2410.81655	0.03798
2408.88789	0.03778
2406.95924	0.03774
2405.03059	0.03798
2403.10193	0.03819
2401.17328	0.03800
2399.24463	0.03765
2397.31598	0.03765
2395.38732	0.03782
2393.45867	0.03785
2391.53002	0.03770
2389.60136	0.03755
2387.67271	0.03753
2385.74406	0.03760
2383.81540	0.03774
2381.88675	0.03787
2379.95810	0.03795
2378.02944	0.03805
2376.10079	0.03864
2374.17214	0.03925
2372.24348	0.03924
2370.31483	0.03810
2368.38618	0.03985
2366.45752	0.04029
2364.52887	0.04045
2362.60022	0.03954
2360.67156	0.03988
2358.74291	0.03810
2356.81426	0.04023
2354.88560	0.04014
2352.95695	0.03878
2351.02830	0.03907
2349.09964	0.03892
2347.17099	0.03915
2345.24234	0.03916
2343.31368	0.03923
2341.38503	0.03859
2339.45638	0.03729
2337.52772	0.03862
2335.59907	0.03975
2333.67042	0.03888
2331.74177	0.03826
2329.81311	0.03805
2327.88446	0.03787
2325.95581	0.03781
2324.02715	0.03775
2322.09850	0.03753
2320.16985	0.03737
2318.24119	0.03717
2316.31254	0.03682
2314.38389	0.03653
2312.45523	0.03639
2310.52658	0.03632
2308.59793	0.03631
2306.66927	0.03625
2304.74062	0.03590
2302.81197	0.03558
2300.88331	0.03518
2298.95466	0.03478
2297.02601	0.03445
2295.09735	0.03434
2293.16870	0.03437
2291.24005	0.03428
2289.31139	0.03384
2287.38274	0.03320
2285.45409	0.03251
2283.52543	0.03188
2281.59678	0.03150
2279.66813	0.03137
2277.73947	0.03131
2275.81082	0.03123
2273.88217	0.03110
2271.95351	0.03094
2270.02486	0.03074
2268.09621	0.03058
2266.16755	0.03047
2264.23890	0.03009
2262.31025	0.02933
2260.38160	0.02870
2258.45294	0.02869
2256.52429	0.02916
2254.59564	0.02941
2252.66698	0.02892
2250.73833	0.02810
2248.80968	0.02780
2246.88102	0.02760
2244.95237	0.02740
2243.02372	0.02729
2241.09506	0.02725
2239.16641	0.02689
2237.23776	0.02620
2235.30910	0.02565
2233.38045	0.02566
2231.45180	0.02612
2229.52314	0.02631
2227.59449	0.02613
2225.66584	0.02615
2223.73718	0.02614
2221.80853	0.02560
2219.87988	0.02500
2217.95122	0.02530
2216.02257	0.02611
2214.09392	0.02571
2212.16526	0.02452
2210.23661	0.02436
2208.30796	0.02451
2206.37930	0.02390
2204.45065	0.02375
2202.52200	0.02459
2200.59334	0.02521
2198.66469	0.02504
2196.73604	0.02433
2194.80739	0.02324
2192.87873	0.02224
2190.95008	0.02194
2189.02143	0.02258
2187.09277	0.02373
2185.16412	0.02383
2183.23547	0.02243
2181.30681	0.02125
2179.37816	0.02080
2177.44951	0.02011
2175.52085	0.01946
2173.59220	0.01950
2171.66355	0.02026
2169.73489	0.02145
2167.80624	0.02182
2165.87759	0.02055
2163.94893	0.01888
2162.02028	0.01793
2160.09163	0.01761
2158.16297	0.01787
2156.23432	0.01812
2154.30567	0.01812
2152.37701	0.01801
2150.44836	0.01772
2148.51971	0.01816
2146.59105	0.01970
2144.66240	0.02099
2142.73375	0.02134
2140.80509	0.02143
2138.87644	0.02164
2136.94779	0.02160
2135.01913	0.02147
2133.09048	0.02173
2131.16183	0.02248
2129.23318	0.02372
2127.30452	0.02490
2125.37587	0.02528
2123.44722	0.02511
2121.51856	0.02515
2119.58991	0.02556
2117.66126	0.02584
2115.73260	0.02590
2113.80395	0.02606
2111.87530	0.02629
2109.94664	0.02611
2108.01799	0.02549
2106.08934	0.02483
2104.16068	0.02431
2102.23203	0.02416
2100.30338	0.02452
2098.37472	0.02463
2096.44607	0.02420
2094.51742	0.02401
2092.58876	0.02433
2090.66011	0.02440
2088.73146	0.02415
2086.80280	0.02429
2084.87415	0.02451
2082.94550	0.02397
2081.01684	0.02320
2079.08819	0.02314
2077.15954	0.02343
2075.23088	0.02343
2073.30223	0.02340
2071.37358	0.02344
2069.44492	0.02313
2067.51627	0.02228
2065.58762	0.02105
2063.65896	0.02016
2061.73031	0.02009
2059.80166	0.02014
2057.87301	0.01987
2055.94435	0.01989
2054.01570	0.02020
2052.08705	0.02013
2050.15839	0.01945
2048.22974	0.01871
2046.30109	0.01861
2044.37243	0.01896
2042.44378	0.01883
2040.51513	0.01805
2038.58647	0.01755
2036.65782	0.01763
2034.72917	0.01765
2032.80051	0.01715
2030.87186	0.01621
2028.94321	0.01540
2027.01455	0.01571
2025.08590	0.01681
2023.15725	0.01738
2021.22859	0.01742
2019.29994	0.01715
2017.37129	0.01627
2015.44263	0.01563
2013.51398	0.01630
2011.58533	0.01784
2009.65667	0.01854
2007.72802	0.01752
2005.79937	0.01609
2003.87071	0.01573
2001.94206	0.01632
2000.01341	0.01695
1998.08475	0.01701
1996.15610	0.01681
1994.22745	0.01679
1992.29880	0.01678
1990.37014	0.01701
1988.44149	0.01791
1986.51284	0.01880
1984.58418	0.01877
1982.65553	0.01802
1980.72688	0.01722
1978.79822	0.01679
1976.86957	0.01689
1974.94092	0.01690
1973.01226	0.01621
1971.08361	0.01560
1969.15496	0.01594
1967.22630	0.01671
1965.29765	0.01727
1963.36900	0.01746
1961.44034	0.01719
1959.51169	0.01694
1957.58304	0.01719
1955.65438	0.01774
1953.72573	0.01837
1951.79708	0.01875
1949.86842	0.01862
1947.93977	0.01863
1946.01112	0.01918
1944.08246	0.01976
1942.15381	0.02003
1940.22516	0.02000
1938.29650	0.01956
1936.36785	0.01911
1934.43920	0.01942
1932.51054	0.02029
1930.58189	0.02097
1928.65324	0.02108
1926.72458	0.02058
1924.79593	0.01986
1922.86728	0.01955
1920.93863	0.01973
1919.00997	0.02003
1917.08132	0.02017
1915.15267	0.02017
1913.22401	0.02005
1911.29536	0.01988
1909.36671	0.01986
1907.43805	0.01993
1905.50940	0.01979
1903.58075	0.01971
1901.65209	0.02005
1899.72344	0.02043
1897.79479	0.02048
1895.86613	0.02044
1893.93748	0.02058
1892.00883	0.02070
1890.08017	0.02068
1888.15152	0.02063
1886.22287	0.02061
1884.29421	0.02072
1882.36556	0.02093
1880.43691	0.02109
1878.50825	0.02107
1876.57960	0.02089
1874.65095	0.02074
1872.72229	0.02075
1870.79364	0.02082
1868.86499	0.02070
1866.93633	0.02043
1865.00768	0.02026
1863.07903	0.02026
1861.15037	0.02030
1859.22172	0.02034
1857.29307	0.02040
1855.36442	0.02041
1853.43576	0.02039
1851.50711	0.02043
1849.57846	0.02038
1847.64980	0.02021
1845.72115	0.01992
1843.79250	0.01967
1841.86384	0.01967
1839.93519	0.01980
1838.00654	0.01977
1836.07788	0.01964
1834.14923	0.01954
1832.22058	0.01945
1830.29192	0.01942
1828.36327	0.01946
1826.43462	0.01946
1824.50596	0.01947
1822.57731	0.01950
1820.64866	0.01943
1818.72000	0.01931
1816.79135	0.01931
1814.86270	0.01942
1812.93404	0.01952
1811.00539	0.01954
1809.07674	0.01943
1807.14808	0.01928
1805.21943	0.01917
1803.29078	0.01905
1801.36212	0.01892
1799.43347	0.01891
1797.50482	0.01895
1795.57616	0.01891
1793.64751	0.01885
1791.71886	0.01878
1789.79021	0.01866
1787.86155	0.01856
1785.93290	0.01857
1784.00425	0.01857
1782.07559	0.01845
1780.14694	0.01830
1778.21829	0.01825
1776.28963	0.01824
1774.36098	0.01826
1772.43233	0.01832
1770.50367	0.01823
1768.57502	0.01802
1766.64637	0.01795
1764.71771	0.01804
1762.78906	0.01809
1760.86041	0.01801
1758.93175	0.01791
1757.00310	0.01789
1755.07445	0.01793
1753.14579	0.01803
1751.21714	0.01818
1749.28849	0.01839
1747.35983	0.01858
1745.43118	0.01872
1743.50253	0.01894
1741.57387	0.01941
1739.64522	0.01999
1737.71657	0.02042
1735.78791	0.02068
1733.85926	0.02097
1731.93061	0.02138
1730.00195	0.02180
1728.07330	0.02220
1726.14465	0.02258
1724.21599	0.02295
1722.28734	0.02342
1720.35869	0.02397
1718.43004	0.02455
1716.50138	0.02535
1714.57273	0.02643
1712.64408	0.02765
1710.71542	0.02895
1708.78677	0.03053
1706.85812	0.03257
1704.92946	0.03499
1703.00081	0.03766
1701.07216	0.04065
1699.14350	0.04391
1697.21485	0.04722
1695.28620	0.05056
1693.35754	0.05399
1691.42889	0.05749
1689.50024	0.06110
1687.57158	0.06485
1685.64293	0.06882
1683.71428	0.07303
1681.78562	0.07738
1679.85697	0.08187
1677.92832	0.08661
1675.99966	0.09160
1674.07101	0.09675
1672.14236	0.10201
1670.21370	0.10740
1668.28505	0.11289
1666.35640	0.11829
1664.42774	0.12359
1662.49909	0.12880
1660.57044	0.13372
1658.64178	0.13813
1656.71313	0.14200
1654.78448	0.14555
1652.85583	0.14898
1650.92717	0.15215
1648.99852	0.15484
1647.06987	0.15722
1645.14121	0.15951
1643.21256	0.16173
1641.28391	0.16379
1639.35525	0.16566
1637.42660	0.16742
1635.49795	0.16913
1633.56929	0.17051
1631.64064	0.17126
1629.71199	0.17131
1627.78333	0.17056
1625.85468	0.16886
1623.92603	0.16621
1621.99737	0.16279
1620.06872	0.15873
1618.14007	0.15412
1616.21141	0.14919
1614.28276	0.14417
1612.35411	0.13905
1610.42545	0.13383
1608.49680	0.12871
1606.56815	0.12386
1604.63949	0.11931
1602.71084	0.11502
1600.78219	0.11101
1598.85353	0.10730
1596.92488	0.10394
1594.99623	0.10097
1593.06757	0.09840
1591.13892	0.09626
1589.21027	0.09460
1587.28161	0.09343
1585.35296	0.09264
1583.42431	0.09220
1581.49566	0.09220
1579.56700	0.09264
1577.63835	0.09352
1575.70970	0.09497
1573.78104	0.09697
1571.85239	0.09929
1569.92374	0.10187
1567.99508	0.10479
1566.06643	0.10795
1564.13778	0.11120
1562.20912	0.11453
1560.28047	0.11797
1558.35182	0.12141
1556.42316	0.12462
1554.49451	0.12751
1552.56586	0.13010
1550.63720	0.13236
1548.70855	0.13430
1546.77990	0.13597
1544.85124	0.13732
1542.92259	0.13825
1540.99394	0.13885
1539.06528	0.13928
1537.13663	0.13948
1535.20798	0.13941
1533.27932	0.13919
1531.35067	0.13882
1529.42202	0.13817
1527.49336	0.13733
1525.56471	0.13647
1523.63606	0.13555
1521.70740	0.13441
1519.77875	0.13307
1517.85010	0.13161
1515.92145	0.12996
1513.99279	0.12791
1512.06414	0.12540
1510.13549	0.12250
1508.20683	0.11928
1506.27818	0.11592
1504.34953	0.11259
1502.42087	0.10920
1500.49222	0.10563
1498.56357	0.10195
1496.63491	0.09832
1494.70626	0.09479
1492.77761	0.09136
1490.84895	0.08807
1488.92030	0.08507
1486.99165	0.08255
1485.06299	0.08056
1483.13434	0.07911
1481.20569	0.07818
1479.27703	0.07777
1477.34838	0.07784
1475.41973	0.07828
1473.49107	0.07914
1471.56242	0.08049
1469.63377	0.08214
1467.70511	0.08387
1465.77646	0.08573
1463.84781	0.08778
1461.91915	0.08990
1459.99050	0.09206
1458.06185	0.09433
1456.13319	0.09652
1454.20454	0.09828
1452.27589	0.09946
1450.34724	0.10005
1448.41858	0.10013
1446.48993	0.09981
1444.56128	0.09921
1442.63262	0.09839
1440.70397	0.09737
1438.77532	0.09609
1436.84666	0.09452
1434.91801	0.09271
1432.98936	0.09076
1431.06070	0.08891
1429.13205	0.08739
1427.20340	0.08623
1425.27474	0.08540
1423.34609	0.08487
1421.41744	0.08449
1419.48878	0.08431
1417.56013	0.08439
1415.63148	0.08457
1413.70282	0.08471
1411.77417	0.08494
1409.84552	0.08541
1407.91686	0.08596
1405.98821	0.08647
1404.05956	0.08691
1402.13090	0.08720
1400.20225	0.08729
1398.27360	0.08716
1396.34494	0.08683
1394.41629	0.08648
1392.48764	0.08618
1390.55898	0.08588
1388.63033	0.08555
1386.70168	0.08526
1384.77302	0.08494
1382.84437	0.08453
1380.91572	0.08405
1378.98707	0.08352
1377.05841	0.08288
1375.12976	0.08208
1373.20111	0.08111
1371.27245	0.07999
1369.34380	0.07874
1367.41515	0.07738
1365.48649	0.07598
1363.55784	0.07467
1361.62919	0.07358
1359.70053	0.07278
1357.77188	0.07233
1355.84323	0.07217
1353.91457	0.07223
1351.98592	0.07256
1350.05727	0.07328
1348.12861	0.07434
1346.19996	0.07552
1344.27131	0.07667
1342.34265	0.07771
1340.41400	0.07860
1338.48535	0.07926
1336.55669	0.07962
1334.62804	0.07961
1332.69939	0.07918
1330.77073	0.07835
1328.84208	0.07731
1326.91343	0.07626
1324.98477	0.07533
1323.05612	0.07463
1321.12747	0.07417
1319.19881	0.07384
1317.27016	0.07351
1315.34151	0.07310
1313.41286	0.07257
1311.48420	0.07191
1309.55555	0.07130
1307.62690	0.07084
1305.69824	0.07049
1303.76959	0.07016
1301.84094	0.06981
1299.91228	0.06947
1297.98363	0.06926
1296.05498	0.06920
1294.12632	0.06928
1292.19767	0.06954
1290.26902	0.07001
1288.34036	0.07067
1286.41171	0.07143
1284.48306	0.07214
1282.55440	0.07271
1280.62575	0.07309
1278.69710	0.07326
1276.76844	0.07328
1274.83979	0.07324
1272.91114	0.07324
1270.98248	0.07333
1269.05383	0.07352
1267.12518	0.07384
1265.19652	0.07439
1263.26787	0.07511
1261.33922	0.07591
1259.41056	0.07679
1257.48191	0.07782
1255.55326	0.07896
1253.62460	0.08013
1251.69595	0.08136
1249.76730	0.08270
1247.83864	0.08411
1245.90999	0.08560
1243.98134	0.08714
1242.05269	0.08863
1240.12403	0.08991
1238.19538	0.09088
1236.26673	0.09148
1234.33807	0.09173
1232.40942	0.09166
1230.48077	0.09120
1228.55211	0.09027
1226.62346	0.08896
1224.69481	0.08740
1222.76615	0.08566
1220.83750	0.08388
1218.90885	0.08222
1216.98019	0.08077
1215.05154	0.07964
1213.12289	0.07892
1211.19423	0.07863
1209.26558	0.07875
1207.33693	0.07910
1205.40827	0.07949
1203.47962	0.07974
1201.55097	0.07970
1199.62231	0.07922
1197.69366	0.07830
1195.76501	0.07708
1193.83635	0.07574
1191.90770	0.07433
1189.97905	0.07290
1188.05039	0.07164
1186.12174	0.07054
1184.19309	0.06951
1182.26443	0.06857
1180.33578	0.06780
1178.40713	0.06724
1176.47848	0.06689
1174.54982	0.06669
1172.62117	0.06648
1170.69252	0.06626
1168.76386	0.06612
1166.83521	0.06607
1164.90656	0.06605
1162.97790	0.06599
1161.04925	0.06582
1159.12060	0.06547
1157.19194	0.06495
1155.26329	0.06418
1153.33464	0.06306
1151.40598	0.06179
1149.47733	0.06066
1147.54868	0.05970
1145.62002	0.05879
1143.69137	0.05793
1141.76272	0.05715
1139.83406	0.05643
1137.90541	0.05578
1135.97676	0.05524
1134.04810	0.05480
1132.11945	0.05441
1130.19080	0.05407
1128.26214	0.05382
1126.33349	0.05367
1124.40484	0.05346
1122.47618	0.05315
1120.54753	0.05287
1118.61888	0.05268
1116.69022	0.05255
1114.76157	0.05253
1112.83292	0.05262
1110.90427	0.05271
1108.97561	0.05282
1107.04696	0.05301
1105.11831	0.05324
1103.18965	0.05356
1101.26100	0.05400
1099.33235	0.05447
1097.40369	0.05492
1095.47504	0.05552
1093.54639	0.05638
1091.61773	0.05746
1089.68908	0.05864
1087.76043	0.05998
1085.83177	0.06147
1083.90312	0.06282
1081.97447	0.06382
1080.04581	0.06434
1078.11716	0.06429
1076.18851	0.06391
1074.25985	0.06350
1072.33120	0.06320
1070.40255	0.06301
1068.47389	0.06288
1066.54524	0.06277
1064.61659	0.06270
1062.68793	0.06266
1060.75928	0.06256
1058.83063	0.06228
1056.90197	0.06176
1054.97332	0.06115
1053.04467	0.06063
1051.11601	0.06014
1049.18736	0.05966
1047.25871	0.05924
1045.33005	0.05895
1043.40140	0.05877
1041.47275	0.05866
1039.54410	0.05869
1037.61544	0.05896
1035.68679	0.05948
1033.75814	0.06005
1031.82948	0.06038
1029.90083	0.06015
1027.97218	0.05941
1026.04352	0.05840
1024.11487	0.05734
1022.18622	0.05635
1020.25756	0.05547
1018.32891	0.05473
1016.40026	0.05411
1014.47160	0.05353
1012.54295	0.05292
1010.61430	0.05227
1008.68564	0.05159
1006.75699	0.05091
1004.82834	0.05025
1002.89968	0.04959
1000.97103	0.04898
999.04238	0.04835
997.11372	0.04761
995.18507	0.04684
993.25642	0.04626
991.32776	0.04592
989.39911	0.04561
987.47046	0.04515
985.54180	0.04460
983.61315	0.04411
981.68450	0.04389
979.75584	0.04395
977.82719	0.04419
975.89854	0.04451
973.96989	0.04466
972.04123	0.04447
970.11258	0.04406
968.18393	0.04367
966.25527	0.04333
964.32662	0.04296
962.39797	0.04254
960.46931	0.04210
958.54066	0.04172
956.61201	0.04146
954.68335	0.04126
952.75470	0.04105
950.82605	0.04081
948.89739	0.04062
946.96874	0.04059
945.04009	0.04067
943.11143	0.04078
941.18278	0.04087
939.25413	0.04086
937.32547	0.04082
935.39682	0.04081
933.46817	0.04072
931.53951	0.04052
929.61086	0.04041
927.68221	0.04049
925.75355	0.04064
923.82490	0.04072
921.89625	0.04064
919.96759	0.04041
918.03894	0.04017
916.11029	0.04005
914.18163	0.03994
912.25298	0.03969
910.32433	0.03937
908.39567	0.03909
906.46702	0.03892
904.53837	0.03888
902.60972	0.03886
900.68106	0.03861
898.75241	0.03819
896.82376	0.03785
894.89510	0.03756
892.96645	0.03727
891.03780	0.03711
889.10914	0.03713
887.18049	0.03722
885.25184	0.03733
883.32318	0.03751
881.39453	0.03770
879.46588	0.03773
877.53722	0.03766
875.60857	0.03764
873.67992	0.03758
871.75126	0.03745
869.82261	0.03727
867.89396	0.03692
865.96530	0.03663
864.03665	0.03667
862.10800	0.03671
860.17934	0.03651
858.25069	0.03638
856.32204	0.03657
854.39338	0.03682
852.46473	0.03689
850.53608	0.03685
848.60742	0.03682
846.67877	0.03682
844.75012	0.03673
842.82146	0.03650
840.89281	0.03631
838.96416	0.03637
837.03551	0.03651
835.10685	0.03646
833.17820	0.03624
831.24955	0.03609
829.32089	0.03618
827.39224	0.03648
825.46359	0.03684
823.53493	0.03708
821.60628	0.03716
819.67763	0.03726
817.74897	0.03756
815.82032	0.03791
813.89167	0.03809
811.96301	0.03832
810.03436	0.03873
808.10571	0.03902
806.17705	0.03895
804.24840	0.03875
802.31975	0.03872
800.39109	0.03889
798.46244	0.03917
796.53379	0.03947
794.60513	0.03974
792.67648	0.03995
790.74783	0.04013
788.81917	0.04044
786.89052	0.04091
784.96187	0.04130
783.03321	0.04153
781.10456	0.04170
779.17591	0.04187
777.24725	0.04194
775.31860	0.04204
773.38995	0.04234
771.46130	0.04269
769.53264	0.04292
767.60399	0.04320
765.67534	0.04355
763.74668	0.04382
761.81803	0.04407
759.88938	0.04439
757.96072	0.04471
756.03207	0.04497
754.10342	0.04520
752.17476	0.04551
750.24611	0.04592
748.31746	0.04630
746.38880	0.04672
744.46015	0.04718
742.53150	0.04728
740.60284	0.04708
738.67419	0.04716
736.74554	0.04762
734.81688	0.04816
732.88823	0.04862
730.95958	0.04900
729.03092	0.04928
727.10227	0.04946
725.17362	0.04972
723.24496	0.05006
721.31631	0.05070
719.38766	0.05127
717.45900	0.05167
715.53035	0.05189
713.60170	0.05205
711.67304	0.05232
709.74439	0.05272
707.81574	0.05323
705.88708	0.05373
703.95843	0.05412
702.02978	0.05440
700.10113	0.05460
698.17247	0.05481
696.24382	0.05499
694.31517	0.05513
692.38651	0.05528
690.45786	0.05543
688.52921	0.05567
686.60055	0.05599
684.67190	0.05630
682.74325	0.05652
680.81459	0.05672
678.88594	0.05702
676.95729	0.05723
675.02863	0.05745
673.09998	0.05775
671.17133	0.05814
669.24267	0.05855
667.31402	0.05881
665.38537	0.05891
663.45671	0.05898
661.52806	0.05917
659.59941	0.05939
657.67075	0.05957
655.74210	0.05971
653.81345	0.05997
651.88479	0.06032
649.95614	0.06060
648.02749	0.06057
646.09883	0.06044
644.17018	0.06043
642.24153	0.06054
640.31287	0.06075
638.38422	0.06104
636.45557	0.06118
634.52692	0.06105
632.59826	0.06085
630.66961	0.06080
628.74096	0.06086
626.81230	0.06076
624.88365	0.06024
622.95500	0.05999
621.02634	0.06130
619.09769	0.06189
617.16904	0.05923
615.24038	0.05680
613.31173	0.05696
611.38308	0.05743
609.45442	0.05804
607.52577	0.05923
605.59712	0.05989
603.66846	0.06082
601.73981	0.06227
599.81116	0.06306
597.88250	0.06273
595.95385	0.06195
594.02520	0.06159
592.09654	0.06176
590.16789	0.06206
588.23924	0.06228
586.31058	0.06238
584.38193	0.06243
582.45328	0.06248
580.52462	0.06247
578.59597	0.06247
576.66732	0.06265
574.73866	0.06289
572.81001	0.06309
570.88136	0.06327
568.95270	0.06339
567.02405	0.06345
565.09540	0.06354
563.16675	0.06367
561.23809	0.06392
559.30944	0.06414
557.38079	0.06409
555.45213	0.06387
553.52348	0.06370
551.59483	0.06361
549.66617	0.06359
547.73752	0.06364
545.80887	0.06354
543.88021	0.06330
541.95156	0.06321
540.02291	0.06318
538.09425	0.06311
536.16560	0.06316
534.23695	0.06328
532.30829	0.06337
530.37964	0.06350
528.45099	0.06362
526.52233	0.06358
524.59368	0.06331
522.66503	0.06299
520.73637	0.06288
518.80772	0.06288
516.87907	0.06259
514.95041	0.06208
513.02176	0.06171
511.09311	0.06157
509.16445	0.06150
507.23580	0.06131
505.30715	0.06101
503.37849	0.06064
501.44984	0.06026
499.52119	0.05992
497.59254	0.05962
495.66388	0.05930
493.73523	0.05890
491.80658	0.05853
489.87792	0.05829
487.94927	0.05810
486.02062	0.05780
484.09196	0.05730
482.16331	0.05678
480.23466	0.05638
478.30600	0.05610
476.37735	0.05588
474.44870	0.05566
472.52004	0.05541
470.59139	0.05520
468.66274	0.05501
466.73408	0.05477
464.80543	0.05456
462.87678	0.05430
460.94812	0.05382
459.01947	0.05322
457.09082	0.05270
455.16216	0.05230
453.23351	0.05198
451.30486	0.05170
449.37620	0.05135
447.44755	0.05082
445.51890	0.05029
443.59024	0.05002
441.66159	0.04987
439.73294	0.04961
437.80428	0.04924
435.87563	0.04891
433.94698	0.04863
432.01833	0.04837
430.08967	0.04807
428.16102	0.04775
426.23237	0.04745
424.30371	0.04712
422.37506	0.04673
420.44641	0.04634
418.51775	0.04607
416.58910	0.04593
414.66045	0.04576
412.73179	0.04540
410.80314	0.04503
408.87449	0.04478
406.94583	0.04459
405.01718	0.04448
403.08853	0.04437
401.15987	0.04407
399.23122	0.04364
