3996.16951	0.02006
3994.24086	0.02014
3992.31220	0.02105
3990.38355	0.02179
3988.45490	0.02152
3986.52624	0.02090
3984.59759	0.02069
3982.66894	0.02095
3980.74028	0.02136
3978.81163	0.02158
3976.88298	0.02154
3974.95432	0.02133
3973.02567	0.02122
3971.09702	0.02130
3969.16836	0.02110
3967.23971	0.02053
3965.31106	0.02006
3963.38240	0.01996
3961.45375	0.02023
3959.52510	0.02059
3957.59645	0.02058
3955.66779	0.02018
3953.73914	0.01994
3951.81049	0.02009
3949.88183	0.02017
3947.95318	0.01985
3946.02453	0.01953
3944.09587	0.01973
3942.16722	0.02018
3940.23857	0.02027
3938.30991	0.01979
3936.38126	0.01904
3934.45261	0.01872
3932.52395	0.01908
3930.59530	0.01975
3928.66665	0.02024
3926.73799	0.02020
3924.80934	0.01981
3922.88069	0.01974
3920.95203	0.02005
3919.02338	0.02034
3917.09473	0.02060
3915.16607	0.02069
3913.23742	0.02058
3911.30877	0.02040
3909.38011	0.02014
3907.45146	0.01980
3905.52281	0.01941
3903.59415	0.01908
3901.66550	0.01912
3899.73685	0.01960
3897.80819	0.02015
3895.87954	0.02039
3893.95089	0.02039
3892.02224	0.02038
3890.09358	0.01999
3888.16493	0.01938
3886.23628	0.01932
3884.30762	0.01940
3882.37897	0.01951
3880.45032	0.01991
3878.52166	0.02016
3876.59301	0.02016
3874.66436	0.01993
3872.73570	0.01944
3870.80705	0.01927
3868.87840	0.01935
3866.94974	0.01958
3865.02109	0.01981
3863.09244	0.01982
3861.16378	0.02004
3859.23513	0.02004
3857.30648	0.01952
3855.37782	0.01957
3853.44917	0.02023
3851.52052	0.02047
3849.59186	0.02041
3847.66321	0.02031
3845.73456	0.02007
3843.80590	0.01975
3841.87725	0.01960
3839.94860	0.01979
3838.01994	0.01978
3836.09129	0.01903
3834.16264	0.01853
3832.23398	0.01862
3830.30533	0.01865
3828.37668	0.01872
3826.44803	0.01884
3824.51937	0.01884
3822.59072	0.01920
3820.66207	0.01929
3818.73341	0.01873
3816.80476	0.01850
3814.87611	0.01820
3812.94745	0.01811
3811.01880	0.01857
3809.09015	0.01885
3807.16149	0.01879
3805.23284	0.01849
3803.30419	0.01871
3801.37553	0.01917
3799.44688	0.01895
3797.51823	0.01873
3795.58957	0.01848
3793.66092	0.01811
3791.73227	0.01807
3789.80361	0.01828
3787.87496	0.01847
3785.94631	0.01853
3784.01765	0.01840
3782.08900	0.01826
3780.16035	0.01826
3778.23169	0.01812
3776.30304	0.01800
3774.37439	0.01817
3772.44573	0.01820
3770.51708	0.01786
3768.58843	0.01757
3766.65977	0.01787
3764.73112	0.01797
3762.80247	0.01734
3760.87381	0.01696
3758.94516	0.01712
3757.01651	0.01735
3755.08786	0.01757
3753.15920	0.01798
3751.23055	0.01801
3749.30190	0.01734
3747.37324	0.01676
3745.44459	0.01749
3743.51594	0.01792
3741.58728	0.01723
3739.65863	0.01675
3737.72998	0.01689
3735.80132	0.01729
3733.87267	0.01746
3731.94402	0.01745
3730.01536	0.01723
3728.08671	0.01709
3726.15806	0.01682
3724.22940	0.01644
3722.30075	0.01625
3720.37210	0.01612
3718.44344	0.01606
3716.51479	0.01615
3714.58614	0.01638
3712.65748	0.01661
3710.72883	0.01675
3708.80018	0.01703
3706.87152	0.01699
3704.94287	0.01646
3703.01422	0.01634
3701.08556	0.01661
3699.15691	0.01644
3697.22826	0.01598
3695.29960	0.01570
3693.37095	0.01564
3691.44230	0.01597
3689.51365	0.01715
3687.58499	0.01797
3685.65634	0.01732
3683.72769	0.01628
3681.79903	0.01588
3679.87038	0.01612
3677.94173	0.01674
3676.01307	0.01739
3674.08442	0.01711
3672.15577	0.01684
3670.22711	0.01721
3668.29846	0.01728
3666.36981	0.01699
3664.44115	0.01680
3662.51250	0.01711
3660.58385	0.01737
3658.65519	0.01723
3656.72654	0.01729
3654.79789	0.01731
3652.86923	0.01710
3650.94058	0.01735
3649.01193	0.01794
3647.08327	0.01786
3645.15462	0.01715
3643.22597	0.01704
3641.29731	0.01757
3639.36866	0.01793
3637.44001	0.01819
3635.51135	0.01872
3633.58270	0.01915
3631.65405	0.01937
3629.72539	0.01975
3627.79674	0.01983
3625.86809	0.01948
3623.93943	0.01880
3622.01078	0.01817
3620.08213	0.01841
3618.15348	0.01908
3616.22482	0.01974
3614.29617	0.02052
3612.36752	0.02082
3610.43886	0.02056
3608.51021	0.02038
3606.58156	0.02039
3604.65290	0.02040
3602.72425	0.02040
3600.79560	0.02064
3598.86694	0.02111
3596.93829	0.02127
3595.00964	0.02090
3593.08098	0.02065
3591.15233	0.02102
3589.22368	0.02178
3587.29502	0.02229
3585.36637	0.02213
3583.43772	0.02170
3581.50906	0.02153
3579.58041	0.02164
3577.65176	0.02196
3575.72310	0.02255
3573.79445	0.02323
3571.86580	0.02381
3569.93714	0.02447
3568.00849	0.02511
3566.07984	0.02531
3564.15118	0.02526
3562.22253	0.02529
3560.29388	0.02526
3558.36522	0.02495
3556.43657	0.02456
3554.50792	0.02459
3552.57927	0.02505
3550.65061	0.02557
3548.72196	0.02611
3546.79331	0.02659
3544.86465	0.02676
3542.93600	0.02679
3541.00735	0.02685
3539.07869	0.02678
3537.15004	0.02673
3535.22139	0.02707
3533.29273	0.02762
3531.36408	0.02789
3529.43543	0.02777
3527.50677	0.02755
3525.57812	0.02759
3523.64947	0.02798
3521.72081	0.02840
3519.79216	0.02860
3517.86351	0.02881
3515.93485	0.02924
3514.00620	0.02959
3512.07755	0.02963
3510.14889	0.02975
3508.22024	0.03018
3506.29159	0.03067
3504.36293	0.03090
3502.43428	0.03073
3500.50563	0.03045
3498.57697	0.03065
3496.64832	0.03133
3494.71967	0.03195
3492.79101	0.03235
3490.86236	0.03265
3488.93371	0.03265
3487.00506	0.03236
3485.07640	0.03223
3483.14775	0.03247
3481.21910	0.03279
3479.29044	0.03295
3477.36179	0.03316
3475.43314	0.03343
3473.50448	0.03335
3471.57583	0.03326
3469.64718	0.03376
3467.71852	0.03442
3465.78987	0.03459
3463.86122	0.03442
3461.93256	0.03439
3460.00391	0.03459
3458.07526	0.03485
3456.14660	0.03505
3454.21795	0.03524
3452.28930	0.03557
3450.36064	0.03592
3448.43199	0.03607
3446.50334	0.03604
3444.57468	0.03605
3442.64603	0.03612
3440.71738	0.03617
3438.78872	0.03626
3436.86007	0.03642
3434.93142	0.03669
3433.00276	0.03691
3431.07411	0.03688
3429.14546	0.03683
3427.21680	0.03701
3425.28815	0.03729
3423.35950	0.03752
3421.43084	0.03774
3419.50219	0.03807
3417.57354	0.03848
3415.64489	0.03882
3413.71623	0.03898
3411.78758	0.03906
3409.85893	0.03923
3407.93027	0.03945
3406.00162	0.03950
3404.07297	0.03938
3402.14431	0.03939
3400.21566	0.03949
3398.28701	0.03951
3396.35835	0.03934
3394.42970	0.03929
3392.50105	0.03973
3390.57239	0.04027
3388.64374	0.04055
3386.71509	0.04058
3384.78643	0.04050
3382.85778	0.04059
3380.92913	0.04078
3379.00047	0.04083
3377.07182	0.04106
3375.14317	0.04167
3373.21451	0.04227
3371.28586	0.04262
3369.35721	0.04280
3367.42855	0.04281
3365.49990	0.04263
3363.57125	0.04230
3361.64259	0.04217
3359.71394	0.04260
3357.78529	0.04358
3355.85663	0.04457
3353.92798	0.04497
3351.99933	0.04493
3350.07068	0.04505
3348.14202	0.04541
3346.21337	0.04572
3344.28472	0.04616
3342.35606	0.04693
3340.42741	0.04771
3338.49876	0.04809
3336.57010	0.04813
3334.64145	0.04819
3332.71280	0.04842
3330.78414	0.04850
3328.85549	0.04846
3326.92684	0.04875
3324.99818	0.04924
3323.06953	0.04947
3321.14088	0.04964
3319.21222	0.05008
3317.28357	0.05064
3315.35492	0.05104
3313.42626	0.05108
3311.49761	0.05076
3309.56896	0.05029
3307.64030	0.05011
3305.71165	0.05036
3303.78300	0.05062
3301.85434	0.05060
3299.92569	0.05055
3297.99704	0.05062
3296.06838	0.05062
3294.13973	0.05063
3292.21108	0.05072
3290.28242	0.05066
3288.35377	0.05043
3286.42512	0.05035
3284.49646	0.05056
3282.56781	0.05070
3280.63916	0.05055
3278.71051	0.05045
3276.78185	0.05049
3274.85320	0.05027
3272.92455	0.04984
3270.99589	0.04973
3269.06724	0.05004
3267.13859	0.05028
3265.20993	0.05004
3263.28128	0.04959
3261.35263	0.04952
3259.42397	0.04953
3257.49532	0.04900
3255.56667	0.04823
3253.63801	0.04792
3251.70936	0.04810
3249.78071	0.04824
3247.85205	0.04807
3245.92340	0.04786
3243.99475	0.04771
3242.06609	0.04750
3240.13744	0.04727
3238.20879	0.04707
3236.28013	0.04686
3234.35148	0.04664
3232.42283	0.04649
3230.49417	0.04647
3228.56552	0.04640
3226.63687	0.04631
3224.70821	0.04649
3222.77956	0.04674
3220.85091	0.04658
3218.92225	0.04598
3216.99360	0.04540
3215.06495	0.04517
3213.13630	0.04506
3211.20764	0.04484
3209.27899	0.04467
3207.35034	0.04462
3205.42168	0.04467
3203.49303	0.04479
3201.56438	0.04489
3199.63572	0.04492
3197.70707	0.04478
3195.77842	0.04451
3193.84976	0.04416
3191.92111	0.04368
3189.99246	0.04339
3188.06380	0.04344
3186.13515	0.04358
3184.20650	0.04357
3182.27784	0.04341
3180.34919	0.04314
3178.42054	0.04271
3176.49188	0.04218
3174.56323	0.04171
3172.63458	0.04119
3170.70592	0.04065
3168.77727	0.04043
3166.84862	0.04064
3164.91996	0.04088
3162.99131	0.04081
3161.06266	0.04061
3159.13400	0.04039
3157.20535	0.04006
3155.27670	0.03969
3153.34804	0.03913
3151.41939	0.03833
3149.49074	0.03779
3147.56209	0.03794
3145.63343	0.03831
3143.70478	0.03829
3141.77613	0.03797
3139.84747	0.03762
3137.91882	0.03724
3135.99017	0.03698
3134.06151	0.03701
3132.13286	0.03727
3130.20421	0.03729
3128.27555	0.03686
3126.34690	0.03648
3124.41825	0.03647
3122.48959	0.03644
3120.56094	0.03629
3118.63229	0.03623
3116.70363	0.03613
3114.77498	0.03591
3112.84633	0.03585
3110.91767	0.03589
3108.98902	0.03566
3107.06037	0.03544
3105.13171	0.03562
3103.20306	0.03590
3101.27441	0.03601
3099.34575	0.03596
3097.41710	0.03584
3095.48845	0.03586
3093.55979	0.03609
3091.63114	0.03636
3089.70249	0.03653
3087.77383	0.03660
3085.84518	0.03666
3083.91653	0.03671
3081.98787	0.03680
3080.05922	0.03702
3078.13057	0.03724
3076.20192	0.03725
3074.27326	0.03711
3072.34461	0.03706
3070.41596	0.03712
3068.48730	0.03701
3066.55865	0.03681
3064.63000	0.03691
3062.70134	0.03715
3060.77269	0.03704
3058.84404	0.03659
3056.91538	0.03627
3054.98673	0.03621
3053.05808	0.03608
3051.12942	0.03570
3049.20077	0.03530
3047.27212	0.03509
3045.34346	0.03500
3043.41481	0.03489
3041.48616	0.03464
3039.55750	0.03434
3037.62885	0.03407
3035.70020	0.03375
3033.77154	0.03338
3031.84289	0.03313
3029.91424	0.03297
3027.98558	0.03282
3026.05693	0.03268
3024.12828	0.03248
3022.19962	0.03215
3020.27097	0.03179
3018.34232	0.03151
3016.41366	0.03150
3014.48501	0.03170
3012.55636	0.03184
3010.62771	0.03178
3008.69905	0.03155
3006.77040	0.03134
3004.84175	0.03141
3002.91309	0.03156
3000.98444	0.03143
2999.05579	0.03143
2997.12713	0.03166
2995.19848	0.03183
2993.26983	0.03180
2991.34117	0.03195
2989.41252	0.03222
2987.48387	0.03227
2985.55521	0.03226
2983.62656	0.03241
2981.69791	0.03257
2979.76925	0.03267
2977.84060	0.03272
2975.91195	0.03276
2973.98329	0.03287
2972.05464	0.03295
2970.12599	0.03289
2968.19733	0.03282
2966.26868	0.03299
2964.34003	0.03335
2962.41137	0.03369
2960.48272	0.03393
2958.55407	0.03404
2956.62541	0.03402
2954.69676	0.03390
2952.76811	0.03382
2950.83945	0.03381
2948.91080	0.03369
2946.98215	0.03352
2945.05349	0.03352
2943.12484	0.03369
2941.19619	0.03392
2939.26754	0.03420
2937.33888	0.03435
2935.41023	0.03419
2933.48158	0.03403
2931.55292	0.03405
2929.62427	0.03400
2927.69562	0.03392
2925.76696	0.03392
2923.83831	0.03382
2921.90966	0.03367
2919.98100	0.03364
2918.05235	0.03359
2916.12370	0.03339
2914.19504	0.03316
2912.26639	0.03304
2910.33774	0.03294
2908.40908	0.03265
2906.48043	0.03219
2904.55178	0.03182
2902.62312	0.03168
2900.69447	0.03164
2898.76582	0.03147
2896.83716	0.03115
2894.90851	0.03086
2892.97986	0.03082
2891.05120	0.03097
2889.12255	0.03098
2887.19390	0.03080
2885.26524	0.03064
2883.33659	0.03073
2881.40794	0.03101
2879.47928	0.03115
2877.55063	0.03118
2875.62198	0.03114
2873.69333	0.03093
2871.76467	0.03077
2869.83602	0.03080
2867.90737	0.03065
2865.97871	0.03022
2864.05006	0.02989
2862.12141	0.02976
2860.19275	0.02963
2858.26410	0.02942
2856.33545	0.02914
2854.40679	0.02886
2852.47814	0.02865
2850.54949	0.02857
2848.62083	0.02858
2846.69218	0.02852
2844.76353	0.02831
2842.83487	0.02803
2840.90622	0.02792
2838.97757	0.02807
2837.04891	0.02815
2835.12026	0.02793
2833.19161	0.02759
2831.26295	0.02741
2829.33430	0.02735
2827.40565	0.02727
2825.47699	0.02710
2823.54834	0.02694
2821.61969	0.02689
2819.69103	0.02694
2817.76238	0.02698
2815.83373	0.02698
2813.90507	0.02697
2811.97642	0.02687
2810.04777	0.02669
2808.11912	0.02657
2806.19046	0.02650
2804.26181	0.02636
2802.33316	0.02611
2800.40450	0.02595
2798.47585	0.02598
2796.54720	0.02600
2794.61854	0.02597
2792.68989	0.02599
2790.76124	0.02606
2788.83258	0.02610
2786.90393	0.02600
2784.97528	0.02579
2783.04662	0.02571
2781.11797	0.02576
2779.18932	0.02577
2777.26066	0.02564
2775.33201	0.02540
2773.40336	0.02510
2771.47470	0.02493
2769.54605	0.02490
2767.61740	0.02489
2765.68874	0.02485
2763.76009	0.02483
2761.83144	0.02485
2759.90278	0.02493
2757.97413	0.02487
2756.04548	0.02464
2754.11682	0.02444
2752.18817	0.02428
2750.25952	0.02415
2748.33086	0.02414
2746.40221	0.02410
2744.47356	0.02391
2742.54490	0.02374
2740.61625	0.02378
2738.68760	0.02399
2736.75895	0.02416
2734.83029	0.02418
2732.90164	0.02415
2730.97299	0.02412
2729.04433	0.02396
2727.11568	0.02372
2725.18703	0.02362
2723.25837	0.02366
2721.32972	0.02365
2719.40107	0.02351
2717.47241	0.02340
2715.54376	0.02335
2713.61511	0.02321
2711.68645	0.02315
2709.75780	0.02325
2707.82915	0.02310
2705.90049	0.02275
2703.97184	0.02269
2702.04319	0.02275
2700.11453	0.02257
2698.18588	0.02248
2696.25723	0.02267
2694.32857	0.02285
2692.39992	0.02291
2690.47127	0.02289
2688.54261	0.02277
2686.61396	0.02256
2684.68531	0.02243
2682.75665	0.02246
2680.82800	0.02253
2678.89935	0.02256
2676.97069	0.02247
2675.04204	0.02220
2673.11339	0.02197
2671.18474	0.02200
2669.25608	0.02211
2667.32743	0.02199
2665.39878	0.02169
2663.47012	0.02141
2661.54147	0.02118
2659.61282	0.02099
2657.68416	0.02082
2655.75551	0.02062
2653.82686	0.02057
2651.89820	0.02078
2649.96955	0.02089
2648.04090	0.02075
2646.11224	0.02062
2644.18359	0.02056
2642.25494	0.02045
2640.32628	0.02040
2638.39763	0.02042
2636.46898	0.02019
2634.54032	0.01977
2632.61167	0.01954
2630.68302	0.01953
2628.75436	0.01953
2626.82571	0.01943
2624.89706	0.01935
2622.96840	0.01943
2621.03975	0.01952
2619.11110	0.01932
2617.18244	0.01889
2615.25379	0.01855
2613.32514	0.01844
2611.39648	0.01839
2609.46783	0.01831
2607.53918	0.01824
2605.61052	0.01822
2603.68187	0.01826
2601.75322	0.01838
2599.82457	0.01840
2597.89591	0.01826
2595.96726	0.01810
2594.03861	0.01808
2592.10995	0.01816
2590.18130	0.01799
2588.25265	0.01760
2586.32399	0.01736
2584.39534	0.01743
2582.46669	0.01765
2580.53803	0.01772
2578.60938	0.01760
2576.68073	0.01749
2574.75207	0.01750
2572.82342	0.01746
2570.89477	0.01717
2568.96611	0.01694
2567.03746	0.01709
2565.10881	0.01726
2563.18015	0.01714
2561.25150	0.01697
2559.32285	0.01705
2557.39419	0.01722
2555.46554	0.01710
2553.53689	0.01674
2551.60823	0.01649
2549.67958	0.01646
2547.75093	0.01664
2545.82227	0.01678
2543.89362	0.01648
2541.96497	0.01602
2540.03631	0.01603
2538.10766	0.01646
2536.17901	0.01674
2534.25036	0.01655
2532.32170	0.01589
2530.39305	0.01528
2528.46440	0.01537
2526.53574	0.01593
2524.60709	0.01637
2522.67844	0.01676
2520.74978	0.01704
2518.82113	0.01701
2516.89248	0.01691
2514.96382	0.01681
2513.03517	0.01661
2511.10652	0.01650
2509.17786	0.01657
2507.24921	0.01655
2505.32056	0.01632
2503.39190	0.01608
2501.46325	0.01578
2499.53460	0.01548
2497.60594	0.01558
2495.67729	0.01594
2493.74864	0.01605
2491.81998	0.01604
2489.89133	0.01615
2487.96268	0.01612
2486.03402	0.01586
2484.10537	0.01567
2482.17672	0.01557
2480.24806	0.01544
2478.31941	0.01545
2476.39076	0.01561
2474.46210	0.01577
2472.53345	0.01586
2470.60480	0.01584
2468.67615	0.01589
2466.74749	0.01598
2464.81884	0.01592
2462.89019	0.01579
2460.96153	0.01569
2459.03288	0.01555
2457.10423	0.01547
2455.17557	0.01542
2453.24692	0.01528
2451.31827	0.01519
2449.38961	0.01517
2447.46096	0.01510
2445.53231	0.01508
2443.60365	0.01518
2441.67500	0.01536
2439.74635	0.01551
2437.81769	0.01573
2435.88904	0.01600
2433.96039	0.01607
2432.03173	0.01588
2430.10308	0.01560
2428.17443	0.01534
2426.24577	0.01522
2424.31712	0.01529
2422.38847	0.01541
2420.45981	0.01548
2418.53116	0.01545
2416.60251	0.01518
2414.67385	0.01484
2412.74520	0.01472
2410.81655	0.01471
2408.88789	0.01481
2406.95924	0.01509
2405.03059	0.01539
2403.10193	0.01553
2401.17328	0.01562
2399.24463	0.01536
2397.31598	0.01559
2395.38732	0.01569
2393.45867	0.01572
2391.53002	0.01558
2389.60136	0.01537
2387.67271	0.01521
2385.74406	0.01513
2383.81540	0.01524
2381.88675	0.01544
2379.95810	0.01558
2378.02944	0.01567
2376.10079	0.01569
2374.17214	0.01548
2372.24348	0.01514
2370.31483	0.01490
2368.38618	0.01499
2366.45752	0.01540
2364.52887	0.01571
2362.60022	0.01570
2360.67156	0.01565
2358.74291	0.01576
2356.81426	0.01600
2354.88560	0.01617
2352.95695	0.01604
2351.02830	0.01579
2349.09964	0.01579
2347.17099	0.01597
2345.24234	0.01603
2343.31368	0.01591
2341.38503	0.01572
2339.45638	0.01554
2337.52772	0.01544
2335.59907	0.01534
2333.67042	0.01522
2331.74177	0.01518
2329.81311	0.01518
2327.88446	0.01501
2325.95581	0.01469
2324.02715	0.01445
2322.09850	0.01441
2320.16985	0.01438
2318.24119	0.01415
2316.31254	0.01391
2314.38389	0.01374
2312.45523	0.01362
2310.52658	0.01363
2308.59793	0.01387
2306.66927	0.01424
2304.74062	0.01440
2302.81197	0.01412
2300.88331	0.01360
2298.95466	0.01313
2297.02601	0.01282
2295.09735	0.01286
2293.16870	0.01313
2291.24005	0.01321
2289.31139	0.01312
2287.38274	0.01299
2285.45409	0.01254
2283.52543	0.01197
2281.59678	0.01184
2279.66813	0.01210
2277.73947	0.01222
2275.81082	0.01202
2273.88217	0.01180
2271.95351	0.01189
2270.02486	0.01212
2268.09621	0.01210
2266.16755	0.01172
2264.23890	0.01124
2262.31025	0.01099
2260.38160	0.01101
2258.45294	0.01116
2256.52429	0.01141
2254.59564	0.01152
2252.66698	0.01129
2250.73833	0.01092
2248.80968	0.01047
2246.88102	0.01098
2244.95237	0.01166
2243.02372	0.01154
2241.09506	0.01093
2239.16641	0.01062
2237.23776	0.01068
2235.30910	0.01046
2233.38045	0.00969
2231.45180	0.00915
2229.52314	0.00947
2227.59449	0.01016
2225.66584	0.01009
2223.73718	0.00946
2221.80853	0.00956
2219.87988	0.00994
2217.95122	0.00946
2216.02257	0.00921
2214.09392	0.00968
2212.16526	0.00918
2210.23661	0.00805
2208.30796	0.00775
2206.37930	0.00749
2204.45065	0.00649
2202.52200	0.00593
2200.59334	0.00683
2198.66469	0.00855
2196.73604	0.01007
2194.80739	0.01066
2192.87873	0.00958
2190.95008	0.00750
2189.02143	0.00608
2187.09277	0.00577
2185.16412	0.00575
2183.23547	0.00591
2181.30681	0.00636
2179.37816	0.00678
2177.44951	0.00734
2175.52085	0.00824
2173.59220	0.00864
2171.66355	0.00800
2169.73489	0.00748
2167.80624	0.00796
2165.87759	0.00823
2163.94893	0.00734
2162.02028	0.00630
2160.09163	0.00614
2158.16297	0.00633
2156.23432	0.00623
2154.30567	0.00654
2152.37701	0.00769
2150.44836	0.00899
2148.51971	0.00948
2146.59105	0.00902
2144.66240	0.00827
2142.73375	0.00803
2140.80509	0.00837
2138.87644	0.00869
2136.94779	0.00906
2135.01913	0.00965
2133.09048	0.00999
2131.16183	0.01009
2129.23318	0.01015
2127.30452	0.00985
2125.37587	0.00945
2123.44722	0.00962
2121.51856	0.01013
2119.58991	0.01047
2117.66126	0.01048
2115.73260	0.01002
2113.80395	0.00953
2111.87530	0.00948
2109.94664	0.00951
2108.01799	0.00939
2106.08934	0.00963
2104.16068	0.01006
2102.23203	0.00995
2100.30338	0.00952
2098.37472	0.00948
2096.44607	0.00949
2094.51742	0.00946
2092.58876	0.00972
2090.66011	0.01034
2088.73146	0.01061
2086.80280	0.01017
2084.87415	0.00946
2082.94550	0.00901
2081.01684	0.00899
2079.08819	0.00922
2077.15954	0.00928
2075.23088	0.00902
2073.30223	0.00865
2071.37358	0.00832
2069.44492	0.00789
2067.51627	0.00749
2065.58762	0.00744
2063.65896	0.00754
2061.73031	0.00737
2059.80166	0.00729
2057.87301	0.00741
2055.94435	0.00708
2054.01570	0.00626
2052.08705	0.00563
2050.15839	0.00538
2048.22974	0.00555
2046.30109	0.00613
2044.37243	0.00642
2042.44378	0.00593
2040.51513	0.00536
2038.58647	0.00591
2036.65782	0.00740
2034.72917	0.00817
2032.80051	0.00745
2030.87186	0.00628
2028.94321	0.00582
2027.01455	0.00602
2025.08590	0.00599
2023.15725	0.00592
2021.22859	0.00682
2019.29994	0.00795
2017.37129	0.00776
2015.44263	0.00653
2013.51398	0.00559
2011.58533	0.00510
2009.65667	0.00482
2007.72802	0.00520
2005.79937	0.00617
2003.87071	0.00735
2001.94206	0.00839
2000.01341	0.00837
1998.08475	0.00733
1996.15610	0.00654
1994.22745	0.00621
1992.29880	0.00593
1990.37014	0.00591
1988.44149	0.00617
1986.51284	0.00682
1984.58418	0.00746
1982.65553	0.00675
1980.72688	0.00501
1978.79822	0.00416
1976.86957	0.00465
1974.94092	0.00564
1973.01226	0.00668
1971.08361	0.00737
1969.15496	0.00701
1967.22630	0.00609
1965.29765	0.00589
1963.36900	0.00647
1961.44034	0.00707
1959.51169	0.00733
1957.58304	0.00736
1955.65438	0.00739
1953.72573	0.00743
1951.79708	0.00747
1949.86842	0.00755
1947.93977	0.00759
1946.01112	0.00774
1944.08246	0.00847
1942.15381	0.00924
1940.22516	0.00913
1938.29650	0.00847
1936.36785	0.00832
1934.43920	0.00888
1932.51054	0.00922
1930.58189	0.00891
1928.65324	0.00859
1926.72458	0.00852
1924.79593	0.00836
1922.86728	0.00804
1920.93863	0.00795
1919.00997	0.00835
1917.08132	0.00893
1915.15267	0.00934
1913.22401	0.00955
1911.29536	0.00947
1909.36671	0.00911
1907.43805	0.00869
1905.50940	0.00839
1903.58075	0.00821
1901.65209	0.00816
1899.72344	0.00834
1897.79479	0.00866
1895.86613	0.00894
1893.93748	0.00911
1892.00883	0.00897
1890.08017	0.00852
1888.15152	0.00810
1886.22287	0.00799
1884.29421	0.00817
1882.36556	0.00842
1880.43691	0.00861
1878.50825	0.00874
1876.57960	0.00876
1874.65095	0.00868
1872.72229	0.00858
1870.79364	0.00850
1868.86499	0.00837
1866.93633	0.00818
1865.00768	0.00814
1863.07903	0.00840
1861.15037	0.00869
1859.22172	0.00865
1857.29307	0.00837
1855.36442	0.00823
1853.43576	0.00824
1851.50711	0.00822
1849.57846	0.00820
1847.64980	0.00822
1845.72115	0.00823
1843.79250	0.00819
1841.86384	0.00813
1839.93519	0.00813
1838.00654	0.00817
1836.07788	0.00825
1834.14923	0.00820
1832.22058	0.00799
1830.29192	0.00790
1828.36327	0.00793
1826.43462	0.00800
1824.50596	0.00814
1822.57731	0.00841
1820.64866	0.00875
1818.72000	0.00892
1816.79135	0.00887
1814.86270	0.00873
1812.93404	0.00854
1811.00539	0.00833
1809.07674	0.00817
1807.14808	0.00814
1805.21943	0.00819
1803.29078	0.00823
1801.36212	0.00829
1799.43347	0.00833
1797.50482	0.00828
1795.57616	0.00817
1793.64751	0.00812
1791.71886	0.00809
1789.79021	0.00800
1787.86155	0.00794
1785.93290	0.00787
1784.00425	0.00776
1782.07559	0.00773
1780.14694	0.00777
1778.21829	0.00771
1776.28963	0.00764
1774.36098	0.00777
1772.43233	0.00789
1770.50367	0.00778
1768.57502	0.00779
1766.64637	0.00784
1764.71771	0.00782
1762.78906	0.00780
1760.86041	0.00766
1758.93175	0.00759
1757.00310	0.00769
1755.07445	0.00764
1753.14579	0.00766
1751.21714	0.00785
1749.28849	0.00791
1747.35983	0.00794
1745.43118	0.00808
1743.50253	0.00833
1741.57387	0.00857
1739.64522	0.00863
1737.71657	0.00851
1735.78791	0.00876
1733.85926	0.00924
1731.93061	0.00930
1730.00195	0.00926
1728.07330	0.00944
1726.14465	0.00975
1724.21599	0.00998
1722.28734	0.00993
1720.35869	0.00985
1718.43004	0.01017
1716.50138	0.01059
1714.57273	0.01082
1712.64408	0.01104
1710.71542	0.01145
1708.78677	0.01206
1706.85812	0.01288
1704.92946	0.01384
1703.00081	0.01493
1701.07216	0.01631
1699.14350	0.01749
1697.21485	0.01879
1695.28620	0.02033
1693.35754	0.02164
1691.42889	0.02304
1689.50024	0.02446
1687.57158	0.02592
1685.64293	0.02780
1683.71428	0.02975
1681.78562	0.03146
1679.85697	0.03329
1677.92832	0.03536
1675.99966	0.03772
1674.07101	0.04006
1672.14236	0.04240
1670.21370	0.04490
1668.28505	0.04728
1666.35640	0.04950
1664.42774	0.05185
1662.49909	0.05414
1660.57044	0.05603
1658.64178	0.05755
1656.71313	0.05893
1654.78448	0.06058
1652.85583	0.06214
1650.92717	0.06287
1648.99852	0.06349
1647.06987	0.06441
1645.14121	0.06512
1643.21256	0.06553
1641.28391	0.06590
1639.35525	0.06629
1637.42660	0.06693
1635.49795	0.06759
1633.56929	0.06768
1631.64064	0.06738
1629.71199	0.06690
1627.78333	0.06609
1625.85468	0.06488
1623.92603	0.06332
1621.99737	0.06130
1620.06872	0.05902
1618.14007	0.05693
1616.21141	0.05478
1614.28276	0.05239
1612.35411	0.05012
1610.42545	0.04806
1608.49680	0.04615
1606.56815	0.04431
1604.63949	0.04250
1602.71084	0.04084
1600.78219	0.03937
1598.85353	0.03805
1596.92488	0.03690
1594.99623	0.03589
1593.06757	0.03507
1591.13892	0.03452
1589.21027	0.03416
1587.28161	0.03387
1585.35296	0.03365
1583.42431	0.03356
1581.49566	0.03363
1579.56700	0.03393
1577.63835	0.03468
1575.70970	0.03562
1573.78104	0.03637
1571.85239	0.03735
1569.92374	0.03864
1567.99508	0.03996
1566.06643	0.04137
1564.13778	0.04276
1562.20912	0.04417
1560.28047	0.04594
1558.35182	0.04758
1556.42316	0.04874
1554.49451	0.04984
1552.56586	0.05080
1550.63720	0.05160
1548.70855	0.05223
1546.77990	0.05267
1544.85124	0.05294
1542.92259	0.05312
1540.99394	0.05344
1539.06528	0.05355
1537.13663	0.05316
1535.20798	0.05275
1533.27932	0.05243
1531.35067	0.05198
1529.42202	0.05151
1527.49336	0.05099
1525.56471	0.05035
1523.63606	0.04970
1521.70740	0.04912
1519.77875	0.04834
1517.85010	0.04754
1515.92145	0.04671
1513.99279	0.04561
1512.06414	0.04429
1510.13549	0.04296
1508.20683	0.04194
1506.27818	0.04093
1504.34953	0.03948
1502.42087	0.03795
1500.49222	0.03658
1498.56357	0.03533
1496.63491	0.03418
1494.70626	0.03297
1492.77761	0.03184
1490.84895	0.03086
1488.92030	0.02989
1486.99165	0.02900
1485.06299	0.02835
1483.13434	0.02802
1481.20569	0.02789
1479.27703	0.02786
1477.34838	0.02800
1475.41973	0.02840
1473.49107	0.02903
1471.56242	0.02968
1469.63377	0.03028
1467.70511	0.03096
1465.77646	0.03179
1463.84781	0.03261
1461.91915	0.03334
1459.99050	0.03419
1458.06185	0.03530
1456.13319	0.03623
1454.20454	0.03669
1452.27589	0.03694
1450.34724	0.03703
1448.41858	0.03699
1446.48993	0.03677
1444.56128	0.03634
1442.63262	0.03581
1440.70397	0.03531
1438.77532	0.03490
1436.84666	0.03449
1434.91801	0.03382
1432.98936	0.03305
1431.06070	0.03234
1429.13205	0.03179
1427.20340	0.03145
1425.27474	0.03126
1423.34609	0.03113
1421.41744	0.03111
1419.48878	0.03120
1417.56013	0.03117
1415.63148	0.03115
1413.70282	0.03123
1411.77417	0.03133
1409.84552	0.03149
1407.91686	0.03174
1405.98821	0.03200
1404.05956	0.03213
1402.13090	0.03211
1400.20225	0.03203
1398.27360	0.03192
1396.34494	0.03188
1394.41629	0.03184
1392.48764	0.03166
1390.55898	0.03147
1388.63033	0.03136
1386.70168	0.03120
1384.77302	0.03100
1382.84437	0.03090
1380.91572	0.03082
1378.98707	0.03061
1377.05841	0.03032
1375.12976	0.03000
1373.20111	0.02964
1371.27245	0.02925
1369.34380	0.02886
1367.41515	0.02841
1365.48649	0.02788
1363.55784	0.02738
1361.62919	0.02699
1359.70053	0.02675
1357.77188	0.02666
1355.84323	0.02670
1353.91457	0.02686
1351.98592	0.02712
1350.05727	0.02742
1348.12861	0.02772
1346.19996	0.02806
1344.27131	0.02847
1342.34265	0.02899
1340.41400	0.02950
1338.48535	0.02983
1336.55669	0.02993
1334.62804	0.02986
1332.69939	0.02960
1330.77073	0.02918
1328.84208	0.02874
1326.91343	0.02833
1324.98477	0.02797
1323.05612	0.02771
1321.12747	0.02754
1319.19881	0.02737
1317.27016	0.02715
1315.34151	0.02693
1313.41286	0.02673
1311.48420	0.02656
1309.55555	0.02641
1307.62690	0.02628
1305.69824	0.02613
1303.76959	0.02602
1301.84094	0.02596
1299.91228	0.02592
1297.98363	0.02583
1296.05498	0.02576
1294.12632	0.02583
1292.19767	0.02607
1290.26902	0.02644
1288.34036	0.02686
1286.41171	0.02726
1284.48306	0.02761
1282.55440	0.02789
1280.62575	0.02809
1278.69710	0.02812
1276.76844	0.02797
1274.83979	0.02784
1272.91114	0.02789
1270.98248	0.02807
1269.05383	0.02825
1267.12518	0.02843
1265.19652	0.02863
1263.26787	0.02890
1261.33922	0.02922
1259.41056	0.02955
1257.48191	0.02989
1255.55326	0.03032
1253.62460	0.03084
1251.69595	0.03141
1249.76730	0.03200
1247.83864	0.03262
1245.90999	0.03322
1243.98134	0.03376
1242.05269	0.03428
1240.12403	0.03479
1238.19538	0.03516
1236.26673	0.03533
1234.33807	0.03534
1232.40942	0.03519
1230.48077	0.03482
1228.55211	0.03425
1226.62346	0.03354
1224.69481	0.03273
1222.76615	0.03184
1220.83750	0.03100
1218.90885	0.03041
1216.98019	0.03002
1215.05154	0.02969
1213.12289	0.02939
1211.19423	0.02925
1209.26558	0.02932
1207.33693	0.02957
1205.40827	0.02986
1203.47962	0.03003
1201.55097	0.03001
1199.62231	0.02968
1197.69366	0.02922
1195.76501	0.02863
1193.83635	0.02809
1191.90770	0.02763
1189.97905	0.02708
1188.05039	0.02647
1186.12174	0.02597
1184.19309	0.02564
1182.26443	0.02542
1180.33578	0.02521
1178.40713	0.02501
1176.47848	0.02488
1174.54982	0.02482
1172.62117	0.02484
1170.69252	0.02490
1168.76386	0.02491
1166.83521	0.02487
1164.90656	0.02487
1162.97790	0.02489
1161.04925	0.02483
1159.12060	0.02465
1157.19194	0.02438
1155.26329	0.02402
1153.33464	0.02370
1151.40598	0.02345
1149.47733	0.02304
1147.54868	0.02245
1145.62002	0.02195
1143.69137	0.02166
1141.76272	0.02143
1139.83406	0.02120
1137.90541	0.02104
1135.97676	0.02095
1134.04810	0.02090
1132.11945	0.02079
1130.19080	0.02072
1128.26214	0.02076
1126.33349	0.02082
1124.40484	0.02080
1122.47618	0.02076
1120.54753	0.02070
1118.61888	0.02068
1116.69022	0.02072
1114.76157	0.02078
1112.83292	0.02082
1110.90427	0.02089
1108.97561	0.02099
1107.04696	0.02109
1105.11831	0.02118
1103.18965	0.02136
1101.26100	0.02162
1099.33235	0.02187
1097.40369	0.02199
1095.47504	0.02209
1093.54639	0.02235
1091.61773	0.02283
1089.68908	0.02337
1087.76043	0.02383
1085.83177	0.02436
1083.90312	0.02499
1081.97447	0.02550
1080.04581	0.02571
1078.11716	0.02570
1076.18851	0.02564
1074.25985	0.02559
1072.33120	0.02546
1070.40255	0.02533
1068.47389	0.02535
1066.54524	0.02544
1064.61659	0.02542
1062.68793	0.02524
1060.75928	0.02513
1058.83063	0.02521
1056.90197	0.02525
1054.97332	0.02507
1053.04467	0.02479
1051.11601	0.02451
1049.18736	0.02424
1047.25871	0.02406
1045.33005	0.02404
1043.40140	0.02402
1041.47275	0.02391
1039.54410	0.02391
1037.61544	0.02414
1035.68679	0.02443
1033.75814	0.02464
1031.82948	0.02473
1029.90083	0.02471
1027.97218	0.02451
1026.04352	0.02417
1024.11487	0.02380
1022.18622	0.02340
1020.25756	0.02302
1018.32891	0.02269
1016.40026	0.02239
1014.47160	0.02207
1012.54295	0.02173
1010.61430	0.02144
1008.68564	0.02123
1006.75699	0.02105
1004.82834	0.02082
1002.89968	0.02050
1000.97103	0.02014
999.04238	0.01982
997.11372	0.01955
995.18507	0.01935
993.25642	0.01920
991.32776	0.01902
989.39911	0.01882
987.47046	0.01868
985.54180	0.01862
983.61315	0.01852
981.68450	0.01837
979.75584	0.01830
977.82719	0.01833
975.89854	0.01837
973.96989	0.01833
972.04123	0.01824
970.11258	0.01800
968.18393	0.01765
966.25527	0.01743
964.32662	0.01743
962.39797	0.01744
960.46931	0.01737
958.54066	0.01731
956.61201	0.01726
954.68335	0.01716
952.75470	0.01703
950.82605	0.01690
948.89739	0.01684
946.96874	0.01684
945.04009	0.01682
943.11143	0.01685
941.18278	0.01709
939.25413	0.01727
937.32547	0.01715
935.39682	0.01694
933.46817	0.01683
931.53951	0.01679
929.61086	0.01676
927.68221	0.01670
925.75355	0.01659
923.82490	0.01648
921.89625	0.01640
919.96759	0.01637
918.03894	0.01639
916.11029	0.01632
914.18163	0.01612
912.25298	0.01599
910.32433	0.01595
908.39567	0.01584
906.46702	0.01577
904.53837	0.01577
902.60972	0.01569
900.68106	0.01561
898.75241	0.01558
896.82376	0.01550
894.89510	0.01534
892.96645	0.01522
891.03780	0.01512
889.10914	0.01502
887.18049	0.01496
885.25184	0.01501
883.32318	0.01514
881.39453	0.01527
879.46588	0.01539
877.53722	0.01551
875.60857	0.01567
873.67992	0.01580
871.75126	0.01569
869.82261	0.01541
867.89396	0.01519
865.96530	0.01513
864.03665	0.01514
862.10800	0.01515
860.17934	0.01517
858.25069	0.01519
856.32204	0.01517
854.39338	0.01511
852.46473	0.01503
850.53608	0.01500
848.60742	0.01501
846.67877	0.01501
844.75012	0.01500
842.82146	0.01497
840.89281	0.01491
838.96416	0.01485
837.03551	0.01482
835.10685	0.01478
833.17820	0.01469
831.24955	0.01467
829.32089	0.01483
827.39224	0.01509
825.46359	0.01526
823.53493	0.01529
821.60628	0.01534
819.67763	0.01550
817.74897	0.01575
815.82032	0.01591
813.89167	0.01590
811.96301	0.01575
810.03436	0.01563
808.10571	0.01569
806.17705	0.01590
804.24840	0.01608
802.31975	0.01606
800.39109	0.01597
798.46244	0.01603
796.53379	0.01620
794.60513	0.01630
792.67648	0.01633
790.74783	0.01644
788.81917	0.01666
786.89052	0.01685
784.96187	0.01703
783.03321	0.01727
781.10456	0.01744
779.17591	0.01744
777.24725	0.01749
775.31860	0.01759
773.38995	0.01762
771.46130	0.01772
769.53264	0.01790
767.60399	0.01801
765.67534	0.01805
763.74668	0.01803
761.81803	0.01804
759.88938	0.01829
757.96072	0.01872
756.03207	0.01897
754.10342	0.01898
752.17476	0.01886
750.24611	0.01881
748.31746	0.01899
746.38880	0.01922
744.46015	0.01928
742.53150	0.01932
740.60284	0.01956
738.67419	0.01992
736.74554	0.02020
734.81688	0.02031
732.88823	0.02032
730.95958	0.02040
729.03092	0.02053
727.10227	0.02069
725.17362	0.02088
723.24496	0.02095
721.31631	0.02128
719.38766	0.02152
717.45900	0.02168
715.53035	0.02183
713.60170	0.02198
711.67304	0.02213
709.74439	0.02224
707.81574	0.02233
705.88708	0.02242
703.95843	0.02254
702.02978	0.02271
700.10113	0.02291
698.17247	0.02309
696.24382	0.02322
694.31517	0.02328
692.38651	0.02328
690.45786	0.02330
688.52921	0.02341
686.60055	0.02351
684.67190	0.02359
682.74325	0.02375
680.81459	0.02393
678.88594	0.02402
676.95729	0.02408
675.02863	0.02419
673.09998	0.02429
671.17133	0.02433
669.24267	0.02437
667.31402	0.02444
665.38537	0.02458
663.45671	0.02477
661.52806	0.02494
659.59941	0.02502
657.67075	0.02505
655.74210	0.02513
653.81345	0.02531
651.88479	0.02550
649.95614	0.02554
648.02749	0.02546
646.09883	0.02542
644.17018	0.02539
642.24153	0.02533
640.31287	0.02534
638.38422	0.02545
636.45557	0.02551
634.52692	0.02544
632.59826	0.02533
630.66961	0.02552
628.74096	0.02523
626.81230	0.02433
624.88365	0.02403
622.95500	0.02439
621.02634	0.02447
619.09769	0.02355
617.16904	0.02260
615.24038	0.02249
613.31173	0.02318
611.38308	0.02414
609.45442	0.02527
607.52577	0.02675
605.59712	0.02813
603.66846	0.02862
601.73981	0.02823
599.81116	0.02753
597.88250	0.02684
595.95385	0.02639
594.02520	0.02628
592.09654	0.02630
590.16789	0.02643
588.23924	0.02668
586.31058	0.02680
584.38193	0.02668
582.45328	0.02643
580.52462	0.02613
578.59597	0.02604
576.66732	0.02629
574.73866	0.02664
572.81001	0.02691
570.88136	0.02720
568.95270	0.02755
567.02405	0.02785
565.09540	0.02794
563.16675	0.02774
561.23809	0.02745
559.30944	0.02732
557.38079	0.02724
555.45213	0.02719
553.52348	0.02725
551.59483	0.02737
549.66617	0.02731
547.73752	0.02698
545.80887	0.02666
543.88021	0.02662
541.95156	0.02661
540.02291	0.02647
538.09425	0.02642
536.16560	0.02651
534.23695	0.02651
532.30829	0.02645
530.37964	0.02654
528.45099	0.02672
526.52233	0.02675
524.59368	0.02656
522.66503	0.02638
520.73637	0.02628
518.80772	0.02604
516.87907	0.02566
514.95041	0.02530
513.02176	0.02503
511.09311	0.02493
509.16445	0.02501
507.23580	0.02496
505.30715	0.02471
503.37849	0.02450
501.44984	0.02427
499.52119	0.02397
497.59254	0.02384
495.66388	0.02388
493.73523	0.02379
491.80658	0.02349
489.87792	0.02324
487.94927	0.02320
486.02062	0.02321
484.09196	0.02304
482.16331	0.02274
480.23466	0.02262
478.30600	0.02266
476.37735	0.02252
474.44870	0.02216
472.52004	0.02182
470.59139	0.02161
468.66274	0.02146
466.73408	0.02142
464.80543	0.02141
462.87678	0.02124
460.94812	0.02097
459.01947	0.02076
457.09082	0.02053
455.16216	0.02023
453.23351	0.02002
451.30486	0.01988
449.37620	0.01973
447.44755	0.01959
445.51890	0.01949
443.59024	0.01945
441.66159	0.01941
439.73294	0.01927
437.80428	0.01904
435.87563	0.01880
433.94698	0.01862
432.01833	0.01847
430.08967	0.01837
428.16102	0.01833
426.23237	0.01825
424.30371	0.01815
422.37506	0.01808
420.44641	0.01803
418.51775	0.01796
416.58910	0.01789
414.66045	0.01782
412.73179	0.01768
410.80314	0.01751
408.87449	0.01736
406.94583	0.01723
405.01718	0.01710
403.08853	0.01695
401.15987	0.01674
399.23122	0.01656
