3996.16951	0.06525
3994.24086	0.06510
3992.31220	0.06502
3990.38355	0.06502
3988.45490	0.06494
3986.52624	0.06475
3984.59759	0.06458
3982.66894	0.06470
3980.74028	0.06502
3978.81163	0.06512
3976.88298	0.06499
3974.95432	0.06494
3973.02567	0.06501
3971.09702	0.06488
3969.16836	0.06460
3967.23971	0.06454
3965.31106	0.06476
3963.38240	0.06493
3961.45375	0.06491
3959.52510	0.06489
3957.59645	0.06500
3955.66779	0.06499
3953.73914	0.06472
3951.81049	0.06436
3949.88183	0.06405
3947.95318	0.06375
3946.02453	0.06339
3944.09587	0.06297
3942.16722	0.06277
3940.23857	0.06283
3938.30991	0.06275
3936.38126	0.06246
3934.45261	0.06246
3932.52395	0.06277
3930.59530	0.06284
3928.66665	0.06262
3926.73799	0.06233
3924.80934	0.06211
3922.88069	0.06215
3920.95203	0.06225
3919.02338	0.06218
3917.09473	0.06204
3915.16607	0.06199
3913.23742	0.06204
3911.30877	0.06235
3909.38011	0.06294
3907.45146	0.06320
3905.52281	0.06294
3903.59415	0.06271
3901.66550	0.06265
3899.73685	0.06255
3897.80819	0.06235
3895.87954	0.06196
3893.95089	0.06156
3892.02224	0.06142
3890.09358	0.06114
3888.16493	0.06077
3886.23628	0.06105
3884.30762	0.06157
3882.37897	0.06140
3880.45032	0.06094
3878.52166	0.06100
3876.59301	0.06121
3874.66436	0.06086
3872.73570	0.06044
3870.80705	0.06051
3868.87840	0.06060
3866.94974	0.06045
3865.02109	0.06052
3863.09244	0.06081
3861.16378	0.06072
3859.23513	0.06014
3857.30648	0.05990
3855.37782	0.06048
3853.44917	0.06098
3851.52052	0.06075
3849.59186	0.06038
3847.66321	0.05999
3845.73456	0.05897
3843.80590	0.05775
3841.87725	0.05740
3839.94860	0.05784
3838.01994	0.05816
3836.09129	0.05816
3834.16264	0.05835
3832.23398	0.05861
3830.30533	0.05847
3828.37668	0.05809
3826.44803	0.05771
3824.51937	0.05736
3822.59072	0.05737
3820.66207	0.05781
3818.73341	0.05814
3816.80476	0.05814
3814.87611	0.05800
3812.94745	0.05775
3811.01880	0.05750
3809.09015	0.05745
3807.16149	0.05760
3805.23284	0.05761
3803.30419	0.05733
3801.37553	0.05716
3799.44688	0.05726
3797.51823	0.05710
3795.58957	0.05637
3793.66092	0.05570
3791.73227	0.05585
3789.80361	0.05644
3787.87496	0.05663
3785.94631	0.05637
3784.01765	0.05608
3782.08900	0.05599
3780.16035	0.05597
3778.23169	0.05562
3776.30304	0.05516
3774.37439	0.05528
3772.44573	0.05574
3770.51708	0.05569
3768.58843	0.05538
3766.65977	0.05535
3764.73112	0.05508
3762.80247	0.05439
3760.87381	0.05400
3758.94516	0.05420
3757.01651	0.05450
3755.08786	0.05465
3753.15920	0.05500
3751.23055	0.05550
3749.30190	0.05533
3747.37324	0.05438
3745.44459	0.05362
3743.51594	0.05359
3741.58728	0.05379
3739.65863	0.05356
3737.72998	0.05310
3735.80132	0.05299
3733.87267	0.05303
3731.94402	0.05263
3730.01536	0.05193
3728.08671	0.05168
3726.15806	0.05210
3724.22940	0.05253
3722.30075	0.05241
3720.37210	0.05188
3718.44344	0.05126
3716.51479	0.05068
3714.58614	0.05023
3712.65748	0.05009
3710.72883	0.05061
3708.80018	0.05151
3706.87152	0.05185
3704.94287	0.05156
3703.01422	0.05123
3701.08556	0.05092
3699.15691	0.05055
3697.22826	0.05032
3695.29960	0.05040
3693.37095	0.05079
3691.44230	0.05109
3689.51365	0.05096
3687.58499	0.05068
3685.65634	0.05051
3683.72769	0.05034
3681.79903	0.05028
3679.87038	0.05039
3677.94173	0.05069
3676.01307	0.05109
3674.08442	0.05116
3672.15577	0.05097
3670.22711	0.05118
3668.29846	0.05166
3666.36981	0.05157
3664.44115	0.05104
3662.51250	0.05103
3660.58385	0.05173
3658.65519	0.05238
3656.72654	0.05228
3654.79789	0.05146
3652.86923	0.05078
3650.94058	0.05122
3649.01193	0.05242
3647.08327	0.05315
3645.15462	0.05333
3643.22597	0.05385
3641.29731	0.05470
3639.36866	0.05513
3637.44001	0.05511
3635.51135	0.05509
3633.58270	0.05503
3631.65405	0.05479
3629.72539	0.05486
3627.79674	0.05523
3625.86809	0.05563
3623.93943	0.05624
3622.01078	0.05718
3620.08213	0.05803
3618.15348	0.05877
3616.22482	0.05923
3614.29617	0.05921
3612.36752	0.05940
3610.43886	0.06014
3608.51021	0.06069
3606.58156	0.06071
3604.65290	0.06060
3602.72425	0.06069
3600.79560	0.06128
3598.86694	0.06223
3596.93829	0.06281
3595.00964	0.06309
3593.08098	0.06369
3591.15233	0.06445
3589.22368	0.06481
3587.29502	0.06487
3585.36637	0.06507
3583.43772	0.06570
3581.50906	0.06651
3579.58041	0.06723
3577.65176	0.06799
3575.72310	0.06862
3573.79445	0.06895
3571.86580	0.06946
3569.93714	0.07019
3568.00849	0.07072
3566.07984	0.07130
3564.15118	0.07218
3562.22253	0.07267
3560.29388	0.07266
3558.36522	0.07303
3556.43657	0.07385
3554.50792	0.07467
3552.57927	0.07533
3550.65061	0.07572
3548.72196	0.07613
3546.79331	0.07686
3544.86465	0.07778
3542.93600	0.07871
3541.00735	0.07923
3539.07869	0.07929
3537.15004	0.07960
3535.22139	0.08033
3533.29273	0.08098
3531.36408	0.08136
3529.43543	0.08165
3527.50677	0.08223
3525.57812	0.08326
3523.64947	0.08433
3521.72081	0.08488
3519.79216	0.08510
3517.86351	0.08559
3515.93485	0.08640
3514.00620	0.08704
3512.07755	0.08744
3510.14889	0.08807
3508.22024	0.08899
3506.29159	0.08975
3504.36293	0.09030
3502.43428	0.09072
3500.50563	0.09091
3498.57697	0.09112
3496.64832	0.09157
3494.71967	0.09212
3492.79101	0.09275
3490.86236	0.09338
3488.93371	0.09369
3487.00506	0.09378
3485.07640	0.09428
3483.14775	0.09534
3481.21910	0.09618
3479.29044	0.09636
3477.36179	0.09640
3475.43314	0.09676
3473.50448	0.09730
3471.57583	0.09779
3469.64718	0.09825
3467.71852	0.09866
3465.78987	0.09896
3463.86122	0.09926
3461.93256	0.09988
3460.00391	0.10066
3458.07526	0.10108
3456.14660	0.10126
3454.21795	0.10171
3452.28930	0.10231
3450.36064	0.10280
3448.43199	0.10321
3446.50334	0.10351
3444.57468	0.10372
3442.64603	0.10413
3440.71738	0.10468
3438.78872	0.10504
3436.86007	0.10527
3434.93142	0.10563
3433.00276	0.10617
3431.07411	0.10681
3429.14546	0.10732
3427.21680	0.10757
3425.28815	0.10783
3423.35950	0.10833
3421.43084	0.10892
3419.50219	0.10938
3417.57354	0.10998
3415.64489	0.11105
3413.71623	0.11203
3411.78758	0.11235
3409.85893	0.11245
3407.93027	0.11269
3406.00162	0.11289
3404.07297	0.11294
3402.14431	0.11296
3400.21566	0.11325
3398.28701	0.11382
3396.35835	0.11441
3394.42970	0.11491
3392.50105	0.11525
3390.57239	0.11532
3388.64374	0.11541
3386.71509	0.11578
3384.78643	0.11631
3382.85778	0.11691
3380.92913	0.11749
3379.00047	0.11779
3377.07182	0.11797
3375.14317	0.11848
3373.21451	0.11939
3371.28586	0.12042
3369.35721	0.12138
3367.42855	0.12231
3365.49990	0.12308
3363.57125	0.12365
3361.64259	0.12414
3359.71394	0.12466
3357.78529	0.12537
3355.85663	0.12643
3353.92798	0.12770
3351.99933	0.12885
3350.07068	0.13006
3348.14202	0.13139
3346.21337	0.13235
3344.28472	0.13284
3342.35606	0.13353
3340.42741	0.13453
3338.49876	0.13545
3336.57010	0.13631
3334.64145	0.13721
3332.71280	0.13799
3330.78414	0.13881
3328.85549	0.13965
3326.92684	0.14033
3324.99818	0.14090
3323.06953	0.14152
3321.14088	0.14215
3319.21222	0.14252
3317.28357	0.14258
3315.35492	0.14284
3313.42626	0.14356
3311.49761	0.14436
3309.56896	0.14494
3307.64030	0.14524
3305.71165	0.14528
3303.78300	0.14521
3301.85434	0.14530
3299.92569	0.14561
3297.99704	0.14580
3296.06838	0.14564
3294.13973	0.14547
3292.21108	0.14540
3290.28242	0.14509
3288.35377	0.14474
3286.42512	0.14469
3284.49646	0.14485
3282.56781	0.14503
3280.63916	0.14512
3278.71051	0.14500
3276.78185	0.14479
3274.85320	0.14446
3272.92455	0.14382
3270.99589	0.14310
3269.06724	0.14262
3267.13859	0.14227
3265.20993	0.14180
3263.28128	0.14105
3261.35263	0.14016
3259.42397	0.13954
3257.49532	0.13922
3255.56667	0.13894
3253.63801	0.13852
3251.70936	0.13788
3249.78071	0.13709
3247.85205	0.13626
3245.92340	0.13556
3243.99475	0.13513
3242.06609	0.13486
3240.13744	0.13459
3238.20879	0.13437
3236.28013	0.13411
3234.35148	0.13364
3232.42283	0.13307
3230.49417	0.13249
3228.56552	0.13204
3226.63687	0.13187
3224.70821	0.13170
3222.77956	0.13124
3220.85091	0.13060
3218.92225	0.13007
3216.99360	0.12973
3215.06495	0.12930
3213.13630	0.12871
3211.20764	0.12823
3209.27899	0.12783
3207.35034	0.12756
3205.42168	0.12768
3203.49303	0.12787
3201.56438	0.12756
3199.63572	0.12671
3197.70707	0.12562
3195.77842	0.12455
3193.84976	0.12373
3191.92111	0.12314
3189.99246	0.12259
3188.06380	0.12217
3186.13515	0.12187
3184.20650	0.12137
3182.27784	0.12072
3180.34919	0.12019
3178.42054	0.11966
3176.49188	0.11894
3174.56323	0.11815
3172.63458	0.11725
3170.70592	0.11606
3168.77727	0.11488
3166.84862	0.11423
3164.91996	0.11387
3162.99131	0.11327
3161.06266	0.11244
3159.13400	0.11172
3157.20535	0.11112
3155.27670	0.11036
3153.34804	0.10949
3151.41939	0.10880
3149.49074	0.10830
3147.56209	0.10780
3145.63343	0.10734
3143.70478	0.10682
3141.77613	0.10610
3139.84747	0.10555
3137.91882	0.10527
3135.99017	0.10477
3134.06151	0.10392
3132.13286	0.10328
3130.20421	0.10300
3128.27555	0.10260
3126.34690	0.10207
3124.41825	0.10171
3122.48959	0.10139
3120.56094	0.10108
3118.63229	0.10102
3116.70363	0.10089
3114.77498	0.10042
3112.84633	0.10016
3110.91767	0.10054
3108.98902	0.10094
3107.06037	0.10085
3105.13171	0.10070
3103.20306	0.10077
3101.27441	0.10082
3099.34575	0.10085
3097.41710	0.10090
3095.48845	0.10082
3093.55979	0.10089
3091.63114	0.10144
3089.70249	0.10202
3087.77383	0.10215
3085.84518	0.10207
3083.91653	0.10217
3081.98787	0.10249
3080.05922	0.10281
3078.13057	0.10301
3076.20192	0.10316
3074.27326	0.10327
3072.34461	0.10323
3070.41596	0.10300
3068.48730	0.10261
3066.55865	0.10219
3064.63000	0.10194
3062.70134	0.10184
3060.77269	0.10173
3058.84404	0.10154
3056.91538	0.10113
3054.98673	0.10042
3053.05808	0.09970
3051.12942	0.09904
3049.20077	0.09827
3047.27212	0.09754
3045.34346	0.09701
3043.41481	0.09658
3041.48616	0.09603
3039.55750	0.09516
3037.62885	0.09423
3035.70020	0.09359
3033.77154	0.09327
3031.84289	0.09302
3029.91424	0.09250
3027.98558	0.09180
3026.05693	0.09121
3024.12828	0.09070
3022.19962	0.09007
3020.27097	0.08941
3018.34232	0.08879
3016.41366	0.08819
3014.48501	0.08781
3012.55636	0.08775
3010.62771	0.08789
3008.69905	0.08802
3006.77040	0.08801
3004.84175	0.08775
3002.91309	0.08741
3000.98444	0.08729
2999.05579	0.08738
2997.12713	0.08735
2995.19848	0.08724
2993.26983	0.08737
2991.34117	0.08787
2989.41252	0.08848
2987.48387	0.08887
2985.55521	0.08913
2983.62656	0.08963
2981.69791	0.09031
2979.76925	0.09073
2977.84060	0.09086
2975.91195	0.09107
2973.98329	0.09146
2972.05464	0.09195
2970.12599	0.09239
2968.19733	0.09266
2966.26868	0.09287
2964.34003	0.09329
2962.41137	0.09387
2960.48272	0.09434
2958.55407	0.09464
2956.62541	0.09490
2954.69676	0.09495
2952.76811	0.09473
2950.83945	0.09458
2948.91080	0.09479
2946.98215	0.09520
2945.05349	0.09536
2943.12484	0.09525
2941.19619	0.09540
2939.26754	0.09585
2937.33888	0.09616
2935.41023	0.09617
2933.48158	0.09606
2931.55292	0.09593
2929.62427	0.09588
2927.69562	0.09596
2925.76696	0.09588
2923.83831	0.09545
2921.90966	0.09489
2919.98100	0.09438
2918.05235	0.09401
2916.12370	0.09347
2914.19504	0.09245
2912.26639	0.09128
2910.33774	0.09032
2908.40908	0.08952
2906.48043	0.08888
2904.55178	0.08840
2902.62312	0.08783
2900.69447	0.08713
2898.76582	0.08659
2896.83716	0.08636
2894.90851	0.08614
2892.97986	0.08572
2891.05120	0.08536
2889.12255	0.08531
2887.19390	0.08532
2885.26524	0.08518
2883.33659	0.08505
2881.40794	0.08508
2879.47928	0.08517
2877.55063	0.08517
2875.62198	0.08505
2873.69333	0.08482
2871.76467	0.08450
2869.83602	0.08418
2867.90737	0.08385
2865.97871	0.08331
2864.05006	0.08251
2862.12141	0.08176
2860.19275	0.08119
2858.26410	0.08078
2856.33545	0.08059
2854.40679	0.08056
2852.47814	0.08040
2850.54949	0.07999
2848.62083	0.07940
2846.69218	0.07870
2844.76353	0.07813
2842.83487	0.07765
2840.90622	0.07705
2838.97757	0.07638
2837.04891	0.07583
2835.12026	0.07542
2833.19161	0.07507
2831.26295	0.07468
2829.33430	0.07422
2827.40565	0.07387
2825.47699	0.07375
2823.54834	0.07356
2821.61969	0.07315
2819.69103	0.07283
2817.76238	0.07280
2815.83373	0.07278
2813.90507	0.07253
2811.97642	0.07216
2810.04777	0.07174
2808.11912	0.07141
2806.19046	0.07135
2804.26181	0.07144
2802.33316	0.07135
2800.40450	0.07105
2798.47585	0.07074
2796.54720	0.07045
2794.61854	0.07019
2792.68989	0.06993
2790.76124	0.06966
2788.83258	0.06937
2786.90393	0.06899
2784.97528	0.06863
2783.04662	0.06845
2781.11797	0.06838
2779.18932	0.06828
2777.26066	0.06826
2775.33201	0.06822
2773.40336	0.06804
2771.47470	0.06786
2769.54605	0.06776
2767.61740	0.06757
2765.68874	0.06733
2763.76009	0.06721
2761.83144	0.06717
2759.90278	0.06698
2757.97413	0.06652
2756.04548	0.06599
2754.11682	0.06568
2752.18817	0.06569
2750.25952	0.06572
2748.33086	0.06557
2746.40221	0.06532
2744.47356	0.06508
2742.54490	0.06483
2740.61625	0.06449
2738.68760	0.06418
2736.75895	0.06412
2734.83029	0.06417
2732.90164	0.06409
2730.97299	0.06395
2729.04433	0.06381
2727.11568	0.06358
2725.18703	0.06321
2723.25837	0.06292
2721.32972	0.06285
2719.40107	0.06280
2717.47241	0.06257
2715.54376	0.06236
2713.61511	0.06226
2711.68645	0.06215
2709.75780	0.06206
2707.82915	0.06202
2705.90049	0.06184
2703.97184	0.06150
2702.04319	0.06127
2700.11453	0.06128
2698.18588	0.06134
2696.25723	0.06121
2694.32857	0.06087
2692.39992	0.06057
2690.47127	0.06046
2688.54261	0.06038
2686.61396	0.06016
2684.68531	0.05987
2682.75665	0.05963
2680.82800	0.05950
2678.89935	0.05948
2676.97069	0.05955
2675.04204	0.05961
2673.11339	0.05959
2671.18474	0.05948
2669.25608	0.05927
2667.32743	0.05908
2665.39878	0.05897
2663.47012	0.05884
2661.54147	0.05854
2659.61282	0.05812
2657.68416	0.05774
2655.75551	0.05744
2653.82686	0.05715
2651.89820	0.05688
2649.96955	0.05651
2648.04090	0.05597
2646.11224	0.05556
2644.18359	0.05540
2642.25494	0.05526
2640.32628	0.05494
2638.39763	0.05445
2636.46898	0.05397
2634.54032	0.05364
2632.61167	0.05345
2630.68302	0.05341
2628.75436	0.05333
2626.82571	0.05305
2624.89706	0.05279
2622.96840	0.05270
2621.03975	0.05254
2619.11110	0.05213
2617.18244	0.05176
2615.25379	0.05158
2613.32514	0.05139
2611.39648	0.05111
2609.46783	0.05074
2607.53918	0.05030
2605.61052	0.04984
2603.68187	0.04949
2601.75322	0.04957
2599.82457	0.04993
2597.89591	0.04989
2595.96726	0.04956
2594.03861	0.04948
2592.10995	0.04949
2590.18130	0.04919
2588.25265	0.04854
2586.32399	0.04789
2584.39534	0.04758
2582.46669	0.04751
2580.53803	0.04744
2578.60938	0.04736
2576.68073	0.04737
2574.75207	0.04737
2572.82342	0.04730
2570.89477	0.04714
2568.96611	0.04680
2567.03746	0.04644
2565.10881	0.04630
2563.18015	0.04628
2561.25150	0.04620
2559.32285	0.04600
2557.39419	0.04581
2555.46554	0.04580
2553.53689	0.04582
2551.60823	0.04574
2549.67958	0.04566
2547.75093	0.04552
2545.82227	0.04549
2543.89362	0.04562
2541.96497	0.04554
2540.03631	0.04515
2538.10766	0.04468
2536.17901	0.04438
2534.25036	0.04425
2532.32170	0.04419
2530.39305	0.04429
2528.46440	0.04450
2526.53574	0.04448
2524.60709	0.04422
2522.67844	0.04406
2520.74978	0.04403
2518.82113	0.04388
2516.89248	0.04359
2514.96382	0.04318
2513.03517	0.04279
2511.10652	0.04265
2509.17786	0.04270
2507.24921	0.04276
2505.32056	0.04272
2503.39190	0.04267
2501.46325	0.04269
2499.53460	0.04259
2497.60594	0.04236
2495.67729	0.04239
2493.74864	0.04285
2491.81998	0.04323
2489.89133	0.04296
2487.96268	0.04241
2486.03402	0.04221
2484.10537	0.04219
2482.17672	0.04210
2480.24806	0.04204
2478.31941	0.04190
2476.39076	0.04171
2474.46210	0.04165
2472.53345	0.04149
2470.60480	0.04133
2468.67615	0.04141
2466.74749	0.04146
2464.81884	0.04136
2462.89019	0.04134
2460.96153	0.04139
2459.03288	0.04128
2457.10423	0.04094
2455.17557	0.04042
2453.24692	0.03992
2451.31827	0.03977
2449.38961	0.03992
2447.46096	0.03990
2445.53231	0.03984
2443.60365	0.04005
2441.67500	0.04028
2439.74635	0.04024
2437.81769	0.04005
2435.88904	0.03988
2433.96039	0.03990
2432.03173	0.04000
2430.10308	0.03995
2428.17443	0.03983
2426.24577	0.03974
2424.31712	0.03988
2422.38847	0.04026
2420.45981	0.04035
2418.53116	0.04009
2416.60251	0.03999
2414.67385	0.03997
2412.74520	0.03974
2410.81655	0.03957
2408.88789	0.03975
2406.95924	0.03996
2405.03059	0.03980
2403.10193	0.03953
2401.17328	0.03968
2399.24463	0.03988
2397.31598	0.03977
2395.38732	0.03974
2393.45867	0.04013
2391.53002	0.04052
2389.60136	0.04062
2387.67271	0.04059
2385.74406	0.04046
2383.81540	0.04024
2381.88675	0.04018
2379.95810	0.04037
2378.02944	0.04074
2376.10079	0.04117
2374.17214	0.04137
2372.24348	0.04124
2370.31483	0.04110
2368.38618	0.04128
2366.45752	0.04150
2364.52887	0.04143
2362.60022	0.04120
2360.67156	0.04105
2358.74291	0.04099
2356.81426	0.04099
2354.88560	0.04101
2352.95695	0.04094
2351.02830	0.04078
2349.09964	0.04076
2347.17099	0.04095
2345.24234	0.04108
2343.31368	0.04096
2341.38503	0.04075
2339.45638	0.04064
2337.52772	0.04062
2335.59907	0.04058
2333.67042	0.04053
2331.74177	0.04047
2329.81311	0.04026
2327.88446	0.03982
2325.95581	0.03921
2324.02715	0.03868
2322.09850	0.03844
2320.16985	0.03829
2318.24119	0.03799
2316.31254	0.03763
2314.38389	0.03737
2312.45523	0.03738
2310.52658	0.03751
2308.59793	0.03746
2306.66927	0.03723
2304.74062	0.03691
2302.81197	0.03654
2300.88331	0.03609
2298.95466	0.03561
2297.02601	0.03510
2295.09735	0.03457
2293.16870	0.03404
2291.24005	0.03366
2289.31139	0.03339
2287.38274	0.03299
2285.45409	0.03259
2283.52543	0.03252
2281.59678	0.03261
2279.66813	0.03236
2277.73947	0.03188
2275.81082	0.03176
2273.88217	0.03203
2271.95351	0.03211
2270.02486	0.03177
2268.09621	0.03093
2266.16755	0.02985
2264.23890	0.02940
2262.31025	0.03003
2260.38160	0.03080
2258.45294	0.03062
2256.52429	0.02989
2254.59564	0.02947
2252.66698	0.02911
2250.73833	0.02841
2248.80968	0.02793
2246.88102	0.02798
2244.95237	0.02831
2243.02372	0.02829
2241.09506	0.02787
2239.16641	0.02732
2237.23776	0.02667
2235.30910	0.02628
2233.38045	0.02646
2231.45180	0.02681
2229.52314	0.02714
2227.59449	0.02763
2225.66584	0.02778
2223.73718	0.02734
2221.80853	0.02676
2219.87988	0.02595
2217.95122	0.02497
2216.02257	0.02421
2214.09392	0.02354
2212.16526	0.02292
2210.23661	0.02258
2208.30796	0.02272
2206.37930	0.02275
2204.45065	0.02182
2202.52200	0.02098
2200.59334	0.02149
2198.66469	0.02234
2196.73604	0.02226
2194.80739	0.02137
2192.87873	0.02058
2190.95008	0.02068
2189.02143	0.02140
2187.09277	0.02177
2185.16412	0.02114
2183.23547	0.01993
2181.30681	0.01942
2179.37816	0.02010
2177.44951	0.02076
2175.52085	0.01999
2173.59220	0.01849
2171.66355	0.01793
2169.73489	0.01785
2167.80624	0.01717
2165.87759	0.01608
2163.94893	0.01509
2162.02028	0.01460
2160.09163	0.01465
2158.16297	0.01522
2156.23432	0.01642
2154.30567	0.01757
2152.37701	0.01826
2150.44836	0.01941
2148.51971	0.02107
2146.59105	0.02176
2144.66240	0.02149
2142.73375	0.02163
2140.80509	0.02238
2138.87644	0.02302
2136.94779	0.02354
2135.01913	0.02424
2133.09048	0.02460
2131.16183	0.02467
2129.23318	0.02508
2127.30452	0.02570
2125.37587	0.02610
2123.44722	0.02609
2121.51856	0.02559
2119.58991	0.02525
2117.66126	0.02558
2115.73260	0.02590
2113.80395	0.02592
2111.87530	0.02608
2109.94664	0.02620
2108.01799	0.02591
2106.08934	0.02550
2104.16068	0.02538
2102.23203	0.02527
2100.30338	0.02488
2098.37472	0.02447
2096.44607	0.02451
2094.51742	0.02485
2092.58876	0.02504
2090.66011	0.02497
2088.73146	0.02481
2086.80280	0.02459
2084.87415	0.02436
2082.94550	0.02407
2081.01684	0.02347
2079.08819	0.02245
2077.15954	0.02149
2075.23088	0.02111
2073.30223	0.02130
2071.37358	0.02166
2069.44492	0.02154
2067.51627	0.02082
2065.58762	0.02031
2063.65896	0.02047
2061.73031	0.02108
2059.80166	0.02159
2057.87301	0.02138
2055.94435	0.02073
2054.01570	0.02033
2052.08705	0.01979
2050.15839	0.01855
2048.22974	0.01727
2046.30109	0.01668
2044.37243	0.01634
2042.44378	0.01598
2040.51513	0.01590
2038.58647	0.01566
2036.65782	0.01486
2034.72917	0.01423
2032.80051	0.01436
2030.87186	0.01483
2028.94321	0.01525
2027.01455	0.01564
2025.08590	0.01541
2023.15725	0.01431
2021.22859	0.01348
2019.29994	0.01363
2017.37129	0.01443
2015.44263	0.01549
2013.51398	0.01644
2011.58533	0.01670
2009.65667	0.01609
2007.72802	0.01505
2005.79937	0.01417
2003.87071	0.01409
2001.94206	0.01503
2000.01341	0.01627
1998.08475	0.01725
1996.15610	0.01802
1994.22745	0.01858
1992.29880	0.01885
1990.37014	0.01882
1988.44149	0.01843
1986.51284	0.01767
1984.58418	0.01684
1982.65553	0.01609
1980.72688	0.01516
1978.79822	0.01406
1976.86957	0.01316
1974.94092	0.01270
1973.01226	0.01313
1971.08361	0.01470
1969.15496	0.01626
1967.22630	0.01674
1965.29765	0.01671
1963.36900	0.01708
1961.44034	0.01789
1959.51169	0.01871
1957.58304	0.01920
1955.65438	0.01908
1953.72573	0.01839
1951.79708	0.01766
1949.86842	0.01760
1947.93977	0.01844
1946.01112	0.01968
1944.08246	0.02047
1942.15381	0.02057
1940.22516	0.02055
1938.29650	0.02058
1936.36785	0.02040
1934.43920	0.02009
1932.51054	0.02004
1930.58189	0.02026
1928.65324	0.02049
1926.72458	0.02053
1924.79593	0.02043
1922.86728	0.02055
1920.93863	0.02095
1919.00997	0.02117
1917.08132	0.02119
1915.15267	0.02122
1913.22401	0.02125
1911.29536	0.02126
1909.36671	0.02116
1907.43805	0.02097
1905.50940	0.02085
1903.58075	0.02096
1901.65209	0.02139
1899.72344	0.02179
1897.79479	0.02184
1895.86613	0.02173
1893.93748	0.02179
1892.00883	0.02207
1890.08017	0.02237
1888.15152	0.02226
1886.22287	0.02175
1884.29421	0.02132
1882.36556	0.02119
1880.43691	0.02135
1878.50825	0.02168
1876.57960	0.02183
1874.65095	0.02160
1872.72229	0.02129
1870.79364	0.02121
1868.86499	0.02128
1866.93633	0.02142
1865.00768	0.02150
1863.07903	0.02137
1861.15037	0.02128
1859.22172	0.02140
1857.29307	0.02163
1855.36442	0.02184
1853.43576	0.02186
1851.50711	0.02156
1849.57846	0.02121
1847.64980	0.02115
1845.72115	0.02125
1843.79250	0.02130
1841.86384	0.02123
1839.93519	0.02105
1838.00654	0.02095
1836.07788	0.02102
1834.14923	0.02109
1832.22058	0.02106
1830.29192	0.02103
1828.36327	0.02106
1826.43462	0.02109
1824.50596	0.02110
1822.57731	0.02102
1820.64866	0.02088
1818.72000	0.02093
1816.79135	0.02130
1814.86270	0.02164
1812.93404	0.02154
1811.00539	0.02111
1809.07674	0.02072
1807.14808	0.02050
1805.21943	0.02048
1803.29078	0.02058
1801.36212	0.02060
1799.43347	0.02051
1797.50482	0.02045
1795.57616	0.02051
1793.64751	0.02057
1791.71886	0.02053
1789.79021	0.02045
1787.86155	0.02041
1785.93290	0.02042
1784.00425	0.02041
1782.07559	0.02030
1780.14694	0.02012
1778.21829	0.01997
1776.28963	0.01994
1774.36098	0.02005
1772.43233	0.02017
1770.50367	0.02023
1768.57502	0.02016
1766.64637	0.01999
1764.71771	0.01991
1762.78906	0.01998
1760.86041	0.02003
1758.93175	0.02007
1757.00310	0.02024
1755.07445	0.02049
1753.14579	0.02061
1751.21714	0.02066
1749.28849	0.02093
1747.35983	0.02139
1745.43118	0.02179
1743.50253	0.02211
1741.57387	0.02244
1739.64522	0.02274
1737.71657	0.02306
1735.78791	0.02355
1733.85926	0.02413
1731.93061	0.02454
1730.00195	0.02477
1728.07330	0.02503
1726.14465	0.02545
1724.21599	0.02599
1722.28734	0.02649
1720.35869	0.02691
1718.43004	0.02744
1716.50138	0.02816
1714.57273	0.02895
1712.64408	0.02981
1710.71542	0.03090
1708.78677	0.03235
1706.85812	0.03428
1704.92946	0.03666
1703.00081	0.03938
1701.07216	0.04240
1699.14350	0.04574
1697.21485	0.04935
1695.28620	0.05306
1693.35754	0.05673
1691.42889	0.06040
1689.50024	0.06419
1687.57158	0.06811
1685.64293	0.07224
1683.71428	0.07663
1681.78562	0.08127
1679.85697	0.08634
1677.92832	0.09189
1675.99966	0.09776
1674.07101	0.10375
1672.14236	0.10980
1670.21370	0.11602
1668.28505	0.12232
1666.35640	0.12849
1664.42774	0.13447
1662.49909	0.14023
1660.57044	0.14560
1658.64178	0.15039
1656.71313	0.15463
1654.78448	0.15849
1652.85583	0.16198
1650.92717	0.16477
1648.99852	0.16692
1647.06987	0.16894
1645.14121	0.17093
1643.21256	0.17270
1641.28391	0.17427
1639.35525	0.17574
1637.42660	0.17715
1635.49795	0.17834
1633.56929	0.17901
1631.64064	0.17892
1629.71199	0.17796
1627.78333	0.17594
1625.85468	0.17274
1623.92603	0.16839
1621.99737	0.16321
1620.06872	0.15757
1618.14007	0.15163
1616.21141	0.14553
1614.28276	0.13942
1612.35411	0.13334
1610.42545	0.12736
1608.49680	0.12168
1606.56815	0.11642
1604.63949	0.11159
1602.71084	0.10716
1600.78219	0.10315
1598.85353	0.09957
1596.92488	0.09645
1594.99623	0.09376
1593.06757	0.09151
1591.13892	0.08976
1589.21027	0.08850
1587.28161	0.08764
1585.35296	0.08713
1583.42431	0.08702
1581.49566	0.08744
1579.56700	0.08841
1577.63835	0.08982
1575.70970	0.09166
1573.78104	0.09394
1571.85239	0.09670
1569.92374	0.09998
1567.99508	0.10357
1566.06643	0.10726
1564.13778	0.11110
1562.20912	0.11509
1560.28047	0.11914
1558.35182	0.12309
1556.42316	0.12667
1554.49451	0.12979
1552.56586	0.13245
1550.63720	0.13461
1548.70855	0.13638
1546.77990	0.13786
1544.85124	0.13894
1542.92259	0.13953
1540.99394	0.13974
1539.06528	0.13968
1537.13663	0.13935
1535.20798	0.13876
1533.27932	0.13794
1531.35067	0.13687
1529.42202	0.13564
1527.49336	0.13431
1525.56471	0.13278
1523.63606	0.13102
1521.70740	0.12917
1519.77875	0.12726
1517.85010	0.12518
1515.92145	0.12285
1513.99279	0.12020
1512.06414	0.11717
1510.13549	0.11383
1508.20683	0.11027
1506.27818	0.10657
1504.34953	0.10291
1502.42087	0.09930
1500.49222	0.09569
1498.56357	0.09214
1496.63491	0.08873
1494.70626	0.08537
1492.77761	0.08211
1490.84895	0.07914
1488.92030	0.07663
1486.99165	0.07461
1485.06299	0.07309
1483.13434	0.07203
1481.20569	0.07147
1479.27703	0.07142
1477.34838	0.07187
1475.41973	0.07280
1473.49107	0.07419
1471.56242	0.07590
1469.63377	0.07780
1467.70511	0.07987
1465.77646	0.08205
1463.84781	0.08424
1461.91915	0.08644
1459.99050	0.08870
1458.06185	0.09098
1456.13319	0.09300
1454.20454	0.09454
1452.27589	0.09556
1450.34724	0.09597
1448.41858	0.09572
1446.48993	0.09498
1444.56128	0.09400
1442.63262	0.09291
1440.70397	0.09170
1438.77532	0.09035
1436.84666	0.08876
1434.91801	0.08687
1432.98936	0.08488
1431.06070	0.08310
1429.13205	0.08169
1427.20340	0.08073
1425.27474	0.08013
1423.34609	0.07973
1421.41744	0.07944
1419.48878	0.07922
1417.56013	0.07910
1415.63148	0.07916
1413.70282	0.07937
1411.77417	0.07969
1409.84552	0.08015
1407.91686	0.08076
1405.98821	0.08138
1404.05956	0.08183
1402.13090	0.08200
1400.20225	0.08191
1398.27360	0.08167
1396.34494	0.08133
1394.41629	0.08096
1392.48764	0.08067
1390.55898	0.08043
1388.63033	0.08021
1386.70168	0.07994
1384.77302	0.07961
1382.84437	0.07925
1380.91572	0.07884
1378.98707	0.07828
1377.05841	0.07753
1375.12976	0.07668
1373.20111	0.07576
1371.27245	0.07468
1369.34380	0.07345
1367.41515	0.07215
1365.48649	0.07087
1363.55784	0.06969
1361.62919	0.06871
1359.70053	0.06798
1357.77188	0.06757
1355.84323	0.06752
1353.91457	0.06782
1351.98592	0.06841
1350.05727	0.06925
1348.12861	0.07030
1346.19996	0.07146
1344.27131	0.07268
1342.34265	0.07389
1340.41400	0.07490
1338.48535	0.07556
1336.55669	0.07585
1334.62804	0.07569
1332.69939	0.07503
1330.77073	0.07396
1328.84208	0.07281
1326.91343	0.07179
1324.98477	0.07093
1323.05612	0.07023
1321.12747	0.06975
1319.19881	0.06943
1317.27016	0.06916
1315.34151	0.06886
1313.41286	0.06846
1311.48420	0.06795
1309.55555	0.06743
1307.62690	0.06693
1305.69824	0.06647
1303.76959	0.06615
1301.84094	0.06593
1299.91228	0.06565
1297.98363	0.06535
1296.05498	0.06525
1294.12632	0.06549
1292.19767	0.06602
1290.26902	0.06671
1288.34036	0.06753
1286.41171	0.06842
1284.48306	0.06931
1282.55440	0.07009
1280.62575	0.07060
1278.69710	0.07079
1276.76844	0.07077
1274.83979	0.07071
1272.91114	0.07076
1270.98248	0.07095
1269.05383	0.07126
1267.12518	0.07168
1265.19652	0.07220
1263.26787	0.07281
1261.33922	0.07353
1259.41056	0.07437
1257.48191	0.07535
1255.55326	0.07647
1253.62460	0.07775
1251.69595	0.07918
1249.76730	0.08074
1247.83864	0.08234
1245.90999	0.08388
1243.98134	0.08535
1242.05269	0.08675
1240.12403	0.08796
1238.19538	0.08883
1236.26673	0.08932
1234.33807	0.08944
1232.40942	0.08906
1230.48077	0.08813
1228.55211	0.08675
1226.62346	0.08500
1224.69481	0.08297
1222.76615	0.08084
1220.83750	0.07881
1218.90885	0.07700
1216.98019	0.07556
1215.05154	0.07458
1213.12289	0.07405
1211.19423	0.07395
1209.26558	0.07423
1207.33693	0.07476
1205.40827	0.07522
1203.47962	0.07538
1201.55097	0.07514
1199.62231	0.07451
1197.69366	0.07339
1195.76501	0.07195
1193.83635	0.07041
1191.90770	0.06895
1189.97905	0.06755
1188.05039	0.06625
1186.12174	0.06519
1184.19309	0.06435
1182.26443	0.06364
1180.33578	0.06306
1178.40713	0.06260
1176.47848	0.06232
1174.54982	0.06221
1172.62117	0.06216
1170.69252	0.06209
1168.76386	0.06204
1166.83521	0.06208
1164.90656	0.06217
1162.97790	0.06221
1161.04925	0.06205
1159.12060	0.06158
1157.19194	0.06084
1155.26329	0.06001
1153.33464	0.05906
1151.40598	0.05787
1149.47733	0.05658
1147.54868	0.05544
1145.62002	0.05453
1143.69137	0.05377
1141.76272	0.05311
1139.83406	0.05252
1137.90541	0.05196
1135.97676	0.05144
1134.04810	0.05107
1132.11945	0.05087
1130.19080	0.05078
1128.26214	0.05075
1126.33349	0.05071
1124.40484	0.05068
1122.47618	0.05065
1120.54753	0.05045
1118.61888	0.05016
1116.69022	0.05006
1114.76157	0.05016
1112.83292	0.05028
1110.90427	0.05049
1108.97561	0.05086
1107.04696	0.05129
1105.11831	0.05167
1103.18965	0.05204
1101.26100	0.05245
1099.33235	0.05295
1097.40369	0.05357
1095.47504	0.05424
1093.54639	0.05494
1091.61773	0.05583
1089.68908	0.05698
1087.76043	0.05825
1085.83177	0.05951
1083.90312	0.06069
1081.97447	0.06164
1080.04581	0.06223
1078.11716	0.06243
1076.18851	0.06222
1074.25985	0.06170
1072.33120	0.06117
1070.40255	0.06089
1068.47389	0.06089
1066.54524	0.06107
1064.61659	0.06126
1062.68793	0.06134
1060.75928	0.06120
1058.83063	0.06084
1056.90197	0.06034
1054.97332	0.05977
1053.04467	0.05921
1051.11601	0.05872
1049.18736	0.05824
1047.25871	0.05775
1045.33005	0.05733
1043.40140	0.05705
1041.47275	0.05695
1039.54410	0.05706
1037.61544	0.05738
1035.68679	0.05784
1033.75814	0.05833
1031.82948	0.05860
1029.90083	0.05835
1027.97218	0.05762
1026.04352	0.05665
1024.11487	0.05558
1022.18622	0.05451
1020.25756	0.05353
1018.32891	0.05275
1016.40026	0.05217
1014.47160	0.05161
1012.54295	0.05093
1010.61430	0.05020
1008.68564	0.04950
1006.75699	0.04882
1004.82834	0.04820
1002.89968	0.04762
1000.97103	0.04695
999.04238	0.04625
997.11372	0.04565
995.18507	0.04510
993.25642	0.04449
991.32776	0.04396
989.39911	0.04365
987.47046	0.04346
985.54180	0.04325
983.61315	0.04300
981.68450	0.04279
979.75584	0.04273
977.82719	0.04282
975.89854	0.04297
973.96989	0.04298
972.04123	0.04278
970.11258	0.04240
968.18393	0.04199
966.25527	0.04166
964.32662	0.04130
962.39797	0.04084
960.46931	0.04038
958.54066	0.04007
956.61201	0.03987
954.68335	0.03961
952.75470	0.03936
950.82605	0.03920
948.89739	0.03908
946.96874	0.03901
945.04009	0.03905
943.11143	0.03919
941.18278	0.03933
939.25413	0.03939
937.32547	0.03937
935.39682	0.03932
933.46817	0.03924
931.53951	0.03914
929.61086	0.03900
927.68221	0.03884
925.75355	0.03872
923.82490	0.03868
921.89625	0.03868
919.96759	0.03856
918.03894	0.03832
916.11029	0.03808
914.18163	0.03786
912.25298	0.03760
910.32433	0.03731
908.39567	0.03709
906.46702	0.03696
904.53837	0.03675
902.60972	0.03644
900.68106	0.03629
898.75241	0.03633
896.82376	0.03633
894.89510	0.03615
892.96645	0.03592
891.03780	0.03589
889.10914	0.03591
887.18049	0.03577
885.25184	0.03555
883.32318	0.03545
881.39453	0.03558
879.46588	0.03578
877.53722	0.03590
875.60857	0.03601
873.67992	0.03604
871.75126	0.03584
869.82261	0.03555
867.89396	0.03536
865.96530	0.03526
864.03665	0.03510
862.10800	0.03501
860.17934	0.03511
858.25069	0.03520
856.32204	0.03520
854.39338	0.03520
852.46473	0.03525
850.53608	0.03533
848.60742	0.03534
846.67877	0.03529
844.75012	0.03524
842.82146	0.03511
840.89281	0.03482
838.96416	0.03451
837.03551	0.03442
835.10685	0.03458
833.17820	0.03475
831.24955	0.03483
829.32089	0.03494
827.39224	0.03512
825.46359	0.03523
823.53493	0.03531
821.60628	0.03560
819.67763	0.03603
817.74897	0.03637
815.82032	0.03665
813.89167	0.03690
811.96301	0.03698
810.03436	0.03702
808.10571	0.03722
806.17705	0.03745
804.24840	0.03756
802.31975	0.03762
800.39109	0.03779
798.46244	0.03806
796.53379	0.03836
794.60513	0.03859
792.67648	0.03879
790.74783	0.03915
788.81917	0.03960
786.89052	0.03991
784.96187	0.04010
783.03321	0.04037
781.10456	0.04073
779.17591	0.04101
777.24725	0.04121
775.31860	0.04143
773.38995	0.04168
771.46130	0.04204
769.53264	0.04247
767.60399	0.04285
765.67534	0.04313
763.74668	0.04335
761.81803	0.04353
759.88938	0.04375
757.96072	0.04410
756.03207	0.04464
754.10342	0.04527
752.17476	0.04574
750.24611	0.04592
748.31746	0.04601
746.38880	0.04625
744.46015	0.04657
742.53150	0.04683
740.60284	0.04723
738.67419	0.04774
736.74554	0.04811
734.81688	0.04834
732.88823	0.04863
730.95958	0.04905
729.03092	0.04953
727.10227	0.04992
725.17362	0.05018
723.24496	0.05038
721.31631	0.05083
719.38766	0.05139
717.45900	0.05189
715.53035	0.05220
713.60170	0.05242
711.67304	0.05271
709.74439	0.05310
707.81574	0.05352
705.88708	0.05395
703.95843	0.05440
702.02978	0.05482
700.10113	0.05511
698.17247	0.05529
696.24382	0.05545
694.31517	0.05557
692.38651	0.05567
690.45786	0.05580
688.52921	0.05598
686.60055	0.05624
684.67190	0.05653
682.74325	0.05691
680.81459	0.05739
678.88594	0.05778
676.95729	0.05801
675.02863	0.05825
673.09998	0.05857
671.17133	0.05888
669.24267	0.05916
667.31402	0.05941
665.38537	0.05960
663.45671	0.05979
661.52806	0.05996
659.59941	0.06015
657.67075	0.06036
655.74210	0.06049
653.81345	0.06050
651.88479	0.06056
649.95614	0.06079
648.02749	0.06109
646.09883	0.06125
644.17018	0.06118
642.24153	0.06106
640.31287	0.06111
638.38422	0.06129
636.45557	0.06142
634.52692	0.06154
632.59826	0.06168
630.66961	0.06195
628.74096	0.06267
626.81230	0.06131
624.88365	0.05955
622.95500	0.05873
621.02634	0.05887
619.09769	0.05968
617.16904	0.06186
615.24038	0.06403
613.31173	0.06433
611.38308	0.06385
609.45442	0.06406
607.52577	0.06394
605.59712	0.06319
603.66846	0.06341
601.73981	0.06441
599.81116	0.06463
597.88250	0.06429
595.95385	0.06400
594.02520	0.06349
592.09654	0.06293
590.16789	0.06276
588.23924	0.06285
586.31058	0.06298
584.38193	0.06314
582.45328	0.06314
580.52462	0.06298
578.59597	0.06287
576.66732	0.06289
574.73866	0.06311
572.81001	0.06344
570.88136	0.06358
568.95270	0.06355
567.02405	0.06365
565.09540	0.06387
563.16675	0.06419
561.23809	0.06458
559.30944	0.06472
557.38079	0.06443
555.45213	0.06406
553.52348	0.06394
551.59483	0.06403
549.66617	0.06406
547.73752	0.06390
545.80887	0.06370
543.88021	0.06346
541.95156	0.06311
540.02291	0.06286
538.09425	0.06283
536.16560	0.06295
534.23695	0.06322
532.30829	0.06355
530.37964	0.06363
528.45099	0.06335
526.52233	0.06286
524.59368	0.06226
522.66503	0.06166
520.73637	0.06137
518.80772	0.06135
516.87907	0.06126
514.95041	0.06092
513.02176	0.06041
511.09311	0.05999
509.16445	0.05981
507.23580	0.05958
505.30715	0.05907
503.37849	0.05850
501.44984	0.05818
499.52119	0.05804
497.59254	0.05777
495.66388	0.05734
493.73523	0.05697
491.80658	0.05658
489.87792	0.05598
487.94927	0.05541
486.02062	0.05517
484.09196	0.05507
482.16331	0.05481
480.23466	0.05445
478.30600	0.05416
476.37735	0.05386
474.44870	0.05343
472.52004	0.05293
470.59139	0.05249
468.66274	0.05213
466.73408	0.05182
464.80543	0.05149
462.87678	0.05110
460.94812	0.05066
459.01947	0.05020
457.09082	0.04961
455.16216	0.04891
453.23351	0.04827
451.30486	0.04784
449.37620	0.04762
447.44755	0.04745
445.51890	0.04720
443.59024	0.04688
441.66159	0.04649
439.73294	0.04612
437.80428	0.04590
435.87563	0.04573
433.94698	0.04545
432.01833	0.04514
430.08967	0.04484
428.16102	0.04448
426.23237	0.04413
424.30371	0.04381
422.37506	0.04349
420.44641	0.04321
418.51775	0.04295
416.58910	0.04261
414.66045	0.04224
412.73179	0.04195
410.80314	0.04176
408.87449	0.04166
406.94583	0.04154
405.01718	0.04127
403.08853	0.04093
401.15987	0.04072
399.23122	0.04057
