3996.16951	0.04918
3994.24086	0.04928
3992.31220	0.04917
3990.38355	0.04940
3988.45490	0.04976
3986.52624	0.04962
3984.59759	0.04928
3982.66894	0.04935
3980.74028	0.04976
3978.81163	0.05017
3976.88298	0.05029
3974.95432	0.05007
3973.02567	0.04970
3971.09702	0.04910
3969.16836	0.04850
3967.23971	0.04849
3965.31106	0.04872
3963.38240	0.04867
3961.45375	0.04864
3959.52510	0.04882
3957.59645	0.04911
3955.66779	0.04928
3953.73914	0.04908
3951.81049	0.04876
3949.88183	0.04859
3947.95318	0.04823
3946.02453	0.04762
3944.09587	0.04730
3942.16722	0.04747
3940.23857	0.04775
3938.30991	0.04770
3936.38126	0.04746
3934.45261	0.04741
3932.52395	0.04745
3930.59530	0.04731
3928.66665	0.04705
3926.73799	0.04695
3924.80934	0.04701
3922.88069	0.04704
3920.95203	0.04702
3919.02338	0.04704
3917.09473	0.04710
3915.16607	0.04706
3913.23742	0.04692
3911.30877	0.04690
3909.38011	0.04706
3907.45146	0.04723
3905.52281	0.04725
3903.59415	0.04731
3901.66550	0.04761
3899.73685	0.04774
3897.80819	0.04732
3895.87954	0.04679
3893.95089	0.04666
3892.02224	0.04683
3890.09358	0.04667
3888.16493	0.04595
3886.23628	0.04545
3884.30762	0.04556
3882.37897	0.04566
3880.45032	0.04550
3878.52166	0.04547
3876.59301	0.04586
3874.66436	0.04625
3872.73570	0.04619
3870.80705	0.04592
3868.87840	0.04587
3866.94974	0.04597
3865.02109	0.04597
3863.09244	0.04595
3861.16378	0.04572
3859.23513	0.04513
3857.30648	0.04459
3855.37782	0.04444
3853.44917	0.04462
3851.52052	0.04498
3849.59186	0.04528
3847.66321	0.04516
3845.73456	0.04447
3843.80590	0.04351
3841.87725	0.04299
3839.94860	0.04334
3838.01994	0.04390
3836.09129	0.04389
3834.16264	0.04363
3832.23398	0.04358
3830.30533	0.04365
3828.37668	0.04374
3826.44803	0.04370
3824.51937	0.04355
3822.59072	0.04371
3820.66207	0.04412
3818.73341	0.04422
3816.80476	0.04411
3814.87611	0.04411
3812.94745	0.04388
3811.01880	0.04327
3809.09015	0.04274
3807.16149	0.04245
3805.23284	0.04216
3803.30419	0.04182
3801.37553	0.04188
3799.44688	0.04255
3797.51823	0.04299
3795.58957	0.04255
3793.66092	0.04195
3791.73227	0.04195
3789.80361	0.04239
3787.87496	0.04298
3785.94631	0.04330
3784.01765	0.04275
3782.08900	0.04178
3780.16035	0.04134
3778.23169	0.04126
3776.30304	0.04098
3774.37439	0.04092
3772.44573	0.04121
3770.51708	0.04114
3768.58843	0.04094
3766.65977	0.04117
3764.73112	0.04147
3762.80247	0.04143
3760.87381	0.04119
3758.94516	0.04113
3757.01651	0.04126
3755.08786	0.04121
3753.15920	0.04137
3751.23055	0.04207
3749.30190	0.04236
3747.37324	0.04168
3745.44459	0.04097
3743.51594	0.04093
3741.58728	0.04099
3739.65863	0.04068
3737.72998	0.04040
3735.80132	0.04044
3733.87267	0.04033
3731.94402	0.03968
3730.01536	0.03886
3728.08671	0.03858
3726.15806	0.03886
3724.22940	0.03908
3722.30075	0.03906
3720.37210	0.03909
3718.44344	0.03905
3716.51479	0.03881
3714.58614	0.03819
3712.65748	0.03747
3710.72883	0.03751
3708.80018	0.03816
3706.87152	0.03842
3704.94287	0.03832
3703.01422	0.03828
3701.08556	0.03800
3699.15691	0.03766
3697.22826	0.03765
3695.29960	0.03785
3693.37095	0.03823
3691.44230	0.03872
3689.51365	0.03864
3687.58499	0.03800
3685.65634	0.03761
3683.72769	0.03773
3681.79903	0.03807
3679.87038	0.03830
3677.94173	0.03822
3676.01307	0.03788
3674.08442	0.03751
3672.15577	0.03753
3670.22711	0.03802
3668.29846	0.03868
3666.36981	0.03896
3664.44115	0.03847
3662.51250	0.03786
3660.58385	0.03807
3658.65519	0.03877
3656.72654	0.03909
3654.79789	0.03883
3652.86923	0.03849
3650.94058	0.03874
3649.01193	0.03957
3647.08327	0.04022
3645.15462	0.04039
3643.22597	0.04035
3641.29731	0.04038
3639.36866	0.04056
3637.44001	0.04076
3635.51135	0.04085
3633.58270	0.04052
3631.65405	0.03980
3629.72539	0.03937
3627.79674	0.03976
3625.86809	0.04047
3623.93943	0.04106
3622.01078	0.04158
3620.08213	0.04231
3618.15348	0.04297
3616.22482	0.04305
3614.29617	0.04259
3612.36752	0.04227
3610.43886	0.04265
3608.51021	0.04326
3606.58156	0.04351
3604.65290	0.04345
3602.72425	0.04369
3600.79560	0.04459
3598.86694	0.04538
3596.93829	0.04535
3595.00964	0.04518
3593.08098	0.04545
3591.15233	0.04566
3589.22368	0.04547
3587.29502	0.04538
3585.36637	0.04585
3583.43772	0.04661
3581.50906	0.04715
3579.58041	0.04758
3577.65176	0.04809
3575.72310	0.04841
3573.79445	0.04849
3571.86580	0.04860
3569.93714	0.04874
3568.00849	0.04893
3566.07984	0.04942
3564.15118	0.05002
3562.22253	0.05037
3560.29388	0.05064
3558.36522	0.05122
3556.43657	0.05177
3554.50792	0.05181
3552.57927	0.05171
3550.65061	0.05190
3548.72196	0.05240
3546.79331	0.05308
3544.86465	0.05389
3542.93600	0.05485
3541.00735	0.05545
3539.07869	0.05538
3537.15004	0.05513
3535.22139	0.05512
3533.29273	0.05547
3531.36408	0.05613
3529.43543	0.05657
3527.50677	0.05671
3525.57812	0.05706
3523.64947	0.05746
3521.72081	0.05759
3519.79216	0.05777
3517.86351	0.05829
3515.93485	0.05900
3514.00620	0.05951
3512.07755	0.05970
3510.14889	0.05995
3508.22024	0.06046
3506.29159	0.06105
3504.36293	0.06150
3502.43428	0.06163
3500.50563	0.06154
3498.57697	0.06164
3496.64832	0.06194
3494.71967	0.06214
3492.79101	0.06247
3490.86236	0.06311
3488.93371	0.06361
3487.00506	0.06363
3485.07640	0.06359
3483.14775	0.06402
3481.21910	0.06455
3479.29044	0.06465
3477.36179	0.06472
3475.43314	0.06510
3473.50448	0.06549
3471.57583	0.06548
3469.64718	0.06520
3467.71852	0.06530
3465.78987	0.06604
3463.86122	0.06675
3461.93256	0.06695
3460.00391	0.06702
3458.07526	0.06739
3456.14660	0.06788
3454.21795	0.06818
3452.28930	0.06835
3450.36064	0.06866
3448.43199	0.06921
3446.50334	0.06958
3444.57468	0.06935
3442.64603	0.06890
3440.71738	0.06885
3438.78872	0.06928
3436.86007	0.07001
3434.93142	0.07072
3433.00276	0.07113
3431.07411	0.07137
3429.14546	0.07160
3427.21680	0.07177
3425.28815	0.07199
3423.35950	0.07239
3421.43084	0.07276
3419.50219	0.07291
3417.57354	0.07294
3415.64489	0.07321
3413.71623	0.07367
3411.78758	0.07383
3409.85893	0.07385
3407.93027	0.07406
3406.00162	0.07420
3404.07297	0.07422
3402.14431	0.07450
3400.21566	0.07511
3398.28701	0.07565
3396.35835	0.07604
3394.42970	0.07647
3392.50105	0.07672
3390.57239	0.07654
3388.64374	0.07640
3386.71509	0.07654
3384.78643	0.07652
3382.85778	0.07625
3380.92913	0.07623
3379.00047	0.07675
3377.07182	0.07754
3375.14317	0.07822
3373.21451	0.07860
3371.28586	0.07884
3369.35721	0.07927
3367.42855	0.07990
3365.49990	0.08053
3363.57125	0.08102
3361.64259	0.08129
3359.71394	0.08148
3357.78529	0.08178
3355.85663	0.08234
3353.92798	0.08320
3351.99933	0.08426
3350.07068	0.08526
3348.14202	0.08613
3346.21337	0.08677
3344.28472	0.08706
3342.35606	0.08729
3340.42741	0.08778
3338.49876	0.08845
3336.57010	0.08913
3334.64145	0.08976
3332.71280	0.09034
3330.78414	0.09095
3328.85549	0.09161
3326.92684	0.09211
3324.99818	0.09232
3323.06953	0.09238
3321.14088	0.09259
3319.21222	0.09294
3317.28357	0.09322
3315.35492	0.09351
3313.42626	0.09391
3311.49761	0.09421
3309.56896	0.09435
3307.64030	0.09448
3305.71165	0.09459
3303.78300	0.09477
3301.85434	0.09495
3299.92569	0.09491
3297.99704	0.09479
3296.06838	0.09473
3294.13973	0.09446
3292.21108	0.09390
3290.28242	0.09342
3288.35377	0.09332
3286.42512	0.09351
3284.49646	0.09381
3282.56781	0.09404
3280.63916	0.09404
3278.71051	0.09374
3276.78185	0.09338
3274.85320	0.09314
3272.92455	0.09275
3270.99589	0.09212
3269.06724	0.09167
3267.13859	0.09157
3265.20993	0.09143
3263.28128	0.09093
3261.35263	0.09032
3259.42397	0.09008
3257.49532	0.09015
3255.56667	0.09009
3253.63801	0.08972
3251.70936	0.08907
3249.78071	0.08822
3247.85205	0.08752
3245.92340	0.08725
3243.99475	0.08722
3242.06609	0.08712
3240.13744	0.08702
3238.20879	0.08701
3236.28013	0.08679
3234.35148	0.08617
3232.42283	0.08544
3230.49417	0.08485
3228.56552	0.08460
3226.63687	0.08464
3224.70821	0.08462
3222.77956	0.08445
3220.85091	0.08432
3218.92225	0.08426
3216.99360	0.08403
3215.06495	0.08349
3213.13630	0.08293
3211.20764	0.08273
3209.27899	0.08277
3207.35034	0.08270
3205.42168	0.08261
3203.49303	0.08260
3201.56438	0.08238
3199.63572	0.08169
3197.70707	0.08091
3195.77842	0.08036
3193.84976	0.07990
3191.92111	0.07955
3189.99246	0.07948
3188.06380	0.07968
3186.13515	0.07983
3184.20650	0.07952
3182.27784	0.07896
3180.34919	0.07860
3178.42054	0.07830
3176.49188	0.07765
3174.56323	0.07686
3172.63458	0.07645
3170.70592	0.07629
3168.77727	0.07576
3166.84862	0.07478
3164.91996	0.07380
3162.99131	0.07316
3161.06266	0.07286
3159.13400	0.07266
3157.20535	0.07234
3155.27670	0.07192
3153.34804	0.07144
3151.41939	0.07104
3149.49074	0.07074
3147.56209	0.07031
3145.63343	0.06984
3143.70478	0.06959
3141.77613	0.06936
3139.84747	0.06897
3137.91882	0.06853
3135.99017	0.06814
3134.06151	0.06772
3132.13286	0.06732
3130.20421	0.06717
3128.27555	0.06732
3126.34690	0.06745
3124.41825	0.06726
3122.48959	0.06662
3120.56094	0.06593
3118.63229	0.06571
3116.70363	0.06582
3114.77498	0.06583
3112.84633	0.06579
3110.91767	0.06582
3108.98902	0.06577
3107.06037	0.06573
3105.13171	0.06609
3103.20306	0.06658
3101.27441	0.06660
3099.34575	0.06619
3097.41710	0.06581
3095.48845	0.06567
3093.55979	0.06585
3091.63114	0.06624
3089.70249	0.06644
3087.77383	0.06643
3085.84518	0.06655
3083.91653	0.06685
3081.98787	0.06721
3080.05922	0.06745
3078.13057	0.06753
3076.20192	0.06749
3074.27326	0.06738
3072.34461	0.06725
3070.41596	0.06718
3068.48730	0.06704
3066.55865	0.06682
3064.63000	0.06660
3062.70134	0.06631
3060.77269	0.06592
3058.84404	0.06564
3056.91538	0.06551
3054.98673	0.06537
3053.05808	0.06515
3051.12942	0.06485
3049.20077	0.06452
3047.27212	0.06423
3045.34346	0.06379
3043.41481	0.06318
3041.48616	0.06261
3039.55750	0.06202
3037.62885	0.06141
3035.70020	0.06099
3033.77154	0.06081
3031.84289	0.06066
3029.91424	0.06042
3027.98558	0.06015
3026.05693	0.05982
3024.12828	0.05946
3022.19962	0.05920
3020.27097	0.05894
3018.34232	0.05849
3016.41366	0.05801
3014.48501	0.05779
3012.55636	0.05780
3010.62771	0.05774
3008.69905	0.05761
3006.77040	0.05768
3004.84175	0.05777
3002.91309	0.05765
3000.98444	0.05753
2999.05579	0.05759
2997.12713	0.05761
2995.19848	0.05756
2993.26983	0.05763
2991.34117	0.05781
2989.41252	0.05805
2987.48387	0.05836
2985.55521	0.05859
2983.62656	0.05880
2981.69791	0.05922
2979.76925	0.05970
2977.84060	0.05996
2975.91195	0.06010
2973.98329	0.06048
2972.05464	0.06099
2970.12599	0.06132
2968.19733	0.06149
2966.26868	0.06163
2964.34003	0.06180
2962.41137	0.06213
2960.48272	0.06256
2958.55407	0.06293
2956.62541	0.06319
2954.69676	0.06329
2952.76811	0.06321
2950.83945	0.06299
2948.91080	0.06285
2946.98215	0.06308
2945.05349	0.06357
2943.12484	0.06398
2941.19619	0.06452
2939.26754	0.06533
2937.33888	0.06592
2935.41023	0.06605
2933.48158	0.06601
2931.55292	0.06610
2929.62427	0.06651
2927.69562	0.06712
2925.76696	0.06750
2923.83831	0.06751
2921.90966	0.06724
2919.98100	0.06673
2918.05235	0.06613
2916.12370	0.06531
2914.19504	0.06404
2912.26639	0.06272
2910.33774	0.06178
2908.40908	0.06102
2906.48043	0.06039
2904.55178	0.06003
2902.62312	0.05963
2900.69447	0.05901
2898.76582	0.05855
2896.83716	0.05842
2894.90851	0.05819
2892.97986	0.05760
2891.05120	0.05712
2889.12255	0.05713
2887.19390	0.05742
2885.26524	0.05755
2883.33659	0.05739
2881.40794	0.05718
2879.47928	0.05708
2877.55063	0.05699
2875.62198	0.05686
2873.69333	0.05675
2871.76467	0.05677
2869.83602	0.05683
2867.90737	0.05662
2865.97871	0.05613
2864.05006	0.05576
2862.12141	0.05557
2860.19275	0.05539
2858.26410	0.05539
2856.33545	0.05564
2854.40679	0.05584
2852.47814	0.05579
2850.54949	0.05547
2848.62083	0.05486
2846.69218	0.05408
2844.76353	0.05333
2842.83487	0.05256
2840.90622	0.05175
2838.97757	0.05107
2837.04891	0.05057
2835.12026	0.05021
2833.19161	0.04993
2831.26295	0.04968
2829.33430	0.04943
2827.40565	0.04920
2825.47699	0.04892
2823.54834	0.04862
2821.61969	0.04845
2819.69103	0.04847
2817.76238	0.04846
2815.83373	0.04830
2813.90507	0.04812
2811.97642	0.04798
2810.04777	0.04778
2808.11912	0.04751
2806.19046	0.04727
2804.26181	0.04709
2802.33316	0.04696
2800.40450	0.04692
2798.47585	0.04691
2796.54720	0.04675
2794.61854	0.04635
2792.68989	0.04597
2790.76124	0.04574
2788.83258	0.04557
2786.90393	0.04544
2784.97528	0.04531
2783.04662	0.04516
2781.11797	0.04499
2779.18932	0.04483
2777.26066	0.04471
2775.33201	0.04464
2773.40336	0.04462
2771.47470	0.04459
2769.54605	0.04437
2767.61740	0.04397
2765.68874	0.04373
2763.76009	0.04378
2761.83144	0.04397
2759.90278	0.04409
2757.97413	0.04395
2756.04548	0.04360
2754.11682	0.04334
2752.18817	0.04334
2750.25952	0.04338
2748.33086	0.04320
2746.40221	0.04297
2744.47356	0.04287
2742.54490	0.04282
2740.61625	0.04269
2738.68760	0.04256
2736.75895	0.04253
2734.83029	0.04250
2732.90164	0.04231
2730.97299	0.04205
2729.04433	0.04184
2727.11568	0.04169
2725.18703	0.04164
2723.25837	0.04175
2721.32972	0.04188
2719.40107	0.04181
2717.47241	0.04145
2715.54376	0.04106
2713.61511	0.04095
2711.68645	0.04104
2709.75780	0.04110
2707.82915	0.04105
2705.90049	0.04089
2703.97184	0.04062
2702.04319	0.04038
2700.11453	0.04030
2698.18588	0.04036
2696.25723	0.04039
2694.32857	0.04015
2692.39992	0.03971
2690.47127	0.03948
2688.54261	0.03958
2686.61396	0.03975
2684.68531	0.03971
2682.75665	0.03949
2680.82800	0.03932
2678.89935	0.03933
2676.97069	0.03938
2675.04204	0.03932
2673.11339	0.03930
2671.18474	0.03935
2669.25608	0.03934
2667.32743	0.03918
2665.39878	0.03897
2663.47012	0.03892
2661.54147	0.03885
2659.61282	0.03844
2657.68416	0.03789
2655.75551	0.03761
2653.82686	0.03756
2651.89820	0.03745
2649.96955	0.03720
2648.04090	0.03696
2646.11224	0.03683
2644.18359	0.03658
2642.25494	0.03613
2640.32628	0.03582
2638.39763	0.03569
2636.46898	0.03552
2634.54032	0.03530
2632.61167	0.03498
2630.68302	0.03471
2628.75436	0.03460
2626.82571	0.03448
2624.89706	0.03443
2622.96840	0.03457
2621.03975	0.03456
2619.11110	0.03426
2617.18244	0.03401
2615.25379	0.03395
2613.32514	0.03386
2611.39648	0.03366
2609.46783	0.03344
2607.53918	0.03307
2605.61052	0.03257
2603.68187	0.03234
2601.75322	0.03266
2599.82457	0.03302
2597.89591	0.03283
2595.96726	0.03237
2594.03861	0.03219
2592.10995	0.03218
2590.18130	0.03209
2588.25265	0.03189
2586.32399	0.03163
2584.39534	0.03142
2582.46669	0.03133
2580.53803	0.03124
2578.60938	0.03102
2576.68073	0.03080
2574.75207	0.03078
2572.82342	0.03079
2570.89477	0.03073
2568.96611	0.03064
2567.03746	0.03043
2565.10881	0.03021
2563.18015	0.03017
2561.25150	0.03021
2559.32285	0.03009
2557.39419	0.02989
2555.46554	0.02993
2553.53689	0.03017
2551.60823	0.03023
2549.67958	0.03024
2547.75093	0.03035
2545.82227	0.03043
2543.89362	0.03049
2541.96497	0.03043
2540.03631	0.03014
2538.10766	0.02986
2536.17901	0.02962
2534.25036	0.02936
2532.32170	0.02931
2530.39305	0.02945
2528.46440	0.02957
2526.53574	0.02956
2524.60709	0.02927
2522.67844	0.02877
2520.74978	0.02837
2518.82113	0.02812
2516.89248	0.02813
2514.96382	0.02831
2513.03517	0.02832
2511.10652	0.02813
2509.17786	0.02808
2507.24921	0.02829
2505.32056	0.02846
2503.39190	0.02851
2501.46325	0.02847
2499.53460	0.02816
2497.60594	0.02784
2495.67729	0.02802
2493.74864	0.02866
2491.81998	0.02909
2489.89133	0.02875
2487.96268	0.02829
2486.03402	0.02831
2484.10537	0.02836
2482.17672	0.02813
2480.24806	0.02790
2478.31941	0.02779
2476.39076	0.02769
2474.46210	0.02745
2472.53345	0.02707
2470.60480	0.02692
2468.67615	0.02709
2466.74749	0.02732
2464.81884	0.02762
2462.89019	0.02791
2460.96153	0.02785
2459.03288	0.02744
2457.10423	0.02689
2455.17557	0.02639
2453.24692	0.02613
2451.31827	0.02626
2449.38961	0.02655
2447.46096	0.02643
2445.53231	0.02612
2443.60365	0.02613
2441.67500	0.02624
2439.74635	0.02638
2437.81769	0.02661
2435.88904	0.02673
2433.96039	0.02671
2432.03173	0.02659
2430.10308	0.02647
2428.17443	0.02647
2426.24577	0.02649
2424.31712	0.02648
2422.38847	0.02650
2420.45981	0.02654
2418.53116	0.02677
2416.60251	0.02709
2414.67385	0.02693
2412.74520	0.02626
2410.81655	0.02582
2408.88789	0.02593
2406.95924	0.02633
2405.03059	0.02659
2403.10193	0.02663
2401.17328	0.02662
2399.24463	0.02643
2397.31598	0.02609
2395.38732	0.02610
2393.45867	0.02650
2391.53002	0.02678
2389.60136	0.02682
2387.67271	0.02682
2385.74406	0.02681
2383.81540	0.02677
2381.88675	0.02678
2379.95810	0.02685
2378.02944	0.02701
2376.10079	0.02702
2374.17214	0.02671
2372.24348	0.02659
2370.31483	0.02749
2368.38618	0.02676
2366.45752	0.02717
2364.52887	0.02698
2362.60022	0.02774
2360.67156	0.02668
2358.74291	0.02834
2356.81426	0.02672
2354.88560	0.02737
2352.95695	0.02782
2351.02830	0.02679
2349.09964	0.02652
2347.17099	0.02655
2345.24234	0.02636
2343.31368	0.02648
2341.38503	0.02769
2339.45638	0.02840
2337.52772	0.02796
2335.59907	0.02674
2333.67042	0.02591
2331.74177	0.02576
2329.81311	0.02571
2327.88446	0.02532
2325.95581	0.02495
2324.02715	0.02463
2322.09850	0.02475
2320.16985	0.02482
2318.24119	0.02467
2316.31254	0.02431
2314.38389	0.02414
2312.45523	0.02426
2310.52658	0.02453
2308.59793	0.02461
2306.66927	0.02443
2304.74062	0.02418
2302.81197	0.02382
2300.88331	0.02337
2298.95466	0.02290
2297.02601	0.02255
2295.09735	0.02214
2293.16870	0.02180
2291.24005	0.02164
2289.31139	0.02166
2287.38274	0.02163
2285.45409	0.02136
2283.52543	0.02104
2281.59678	0.02099
2279.66813	0.02088
2277.73947	0.02041
2275.81082	0.02004
2273.88217	0.01998
2271.95351	0.02000
2270.02486	0.02015
2268.09621	0.02022
2266.16755	0.01986
2264.23890	0.01960
2262.31025	0.01996
2260.38160	0.02035
2258.45294	0.02001
2256.52429	0.01927
2254.59564	0.01878
2252.66698	0.01851
2250.73833	0.01844
2248.80968	0.01866
2246.88102	0.01885
2244.95237	0.01870
2243.02372	0.01804
2241.09506	0.01699
2239.16641	0.01609
2237.23776	0.01575
2235.30910	0.01600
2233.38045	0.01660
2231.45180	0.01733
2229.52314	0.01780
2227.59449	0.01757
2225.66584	0.01703
2223.73718	0.01715
2221.80853	0.01747
2219.87988	0.01672
2217.95122	0.01549
2216.02257	0.01512
2214.09392	0.01544
2212.16526	0.01574
2210.23661	0.01563
2208.30796	0.01531
2206.37930	0.01513
2204.45065	0.01474
2202.52200	0.01407
2200.59334	0.01371
2198.66469	0.01396
2196.73604	0.01399
2194.80739	0.01324
2192.87873	0.01264
2190.95008	0.01292
2189.02143	0.01339
2187.09277	0.01344
2185.16412	0.01334
2183.23547	0.01319
2181.30681	0.01288
2179.37816	0.01301
2177.44951	0.01342
2175.52085	0.01274
2173.59220	0.01124
2171.66355	0.01038
2169.73489	0.01025
2167.80624	0.01008
2165.87759	0.00941
2163.94893	0.00837
2162.02028	0.00755
2160.09163	0.00729
2158.16297	0.00817
2156.23432	0.00986
2154.30567	0.01064
2152.37701	0.01078
2150.44836	0.01177
2148.51971	0.01305
2146.59105	0.01352
2144.66240	0.01386
2142.73375	0.01433
2140.80509	0.01456
2138.87644	0.01512
2136.94779	0.01584
2135.01913	0.01570
2133.09048	0.01501
2131.16183	0.01498
2129.23318	0.01553
2127.30452	0.01583
2125.37587	0.01621
2123.44722	0.01703
2121.51856	0.01753
2119.58991	0.01745
2117.66126	0.01720
2115.73260	0.01680
2113.80395	0.01651
2111.87530	0.01648
2109.94664	0.01660
2108.01799	0.01681
2106.08934	0.01686
2104.16068	0.01666
2102.23203	0.01626
2100.30338	0.01557
2098.37472	0.01470
2096.44607	0.01480
2094.51742	0.01566
2092.58876	0.01627
2090.66011	0.01627
2088.73146	0.01599
2086.80280	0.01556
2084.87415	0.01534
2082.94550	0.01543
2081.01684	0.01518
2079.08819	0.01423
2077.15954	0.01335
2075.23088	0.01321
2073.30223	0.01345
2071.37358	0.01359
2069.44492	0.01345
2067.51627	0.01311
2065.58762	0.01277
2063.65896	0.01269
2061.73031	0.01314
2059.80166	0.01373
2057.87301	0.01362
2055.94435	0.01296
2054.01570	0.01247
2052.08705	0.01170
2050.15839	0.01014
2048.22974	0.00887
2046.30109	0.00882
2044.37243	0.00927
2042.44378	0.00915
2040.51513	0.00842
2038.58647	0.00799
2036.65782	0.00820
2034.72917	0.00810
2032.80051	0.00726
2030.87186	0.00689
2028.94321	0.00760
2027.01455	0.00840
2025.08590	0.00845
2023.15725	0.00783
2021.22859	0.00756
2019.29994	0.00820
2017.37129	0.00886
2015.44263	0.00934
2013.51398	0.00999
2011.58533	0.01014
2009.65667	0.00926
2007.72802	0.00802
2005.79937	0.00745
2003.87071	0.00771
2001.94206	0.00855
2000.01341	0.01006
1998.08475	0.01166
1996.15610	0.01219
1994.22745	0.01164
1992.29880	0.01124
1990.37014	0.01122
1988.44149	0.01113
1986.51284	0.01111
1984.58418	0.01118
1982.65553	0.01048
1980.72688	0.00838
1978.79822	0.00621
1976.86957	0.00574
1974.94092	0.00625
1973.01226	0.00663
1971.08361	0.00738
1969.15496	0.00850
1967.22630	0.00918
1965.29765	0.00953
1963.36900	0.01012
1961.44034	0.01096
1959.51169	0.01176
1957.58304	0.01221
1955.65438	0.01209
1953.72573	0.01130
1951.79708	0.01036
1949.86842	0.01012
1947.93977	0.01050
1946.01112	0.01091
1944.08246	0.01133
1942.15381	0.01195
1940.22516	0.01258
1938.29650	0.01274
1936.36785	0.01248
1934.43920	0.01237
1932.51054	0.01251
1930.58189	0.01253
1928.65324	0.01235
1926.72458	0.01221
1924.79593	0.01225
1922.86728	0.01250
1920.93863	0.01289
1919.00997	0.01319
1917.08132	0.01322
1915.15267	0.01301
1913.22401	0.01296
1911.29536	0.01333
1909.36671	0.01361
1907.43805	0.01341
1905.50940	0.01305
1903.58075	0.01287
1901.65209	0.01295
1899.72344	0.01321
1897.79479	0.01346
1895.86613	0.01351
1893.93748	0.01338
1892.00883	0.01337
1890.08017	0.01360
1888.15152	0.01371
1886.22287	0.01353
1884.29421	0.01328
1882.36556	0.01309
1880.43691	0.01307
1878.50825	0.01324
1876.57960	0.01334
1874.65095	0.01323
1872.72229	0.01307
1870.79364	0.01297
1868.86499	0.01297
1866.93633	0.01312
1865.00768	0.01331
1863.07903	0.01337
1861.15037	0.01340
1859.22172	0.01350
1857.29307	0.01369
1855.36442	0.01392
1853.43576	0.01392
1851.50711	0.01360
1849.57846	0.01327
1847.64980	0.01308
1845.72115	0.01301
1843.79250	0.01314
1841.86384	0.01329
1839.93519	0.01321
1838.00654	0.01316
1836.07788	0.01336
1834.14923	0.01346
1832.22058	0.01326
1830.29192	0.01306
1828.36327	0.01302
1826.43462	0.01294
1824.50596	0.01271
1822.57731	0.01245
1820.64866	0.01228
1818.72000	0.01240
1816.79135	0.01286
1814.86270	0.01337
1812.93404	0.01361
1811.00539	0.01355
1809.07674	0.01331
1807.14808	0.01314
1805.21943	0.01323
1803.29078	0.01344
1801.36212	0.01341
1799.43347	0.01317
1797.50482	0.01300
1795.57616	0.01298
1793.64751	0.01300
1791.71886	0.01303
1789.79021	0.01307
1787.86155	0.01304
1785.93290	0.01295
1784.00425	0.01286
1782.07559	0.01274
1780.14694	0.01261
1778.21829	0.01254
1776.28963	0.01252
1774.36098	0.01252
1772.43233	0.01256
1770.50367	0.01260
1768.57502	0.01264
1766.64637	0.01270
1764.71771	0.01279
1762.78906	0.01280
1760.86041	0.01270
1758.93175	0.01269
1757.00310	0.01289
1755.07445	0.01318
1753.14579	0.01342
1751.21714	0.01367
1749.28849	0.01406
1747.35983	0.01447
1745.43118	0.01469
1743.50253	0.01481
1741.57387	0.01499
1739.64522	0.01519
1737.71657	0.01531
1735.78791	0.01542
1733.85926	0.01564
1731.93061	0.01591
1730.00195	0.01613
1728.07330	0.01638
1726.14465	0.01668
1724.21599	0.01696
1722.28734	0.01716
1720.35869	0.01733
1718.43004	0.01764
1716.50138	0.01813
1714.57273	0.01874
1712.64408	0.01943
1710.71542	0.02023
1708.78677	0.02119
1706.85812	0.02241
1704.92946	0.02389
1703.00081	0.02560
1701.07216	0.02758
1699.14350	0.02982
1697.21485	0.03221
1695.28620	0.03466
1693.35754	0.03713
1691.42889	0.03964
1689.50024	0.04216
1687.57158	0.04472
1685.64293	0.04739
1683.71428	0.05031
1681.78562	0.05349
1679.85697	0.05697
1677.92832	0.06073
1675.99966	0.06461
1674.07101	0.06857
1672.14236	0.07266
1670.21370	0.07688
1668.28505	0.08113
1666.35640	0.08527
1664.42774	0.08924
1662.49909	0.09301
1660.57044	0.09647
1658.64178	0.09952
1656.71313	0.10212
1654.78448	0.10434
1652.85583	0.10624
1650.92717	0.10776
1648.99852	0.10899
1647.06987	0.11005
1645.14121	0.11099
1643.21256	0.11184
1641.28391	0.11256
1639.35525	0.11313
1637.42660	0.11359
1635.49795	0.11390
1633.56929	0.11388
1631.64064	0.11340
1629.71199	0.11234
1627.78333	0.11052
1625.85468	0.10791
1623.92603	0.10459
1621.99737	0.10071
1620.06872	0.09654
1618.14007	0.09232
1616.21141	0.08820
1614.28276	0.08422
1612.35411	0.08037
1610.42545	0.07669
1608.49680	0.07324
1606.56815	0.06998
1604.63949	0.06697
1602.71084	0.06427
1600.78219	0.06192
1598.85353	0.05992
1596.92488	0.05821
1594.99623	0.05674
1593.06757	0.05553
1591.13892	0.05467
1589.21027	0.05408
1587.28161	0.05371
1585.35296	0.05357
1583.42431	0.05371
1581.49566	0.05411
1579.56700	0.05483
1577.63835	0.05586
1575.70970	0.05722
1573.78104	0.05889
1571.85239	0.06084
1569.92374	0.06304
1567.99508	0.06542
1566.06643	0.06793
1564.13778	0.07055
1562.20912	0.07313
1560.28047	0.07562
1558.35182	0.07806
1556.42316	0.08034
1554.49451	0.08234
1552.56586	0.08394
1550.63720	0.08511
1548.70855	0.08594
1546.77990	0.08660
1544.85124	0.08709
1542.92259	0.08723
1540.99394	0.08704
1539.06528	0.08669
1537.13663	0.08626
1535.20798	0.08568
1533.27932	0.08492
1531.35067	0.08401
1529.42202	0.08298
1527.49336	0.08183
1525.56471	0.08058
1523.63606	0.07925
1521.70740	0.07789
1519.77875	0.07652
1517.85010	0.07509
1515.92145	0.07349
1513.99279	0.07165
1512.06414	0.06962
1510.13549	0.06752
1508.20683	0.06531
1506.27818	0.06298
1504.34953	0.06062
1502.42087	0.05833
1500.49222	0.05613
1498.56357	0.05402
1496.63491	0.05198
1494.70626	0.04998
1492.77761	0.04811
1490.84895	0.04650
1488.92030	0.04514
1486.99165	0.04402
1485.06299	0.04318
1483.13434	0.04270
1481.20569	0.04256
1479.27703	0.04268
1477.34838	0.04308
1475.41973	0.04382
1473.49107	0.04484
1471.56242	0.04603
1469.63377	0.04734
1467.70511	0.04875
1465.77646	0.05020
1463.84781	0.05163
1461.91915	0.05303
1459.99050	0.05438
1458.06185	0.05567
1456.13319	0.05678
1454.20454	0.05760
1452.27589	0.05811
1450.34724	0.05827
1448.41858	0.05801
1446.48993	0.05744
1444.56128	0.05675
1442.63262	0.05599
1440.70397	0.05520
1438.77532	0.05430
1436.84666	0.05318
1434.91801	0.05183
1432.98936	0.05054
1431.06070	0.04949
1429.13205	0.04868
1427.20340	0.04811
1425.27474	0.04779
1423.34609	0.04762
1421.41744	0.04750
1419.48878	0.04740
1417.56013	0.04734
1415.63148	0.04738
1413.70282	0.04753
1411.77417	0.04775
1409.84552	0.04807
1407.91686	0.04853
1405.98821	0.04902
1404.05956	0.04937
1402.13090	0.04949
1400.20225	0.04942
1398.27360	0.04925
1396.34494	0.04900
1394.41629	0.04872
1392.48764	0.04853
1390.55898	0.04838
1388.63033	0.04819
1386.70168	0.04800
1384.77302	0.04783
1382.84437	0.04760
1380.91572	0.04729
1378.98707	0.04696
1377.05841	0.04656
1375.12976	0.04603
1373.20111	0.04532
1371.27245	0.04451
1369.34380	0.04368
1367.41515	0.04290
1365.48649	0.04221
1363.55784	0.04160
1361.62919	0.04105
1359.70053	0.04061
1357.77188	0.04036
1355.84323	0.04036
1353.91457	0.04058
1351.98592	0.04094
1350.05727	0.04144
1348.12861	0.04214
1346.19996	0.04298
1344.27131	0.04381
1342.34265	0.04453
1340.41400	0.04509
1338.48535	0.04542
1336.55669	0.04550
1334.62804	0.04536
1332.69939	0.04490
1330.77073	0.04418
1328.84208	0.04341
1326.91343	0.04275
1324.98477	0.04221
1323.05612	0.04177
1321.12747	0.04151
1319.19881	0.04141
1317.27016	0.04133
1315.34151	0.04117
1313.41286	0.04087
1311.48420	0.04046
1309.55555	0.04008
1307.62690	0.03977
1305.69824	0.03950
1303.76959	0.03932
1301.84094	0.03920
1299.91228	0.03904
1297.98363	0.03893
1296.05498	0.03899
1294.12632	0.03923
1292.19767	0.03962
1290.26902	0.04014
1288.34036	0.04074
1286.41171	0.04134
1284.48306	0.04186
1282.55440	0.04228
1280.62575	0.04258
1278.69710	0.04272
1276.76844	0.04272
1274.83979	0.04264
1272.91114	0.04262
1270.98248	0.04276
1269.05383	0.04303
1267.12518	0.04342
1265.19652	0.04384
1263.26787	0.04423
1261.33922	0.04464
1259.41056	0.04519
1257.48191	0.04589
1255.55326	0.04663
1253.62460	0.04735
1251.69595	0.04815
1249.76730	0.04908
1247.83864	0.05008
1245.90999	0.05100
1243.98134	0.05182
1242.05269	0.05263
1240.12403	0.05337
1238.19538	0.05381
1236.26673	0.05395
1234.33807	0.05388
1232.40942	0.05355
1230.48077	0.05285
1228.55211	0.05183
1226.62346	0.05058
1224.69481	0.04916
1222.76615	0.04775
1220.83750	0.04650
1218.90885	0.04544
1216.98019	0.04455
1215.05154	0.04393
1213.12289	0.04362
1211.19423	0.04357
1209.26558	0.04372
1207.33693	0.04402
1205.40827	0.04431
1203.47962	0.04436
1201.55097	0.04411
1199.62231	0.04375
1197.69366	0.04300
1195.76501	0.04209
1193.83635	0.04114
1191.90770	0.04023
1189.97905	0.03934
1188.05039	0.03857
1186.12174	0.03794
1184.19309	0.03740
1182.26443	0.03696
1180.33578	0.03668
1178.40713	0.03652
1176.47848	0.03645
1174.54982	0.03645
1172.62117	0.03645
1170.69252	0.03637
1168.76386	0.03623
1166.83521	0.03620
1164.90656	0.03632
1162.97790	0.03641
1161.04925	0.03624
1159.12060	0.03583
1157.19194	0.03531
1155.26329	0.03479
1153.33464	0.03417
1151.40598	0.03340
1149.47733	0.03261
1147.54868	0.03198
1145.62002	0.03149
1143.69137	0.03110
1141.76272	0.03080
1139.83406	0.03050
1137.90541	0.03013
1135.97676	0.02977
1134.04810	0.02954
1132.11945	0.02949
1130.19080	0.02956
1128.26214	0.02966
1126.33349	0.02969
1124.40484	0.02965
1122.47618	0.02954
1120.54753	0.02939
1118.61888	0.02926
1116.69022	0.02919
1114.76157	0.02920
1112.83292	0.02930
1110.90427	0.02954
1108.97561	0.02983
1107.04696	0.03005
1105.11831	0.03018
1103.18965	0.03036
1101.26100	0.03063
1099.33235	0.03093
1097.40369	0.03130
1095.47504	0.03168
1093.54639	0.03205
1091.61773	0.03258
1089.68908	0.03334
1087.76043	0.03417
1085.83177	0.03495
1083.90312	0.03568
1081.97447	0.03621
1080.04581	0.03646
1078.11716	0.03651
1076.18851	0.03636
1074.25985	0.03601
1072.33120	0.03566
1070.40255	0.03540
1068.47389	0.03522
1066.54524	0.03513
1064.61659	0.03510
1062.68793	0.03508
1060.75928	0.03497
1058.83063	0.03471
1056.90197	0.03439
1054.97332	0.03409
1053.04467	0.03383
1051.11601	0.03350
1049.18736	0.03305
1047.25871	0.03271
1045.33005	0.03253
1043.40140	0.03240
1041.47275	0.03232
1039.54410	0.03240
1037.61544	0.03268
1035.68679	0.03302
1033.75814	0.03325
1031.82948	0.03329
1029.90083	0.03307
1027.97218	0.03260
1026.04352	0.03200
1024.11487	0.03137
1022.18622	0.03073
1020.25756	0.03010
1018.32891	0.02957
1016.40026	0.02921
1014.47160	0.02892
1012.54295	0.02852
1010.61430	0.02802
1008.68564	0.02752
1006.75699	0.02707
1004.82834	0.02667
1002.89968	0.02630
1000.97103	0.02595
999.04238	0.02556
997.11372	0.02521
995.18507	0.02491
993.25642	0.02463
991.32776	0.02431
989.39911	0.02406
987.47046	0.02398
985.54180	0.02393
983.61315	0.02388
981.68450	0.02390
979.75584	0.02400
977.82719	0.02406
975.89854	0.02409
973.96989	0.02409
972.04123	0.02399
970.11258	0.02376
968.18393	0.02351
966.25527	0.02332
964.32662	0.02316
962.39797	0.02303
960.46931	0.02292
958.54066	0.02278
956.61201	0.02254
954.68335	0.02227
952.75470	0.02213
950.82605	0.02209
948.89739	0.02207
946.96874	0.02203
945.04009	0.02200
943.11143	0.02205
941.18278	0.02220
939.25413	0.02225
937.32547	0.02212
935.39682	0.02204
933.46817	0.02213
931.53951	0.02214
929.61086	0.02199
927.68221	0.02189
925.75355	0.02192
923.82490	0.02195
921.89625	0.02188
919.96759	0.02172
918.03894	0.02158
916.11029	0.02149
914.18163	0.02144
912.25298	0.02138
910.32433	0.02125
908.39567	0.02106
906.46702	0.02090
904.53837	0.02082
902.60972	0.02078
900.68106	0.02078
898.75241	0.02077
896.82376	0.02075
894.89510	0.02070
892.96645	0.02060
891.03780	0.02055
889.10914	0.02062
887.18049	0.02059
885.25184	0.02032
883.32318	0.02009
881.39453	0.02019
879.46588	0.02049
877.53722	0.02071
875.60857	0.02076
873.67992	0.02056
871.75126	0.02027
869.82261	0.02015
867.89396	0.02025
865.96530	0.02037
864.03665	0.02038
862.10800	0.02034
860.17934	0.02034
858.25069	0.02030
856.32204	0.02022
854.39338	0.02020
852.46473	0.02031
850.53608	0.02042
848.60742	0.02040
846.67877	0.02034
844.75012	0.02034
842.82146	0.02035
840.89281	0.02035
838.96416	0.02033
837.03551	0.02029
835.10685	0.02027
833.17820	0.02032
831.24955	0.02044
829.32089	0.02054
827.39224	0.02057
825.46359	0.02066
823.53493	0.02096
821.60628	0.02137
819.67763	0.02168
817.74897	0.02182
815.82032	0.02195
813.89167	0.02205
811.96301	0.02209
810.03436	0.02213
808.10571	0.02227
806.17705	0.02245
804.24840	0.02253
802.31975	0.02254
800.39109	0.02262
798.46244	0.02280
796.53379	0.02309
794.60513	0.02344
792.67648	0.02367
790.74783	0.02382
788.81917	0.02390
786.89052	0.02391
784.96187	0.02400
783.03321	0.02425
781.10456	0.02455
779.17591	0.02474
777.24725	0.02479
775.31860	0.02482
773.38995	0.02502
771.46130	0.02544
769.53264	0.02589
767.60399	0.02614
765.67534	0.02619
763.74668	0.02622
761.81803	0.02637
759.88938	0.02662
757.96072	0.02686
756.03207	0.02714
754.10342	0.02744
752.17476	0.02762
750.24611	0.02769
748.31746	0.02775
746.38880	0.02788
744.46015	0.02813
742.53150	0.02841
740.60284	0.02858
738.67419	0.02864
736.74554	0.02880
734.81688	0.02908
732.88823	0.02940
730.95958	0.02978
729.03092	0.03016
727.10227	0.03044
725.17362	0.03058
723.24496	0.03069
721.31631	0.03083
719.38766	0.03107
717.45900	0.03141
715.53035	0.03172
713.60170	0.03192
711.67304	0.03210
709.74439	0.03226
707.81574	0.03244
705.88708	0.03267
703.95843	0.03291
702.02978	0.03311
700.10113	0.03326
698.17247	0.03335
696.24382	0.03343
694.31517	0.03348
692.38651	0.03354
690.45786	0.03368
688.52921	0.03384
686.60055	0.03394
684.67190	0.03405
682.74325	0.03425
680.81459	0.03457
678.88594	0.03487
676.95729	0.03503
675.02863	0.03510
673.09998	0.03521
671.17133	0.03539
669.24267	0.03558
667.31402	0.03575
665.38537	0.03585
663.45671	0.03600
661.52806	0.03612
659.59941	0.03617
657.67075	0.03627
655.74210	0.03640
653.81345	0.03639
651.88479	0.03635
649.95614	0.03649
648.02749	0.03677
646.09883	0.03694
644.17018	0.03686
642.24153	0.03672
640.31287	0.03671
638.38422	0.03683
636.45557	0.03700
634.52692	0.03716
632.59826	0.03711
630.66961	0.03742
628.74096	0.03940
626.81230	0.03665
624.88365	0.03292
622.95500	0.03107
621.02634	0.03237
619.09769	0.03581
617.16904	0.04025
615.24038	0.04411
613.31173	0.04425
611.38308	0.04059
609.45442	0.03757
607.52577	0.03706
605.59712	0.03697
603.66846	0.03708
601.73981	0.03763
599.81116	0.03775
597.88250	0.03745
595.95385	0.03720
594.02520	0.03702
592.09654	0.03698
590.16789	0.03710
588.23924	0.03725
586.31058	0.03735
584.38193	0.03739
582.45328	0.03725
580.52462	0.03704
578.59597	0.03694
576.66732	0.03696
574.73866	0.03699
572.81001	0.03690
570.88136	0.03668
568.95270	0.03651
567.02405	0.03666
565.09540	0.03704
563.16675	0.03734
561.23809	0.03748
559.30944	0.03750
557.38079	0.03747
555.45213	0.03749
553.52348	0.03753
551.59483	0.03740
549.66617	0.03712
547.73752	0.03689
545.80887	0.03671
543.88021	0.03650
541.95156	0.03632
540.02291	0.03632
538.09425	0.03648
536.16560	0.03662
534.23695	0.03662
532.30829	0.03653
530.37964	0.03637
528.45099	0.03626
526.52233	0.03618
524.59368	0.03593
522.66503	0.03550
520.73637	0.03517
518.80772	0.03506
516.87907	0.03488
514.95041	0.03457
513.02176	0.03439
511.09311	0.03432
509.16445	0.03412
507.23580	0.03383
505.30715	0.03355
503.37849	0.03328
501.44984	0.03310
499.52119	0.03301
497.59254	0.03281
495.66388	0.03245
493.73523	0.03210
491.80658	0.03191
489.87792	0.03172
487.94927	0.03136
486.02062	0.03092
484.09196	0.03051
482.16331	0.03024
480.23466	0.03020
478.30600	0.03020
476.37735	0.03004
474.44870	0.02970
472.52004	0.02932
470.59139	0.02900
468.66274	0.02878
466.73408	0.02864
464.80543	0.02851
462.87678	0.02833
460.94812	0.02802
459.01947	0.02759
457.09082	0.02715
455.16216	0.02684
453.23351	0.02664
451.30486	0.02649
449.37620	0.02641
447.44755	0.02633
445.51890	0.02612
443.59024	0.02586
441.66159	0.02571
439.73294	0.02563
437.80428	0.02551
435.87563	0.02533
433.94698	0.02516
432.01833	0.02502
430.08967	0.02483
428.16102	0.02457
426.23237	0.02430
424.30371	0.02406
422.37506	0.02386
420.44641	0.02364
418.51775	0.02341
416.58910	0.02326
414.66045	0.02319
412.73179	0.02305
410.80314	0.02281
408.87449	0.02262
406.94583	0.02255
405.01718	0.02251
403.08853	0.02237
401.15987	0.02216
399.23122	0.02197
