3996.16951	0.06461
3994.24086	0.06460
3992.31220	0.06478
3990.38355	0.06499
3988.45490	0.06497
3986.52624	0.06471
3984.59759	0.06439
3982.66894	0.06427
3980.74028	0.06433
3978.81163	0.06422
3976.88298	0.06390
3974.95432	0.06385
3973.02567	0.06430
3971.09702	0.06477
3969.16836	0.06495
3967.23971	0.06486
3965.31106	0.06440
3963.38240	0.06372
3961.45375	0.06330
3959.52510	0.06324
3957.59645	0.06314
3955.66779	0.06296
3953.73914	0.06278
3951.81049	0.06247
3949.88183	0.06232
3947.95318	0.06250
3946.02453	0.06266
3944.09587	0.06263
3942.16722	0.06254
3940.23857	0.06244
3938.30991	0.06228
3936.38126	0.06220
3934.45261	0.06231
3932.52395	0.06215
3930.59530	0.06170
3928.66665	0.06138
3926.73799	0.06118
3924.80934	0.06112
3922.88069	0.06140
3920.95203	0.06190
3919.02338	0.06213
3917.09473	0.06206
3915.16607	0.06191
3913.23742	0.06183
3911.30877	0.06185
3909.38011	0.06203
3907.45146	0.06211
3905.52281	0.06206
3903.59415	0.06194
3901.66550	0.06162
3899.73685	0.06135
3897.80819	0.06139
3895.87954	0.06129
3893.95089	0.06070
3892.02224	0.06033
3890.09358	0.06034
3888.16493	0.06038
3886.23628	0.06036
3884.30762	0.06003
3882.37897	0.05983
3880.45032	0.05987
3878.52166	0.05982
3876.59301	0.05971
3874.66436	0.05915
3872.73570	0.05837
3870.80705	0.05844
3868.87840	0.05879
3866.94974	0.05919
3865.02109	0.05980
3863.09244	0.05980
3861.16378	0.05923
3859.23513	0.05839
3857.30648	0.05774
3855.37782	0.05803
3853.44917	0.05858
3851.52052	0.05874
3849.59186	0.05897
3847.66321	0.05887
3845.73456	0.05851
3843.80590	0.05866
3841.87725	0.05922
3839.94860	0.05954
3838.01994	0.05916
3836.09129	0.05808
3834.16264	0.05743
3832.23398	0.05734
3830.30533	0.05728
3828.37668	0.05733
3826.44803	0.05739
3824.51937	0.05719
3822.59072	0.05729
3820.66207	0.05739
3818.73341	0.05713
3816.80476	0.05712
3814.87611	0.05697
3812.94745	0.05704
3811.01880	0.05700
3809.09015	0.05645
3807.16149	0.05618
3805.23284	0.05608
3803.30419	0.05649
3801.37553	0.05700
3799.44688	0.05654
3797.51823	0.05594
3795.58957	0.05539
3793.66092	0.05495
3791.73227	0.05494
3789.80361	0.05527
3787.87496	0.05602
3785.94631	0.05694
3784.01765	0.05718
3782.08900	0.05667
3780.16035	0.05628
3778.23169	0.05616
3776.30304	0.05604
3774.37439	0.05563
3772.44573	0.05500
3770.51708	0.05462
3768.58843	0.05429
3766.65977	0.05396
3764.73112	0.05380
3762.80247	0.05391
3760.87381	0.05424
3758.94516	0.05437
3757.01651	0.05426
3755.08786	0.05396
3753.15920	0.05384
3751.23055	0.05388
3749.30190	0.05398
3747.37324	0.05396
3745.44459	0.05437
3743.51594	0.05408
3741.58728	0.05318
3739.65863	0.05291
3737.72998	0.05323
3735.80132	0.05361
3733.87267	0.05373
3731.94402	0.05325
3730.01536	0.05235
3728.08671	0.05212
3726.15806	0.05218
3724.22940	0.05211
3722.30075	0.05217
3720.37210	0.05202
3718.44344	0.05229
3716.51479	0.05247
3714.58614	0.05215
3712.65748	0.05168
3710.72883	0.05089
3708.80018	0.05004
3706.87152	0.04969
3704.94287	0.05019
3703.01422	0.05101
3701.08556	0.05131
3699.15691	0.05089
3697.22826	0.05022
3695.29960	0.04968
3693.37095	0.04973
3691.44230	0.05032
3689.51365	0.05070
3687.58499	0.05025
3685.65634	0.04968
3683.72769	0.04992
3681.79903	0.05040
3679.87038	0.05078
3677.94173	0.05101
3676.01307	0.05110
3674.08442	0.05063
3672.15577	0.05062
3670.22711	0.05095
3668.29846	0.05073
3666.36981	0.05088
3664.44115	0.05149
3662.51250	0.05182
3660.58385	0.05177
3658.65519	0.05189
3656.72654	0.05251
3654.79789	0.05318
3652.86923	0.05359
3650.94058	0.05369
3649.01193	0.05368
3647.08327	0.05394
3645.15462	0.05419
3643.22597	0.05421
3641.29731	0.05445
3639.36866	0.05519
3637.44001	0.05596
3635.51135	0.05643
3633.58270	0.05677
3631.65405	0.05666
3629.72539	0.05683
3627.79674	0.05711
3625.86809	0.05757
3623.93943	0.05752
3622.01078	0.05774
3620.08213	0.05842
3618.15348	0.05923
3616.22482	0.05995
3614.29617	0.06026
3612.36752	0.06071
3610.43886	0.06163
3608.51021	0.06230
3606.58156	0.06218
3604.65290	0.06236
3602.72425	0.06279
3600.79560	0.06296
3598.86694	0.06320
3596.93829	0.06371
3595.00964	0.06437
3593.08098	0.06534
3591.15233	0.06652
3589.22368	0.06713
3587.29502	0.06709
3585.36637	0.06729
3583.43772	0.06813
3581.50906	0.06914
3579.58041	0.07004
3577.65176	0.07093
3575.72310	0.07173
3573.79445	0.07218
3571.86580	0.07252
3569.93714	0.07322
3568.00849	0.07429
3566.07984	0.07550
3564.15118	0.07672
3562.22253	0.07733
3560.29388	0.07705
3558.36522	0.07695
3556.43657	0.07782
3554.50792	0.07931
3552.57927	0.08077
3550.65061	0.08189
3548.72196	0.08279
3546.79331	0.08354
3544.86465	0.08402
3542.93600	0.08438
3541.00735	0.08495
3539.07869	0.08556
3537.15004	0.08609
3535.22139	0.08682
3533.29273	0.08766
3531.36408	0.08820
3529.43543	0.08851
3527.50677	0.08911
3525.57812	0.09007
3523.64947	0.09083
3521.72081	0.09133
3519.79216	0.09218
3517.86351	0.09345
3515.93485	0.09436
3514.00620	0.09449
3512.07755	0.09461
3510.14889	0.09529
3508.22024	0.09613
3506.29159	0.09679
3504.36293	0.09736
3502.43428	0.09796
3500.50563	0.09859
3498.57697	0.09918
3496.64832	0.09984
3494.71967	0.10060
3492.79101	0.10130
3490.86236	0.10185
3488.93371	0.10229
3487.00506	0.10261
3485.07640	0.10303
3483.14775	0.10373
3481.21910	0.10426
3479.29044	0.10429
3477.36179	0.10438
3475.43314	0.10493
3473.50448	0.10581
3471.57583	0.10692
3469.64718	0.10804
3467.71852	0.10885
3465.78987	0.10934
3463.86122	0.10971
3461.93256	0.11015
3460.00391	0.11050
3458.07526	0.11059
3456.14660	0.11073
3454.21795	0.11122
3452.28930	0.11171
3450.36064	0.11217
3448.43199	0.11303
3446.50334	0.11416
3444.57468	0.11492
3442.64603	0.11517
3440.71738	0.11535
3438.78872	0.11583
3436.86007	0.11647
3434.93142	0.11698
3433.00276	0.11754
3431.07411	0.11836
3429.14546	0.11902
3427.21680	0.11917
3425.28815	0.11914
3423.35950	0.11945
3421.43084	0.12009
3419.50219	0.12082
3417.57354	0.12158
3415.64489	0.12241
3413.71623	0.12317
3411.78758	0.12383
3409.85893	0.12448
3407.93027	0.12493
3406.00162	0.12514
3404.07297	0.12549
3402.14431	0.12596
3400.21566	0.12615
3398.28701	0.12625
3396.35835	0.12674
3394.42970	0.12740
3392.50105	0.12781
3390.57239	0.12812
3388.64374	0.12847
3386.71509	0.12877
3384.78643	0.12929
3382.85778	0.13025
3380.92913	0.13122
3379.00047	0.13188
3377.07182	0.13251
3375.14317	0.13336
3373.21451	0.13452
3371.28586	0.13580
3369.35721	0.13659
3367.42855	0.13696
3365.49990	0.13762
3363.57125	0.13853
3361.64259	0.13947
3359.71394	0.14065
3357.78529	0.14201
3355.85663	0.14314
3353.92798	0.14382
3351.99933	0.14438
3350.07068	0.14541
3348.14202	0.14681
3346.21337	0.14806
3344.28472	0.14900
3342.35606	0.14984
3340.42741	0.15080
3338.49876	0.15198
3336.57010	0.15317
3334.64145	0.15420
3332.71280	0.15522
3330.78414	0.15644
3328.85549	0.15771
3326.92684	0.15851
3324.99818	0.15868
3323.06953	0.15863
3321.14088	0.15869
3319.21222	0.15921
3317.28357	0.16035
3315.35492	0.16132
3313.42626	0.16163
3311.49761	0.16197
3309.56896	0.16264
3307.64030	0.16317
3305.71165	0.16347
3303.78300	0.16382
3301.85434	0.16411
3299.92569	0.16415
3297.99704	0.16412
3296.06838	0.16411
3294.13973	0.16400
3292.21108	0.16379
3290.28242	0.16360
3288.35377	0.16375
3286.42512	0.16438
3284.49646	0.16498
3282.56781	0.16497
3280.63916	0.16442
3278.71051	0.16380
3276.78185	0.16331
3274.85320	0.16301
3272.92455	0.16293
3270.99589	0.16283
3269.06724	0.16224
3267.13859	0.16122
3265.20993	0.16024
3263.28128	0.15958
3261.35263	0.15936
3259.42397	0.15929
3257.49532	0.15887
3255.56667	0.15811
3253.63801	0.15719
3251.70936	0.15631
3249.78071	0.15555
3247.85205	0.15480
3245.92340	0.15402
3243.99475	0.15323
3242.06609	0.15238
3240.13744	0.15158
3238.20879	0.15107
3236.28013	0.15078
3234.35148	0.15031
3232.42283	0.14975
3230.49417	0.14935
3228.56552	0.14890
3226.63687	0.14828
3224.70821	0.14782
3222.77956	0.14752
3220.85091	0.14723
3218.92225	0.14701
3216.99360	0.14682
3215.06495	0.14645
3213.13630	0.14592
3211.20764	0.14552
3209.27899	0.14526
3207.35034	0.14485
3205.42168	0.14418
3203.49303	0.14332
3201.56438	0.14259
3199.63572	0.14224
3197.70707	0.14192
3195.77842	0.14124
3193.84976	0.14050
3191.92111	0.13986
3189.99246	0.13894
3188.06380	0.13785
3186.13515	0.13689
3184.20650	0.13624
3182.27784	0.13595
3180.34919	0.13558
3178.42054	0.13476
3176.49188	0.13380
3174.56323	0.13292
3172.63458	0.13188
3170.70592	0.13058
3168.77727	0.12959
3166.84862	0.12903
3164.91996	0.12830
3162.99131	0.12734
3161.06266	0.12649
3159.13400	0.12568
3157.20535	0.12482
3155.27670	0.12402
3153.34804	0.12326
3151.41939	0.12250
3149.49074	0.12186
3147.56209	0.12154
3145.63343	0.12124
3143.70478	0.12050
3141.77613	0.11960
3139.84747	0.11901
3137.91882	0.11846
3135.99017	0.11760
3134.06151	0.11679
3132.13286	0.11630
3130.20421	0.11587
3128.27555	0.11508
3126.34690	0.11407
3124.41825	0.11336
3122.48959	0.11314
3120.56094	0.11310
3118.63229	0.11313
3116.70363	0.11317
3114.77498	0.11298
3112.84633	0.11260
3110.91767	0.11227
3108.98902	0.11224
3107.06037	0.11260
3105.13171	0.11300
3103.20306	0.11303
3101.27441	0.11281
3099.34575	0.11276
3097.41710	0.11301
3095.48845	0.11334
3093.55979	0.11372
3091.63114	0.11422
3089.70249	0.11459
3087.77383	0.11466
3085.84518	0.11483
3083.91653	0.11535
3081.98787	0.11582
3080.05922	0.11590
3078.13057	0.11581
3076.20192	0.11585
3074.27326	0.11593
3072.34461	0.11575
3070.41596	0.11531
3068.48730	0.11488
3066.55865	0.11464
3064.63000	0.11448
3062.70134	0.11412
3060.77269	0.11344
3058.84404	0.11265
3056.91538	0.11206
3054.98673	0.11163
3053.05808	0.11116
3051.12942	0.11060
3049.20077	0.10988
3047.27212	0.10909
3045.34346	0.10842
3043.41481	0.10776
3041.48616	0.10683
3039.55750	0.10579
3037.62885	0.10503
3035.70020	0.10461
3033.77154	0.10418
3031.84289	0.10344
3029.91424	0.10257
3027.98558	0.10194
3026.05693	0.10157
3024.12828	0.10121
3022.19962	0.10070
3020.27097	0.10001
3018.34232	0.09915
3016.41366	0.09835
3014.48501	0.09796
3012.55636	0.09787
3010.62771	0.09771
3008.69905	0.09730
3006.77040	0.09678
3004.84175	0.09652
3002.91309	0.09663
3000.98444	0.09662
2999.05579	0.09630
2997.12713	0.09621
2995.19848	0.09675
2993.26983	0.09742
2991.34117	0.09761
2989.41252	0.09762
2987.48387	0.09804
2985.55521	0.09873
2983.62656	0.09931
2981.69791	0.09974
2979.76925	0.10006
2977.84060	0.10026
2975.91195	0.10057
2973.98329	0.10108
2972.05464	0.10162
2970.12599	0.10212
2968.19733	0.10258
2966.26868	0.10300
2964.34003	0.10333
2962.41137	0.10362
2960.48272	0.10390
2958.55407	0.10403
2956.62541	0.10392
2954.69676	0.10367
2952.76811	0.10344
2950.83945	0.10341
2948.91080	0.10365
2946.98215	0.10400
2945.05349	0.10434
2943.12484	0.10455
2941.19619	0.10463
2939.26754	0.10482
2937.33888	0.10514
2935.41023	0.10531
2933.48158	0.10523
2931.55292	0.10504
2929.62427	0.10471
2927.69562	0.10429
2925.76696	0.10397
2923.83831	0.10348
2921.90966	0.10260
2919.98100	0.10183
2918.05235	0.10128
2916.12370	0.10049
2914.19504	0.09943
2912.26639	0.09840
2910.33774	0.09748
2908.40908	0.09662
2906.48043	0.09588
2904.55178	0.09531
2902.62312	0.09489
2900.69447	0.09438
2898.76582	0.09384
2896.83716	0.09347
2894.90851	0.09324
2892.97986	0.09303
2891.05120	0.09283
2889.12255	0.09264
2887.19390	0.09237
2885.26524	0.09210
2883.33659	0.09218
2881.40794	0.09249
2879.47928	0.09280
2877.55063	0.09297
2875.62198	0.09273
2873.69333	0.09222
2871.76467	0.09180
2869.83602	0.09146
2867.90737	0.09098
2865.97871	0.09023
2864.05006	0.08927
2862.12141	0.08843
2860.19275	0.08783
2858.26410	0.08729
2856.33545	0.08683
2854.40679	0.08650
2852.47814	0.08605
2850.54949	0.08539
2848.62083	0.08466
2846.69218	0.08396
2844.76353	0.08334
2842.83487	0.08282
2840.90622	0.08235
2838.97757	0.08192
2837.04891	0.08145
2835.12026	0.08088
2833.19161	0.08041
2831.26295	0.08014
2829.33430	0.08002
2827.40565	0.07990
2825.47699	0.07966
2823.54834	0.07938
2821.61969	0.07920
2819.69103	0.07906
2817.76238	0.07878
2815.83373	0.07827
2813.90507	0.07766
2811.97642	0.07723
2810.04777	0.07711
2808.11912	0.07711
2806.19046	0.07698
2804.26181	0.07662
2802.33316	0.07623
2800.40450	0.07595
2798.47585	0.07573
2796.54720	0.07546
2794.61854	0.07521
2792.68989	0.07499
2790.76124	0.07470
2788.83258	0.07440
2786.90393	0.07424
2784.97528	0.07403
2783.04662	0.07363
2781.11797	0.07325
2779.18932	0.07296
2777.26066	0.07269
2775.33201	0.07238
2773.40336	0.07214
2771.47470	0.07197
2769.54605	0.07177
2767.61740	0.07166
2765.68874	0.07151
2763.76009	0.07112
2761.83144	0.07072
2759.90278	0.07046
2757.97413	0.07030
2756.04548	0.07015
2754.11682	0.07001
2752.18817	0.06991
2750.25952	0.06980
2748.33086	0.06959
2746.40221	0.06924
2744.47356	0.06883
2742.54490	0.06846
2740.61625	0.06819
2738.68760	0.06799
2736.75895	0.06786
2734.83029	0.06775
2732.90164	0.06755
2730.97299	0.06729
2729.04433	0.06707
2727.11568	0.06691
2725.18703	0.06672
2723.25837	0.06643
2721.32972	0.06607
2719.40107	0.06580
2717.47241	0.06566
2715.54376	0.06552
2713.61511	0.06534
2711.68645	0.06511
2709.75780	0.06486
2707.82915	0.06469
2705.90049	0.06462
2703.97184	0.06451
2702.04319	0.06430
2700.11453	0.06405
2698.18588	0.06382
2696.25723	0.06362
2694.32857	0.06347
2692.39992	0.06343
2690.47127	0.06345
2688.54261	0.06342
2686.61396	0.06328
2684.68531	0.06305
2682.75665	0.06281
2680.82800	0.06268
2678.89935	0.06261
2676.97069	0.06251
2675.04204	0.06244
2673.11339	0.06242
2671.18474	0.06227
2669.25608	0.06208
2667.32743	0.06194
2665.39878	0.06177
2663.47012	0.06161
2661.54147	0.06156
2659.61282	0.06149
2657.68416	0.06131
2655.75551	0.06111
2653.82686	0.06093
2651.89820	0.06069
2649.96955	0.06041
2648.04090	0.06002
2646.11224	0.05961
2644.18359	0.05936
2642.25494	0.05926
2640.32628	0.05911
2638.39763	0.05887
2636.46898	0.05858
2634.54032	0.05815
2632.61167	0.05763
2630.68302	0.05714
2628.75436	0.05671
2626.82571	0.05636
2624.89706	0.05609
2622.96840	0.05591
2621.03975	0.05572
2619.11110	0.05542
2617.18244	0.05499
2615.25379	0.05444
2613.32514	0.05397
2611.39648	0.05388
2609.46783	0.05386
2607.53918	0.05343
2605.61052	0.05291
2603.68187	0.05275
2601.75322	0.05283
2599.82457	0.05276
2597.89591	0.05239
2595.96726	0.05208
2594.03861	0.05209
2592.10995	0.05190
2590.18130	0.05120
2588.25265	0.05070
2586.32399	0.05080
2584.39534	0.05087
2582.46669	0.05046
2580.53803	0.04992
2578.60938	0.04954
2576.68073	0.04940
2574.75207	0.04945
2572.82342	0.04945
2570.89477	0.04951
2568.96611	0.04965
2567.03746	0.04949
2565.10881	0.04910
2563.18015	0.04878
2561.25150	0.04861
2559.32285	0.04855
2557.39419	0.04840
2555.46554	0.04821
2553.53689	0.04816
2551.60823	0.04809
2549.67958	0.04784
2547.75093	0.04749
2545.82227	0.04714
2543.89362	0.04694
2541.96497	0.04688
2540.03631	0.04683
2538.10766	0.04695
2536.17901	0.04710
2534.25036	0.04689
2532.32170	0.04636
2530.39305	0.04605
2528.46440	0.04612
2526.53574	0.04618
2524.60709	0.04597
2522.67844	0.04565
2520.74978	0.04534
2518.82113	0.04517
2516.89248	0.04535
2514.96382	0.04555
2513.03517	0.04539
2511.10652	0.04521
2509.17786	0.04516
2507.24921	0.04503
2505.32056	0.04471
2503.39190	0.04430
2501.46325	0.04399
2499.53460	0.04391
2497.60594	0.04409
2495.67729	0.04437
2493.74864	0.04445
2491.81998	0.04431
2489.89133	0.04412
2487.96268	0.04404
2486.03402	0.04390
2484.10537	0.04362
2482.17672	0.04366
2480.24806	0.04403
2478.31941	0.04394
2476.39076	0.04350
2474.46210	0.04342
2472.53345	0.04337
2470.60480	0.04292
2468.67615	0.04245
2466.74749	0.04237
2464.81884	0.04268
2462.89019	0.04299
2460.96153	0.04301
2459.03288	0.04289
2457.10423	0.04298
2455.17557	0.04319
2453.24692	0.04308
2451.31827	0.04264
2449.38961	0.04217
2447.46096	0.04177
2445.53231	0.04162
2443.60365	0.04180
2441.67500	0.04205
2439.74635	0.04219
2437.81769	0.04220
2435.88904	0.04207
2433.96039	0.04191
2432.03173	0.04169
2430.10308	0.04140
2428.17443	0.04130
2426.24577	0.04156
2424.31712	0.04193
2422.38847	0.04212
2420.45981	0.04193
2418.53116	0.04145
2416.60251	0.04111
2414.67385	0.04092
2412.74520	0.04063
2410.81655	0.04029
2408.88789	0.04012
2406.95924	0.04016
2405.03059	0.04017
2403.10193	0.04022
2401.17328	0.04043
2399.24463	0.04042
2397.31598	0.04031
2395.38732	0.04050
2393.45867	0.04098
2391.53002	0.04125
2389.60136	0.04108
2387.67271	0.04072
2385.74406	0.04057
2383.81540	0.04077
2381.88675	0.04096
2379.95810	0.04090
2378.02944	0.04065
2376.10079	0.04045
2374.17214	0.04051
2372.24348	0.04075
2370.31483	0.04079
2368.38618	0.04073
2366.45752	0.04094
2364.52887	0.04140
2362.60022	0.04156
2360.67156	0.04143
2358.74291	0.04142
2356.81426	0.04158
2354.88560	0.04156
2352.95695	0.04134
2351.02830	0.04114
2349.09964	0.04118
2347.17099	0.04139
2345.24234	0.04146
2343.31368	0.04140
2341.38503	0.04140
2339.45638	0.04137
2337.52772	0.04128
2335.59907	0.04110
2333.67042	0.04082
2331.74177	0.04064
2329.81311	0.04078
2327.88446	0.04133
2325.95581	0.04204
2324.02715	0.04237
2322.09850	0.04214
2320.16985	0.04166
2318.24119	0.04111
2316.31254	0.04062
2314.38389	0.04020
2312.45523	0.03979
2310.52658	0.03956
2308.59793	0.03951
2306.66927	0.03939
2304.74062	0.03892
2302.81197	0.03816
2300.88331	0.03760
2298.95466	0.03756
2297.02601	0.03789
2295.09735	0.03813
2293.16870	0.03790
2291.24005	0.03734
2289.31139	0.03706
2287.38274	0.03706
2285.45409	0.03666
2283.52543	0.03603
2281.59678	0.03577
2279.66813	0.03565
2277.73947	0.03535
2275.81082	0.03501
2273.88217	0.03455
2271.95351	0.03402
2270.02486	0.03381
2268.09621	0.03366
2266.16755	0.03307
2264.23890	0.03248
2262.31025	0.03230
2260.38160	0.03193
2258.45294	0.03121
2256.52429	0.03081
2254.59564	0.03097
2252.66698	0.03122
2250.73833	0.03110
2248.80968	0.03059
2246.88102	0.02968
2244.95237	0.02924
2243.02372	0.02951
2241.09506	0.03003
2239.16641	0.03040
2237.23776	0.03058
2235.30910	0.03047
2233.38045	0.03006
2231.45180	0.02967
2229.52314	0.02943
2227.59449	0.02943
2225.66584	0.02957
2223.73718	0.02940
2221.80853	0.02883
2219.87988	0.02793
2217.95122	0.02687
2216.02257	0.02631
2214.09392	0.02668
2212.16526	0.02708
2210.23661	0.02683
2208.30796	0.02684
2206.37930	0.02747
2204.45065	0.02742
2202.52200	0.02600
2200.59334	0.02482
2198.66469	0.02497
2196.73604	0.02512
2194.80739	0.02472
2192.87873	0.02467
2190.95008	0.02468
2189.02143	0.02424
2187.09277	0.02412
2185.16412	0.02446
2183.23547	0.02435
2181.30681	0.02380
2179.37816	0.02280
2177.44951	0.02130
2175.52085	0.02081
2173.59220	0.02154
2171.66355	0.02169
2169.73489	0.02097
2167.80624	0.02050
2165.87759	0.02058
2163.94893	0.02072
2162.02028	0.02017
2160.09163	0.01854
2158.16297	0.01723
2156.23432	0.01766
2154.30567	0.01914
2152.37701	0.02001
2150.44836	0.02017
2148.51971	0.02123
2146.59105	0.02283
2144.66240	0.02300
2142.73375	0.02227
2140.80509	0.02230
2138.87644	0.02287
2136.94779	0.02327
2135.01913	0.02355
2133.09048	0.02386
2131.16183	0.02442
2129.23318	0.02516
2127.30452	0.02539
2125.37587	0.02522
2123.44722	0.02579
2121.51856	0.02697
2119.58991	0.02753
2117.66126	0.02743
2115.73260	0.02728
2113.80395	0.02694
2111.87530	0.02649
2109.94664	0.02635
2108.01799	0.02630
2106.08934	0.02621
2104.16068	0.02619
2102.23203	0.02603
2100.30338	0.02585
2098.37472	0.02577
2096.44607	0.02522
2094.51742	0.02436
2092.58876	0.02443
2090.66011	0.02543
2088.73146	0.02613
2086.80280	0.02622
2084.87415	0.02598
2082.94550	0.02521
2081.01684	0.02429
2079.08819	0.02420
2077.15954	0.02481
2075.23088	0.02474
2073.30223	0.02379
2071.37358	0.02317
2069.44492	0.02305
2067.51627	0.02286
2065.58762	0.02263
2063.65896	0.02229
2061.73031	0.02197
2059.80166	0.02208
2057.87301	0.02222
2055.94435	0.02216
2054.01570	0.02238
2052.08705	0.02261
2050.15839	0.02215
2048.22974	0.02131
2046.30109	0.02060
2044.37243	0.01987
2042.44378	0.01915
2040.51513	0.01849
2038.58647	0.01786
2036.65782	0.01720
2034.72917	0.01605
2032.80051	0.01519
2030.87186	0.01580
2028.94321	0.01682
2027.01455	0.01663
2025.08590	0.01601
2023.15725	0.01614
2021.22859	0.01569
2019.29994	0.01435
2017.37129	0.01406
2015.44263	0.01543
2013.51398	0.01707
2011.58533	0.01754
2009.65667	0.01693
2007.72802	0.01666
2005.79937	0.01717
2003.87071	0.01761
2001.94206	0.01773
2000.01341	0.01791
1998.08475	0.01839
1996.15610	0.01914
1994.22745	0.01974
1992.29880	0.02005
1990.37014	0.02048
1988.44149	0.02083
1986.51284	0.02067
1984.58418	0.02025
1982.65553	0.01984
1980.72688	0.01952
1978.79822	0.01910
1976.86957	0.01846
1974.94092	0.01749
1973.01226	0.01615
1971.08361	0.01532
1969.15496	0.01601
1967.22630	0.01758
1965.29765	0.01823
1963.36900	0.01756
1961.44034	0.01710
1959.51169	0.01780
1957.58304	0.01888
1955.65438	0.01947
1953.72573	0.01978
1951.79708	0.01984
1949.86842	0.01937
1947.93977	0.01895
1946.01112	0.01910
1944.08246	0.01959
1942.15381	0.02008
1940.22516	0.02026
1938.29650	0.01990
1936.36785	0.01928
1934.43920	0.01893
1932.51054	0.01884
1930.58189	0.01887
1928.65324	0.01915
1926.72458	0.01966
1924.79593	0.02035
1922.86728	0.02118
1920.93863	0.02177
1919.00997	0.02167
1917.08132	0.02117
1915.15267	0.02097
1913.22401	0.02092
1911.29536	0.02061
1909.36671	0.02032
1907.43805	0.02035
1905.50940	0.02052
1903.58075	0.02066
1901.65209	0.02085
1899.72344	0.02098
1897.79479	0.02095
1895.86613	0.02104
1893.93748	0.02115
1892.00883	0.02112
1890.08017	0.02122
1888.15152	0.02151
1886.22287	0.02161
1884.29421	0.02135
1882.36556	0.02108
1880.43691	0.02105
1878.50825	0.02105
1876.57960	0.02095
1874.65095	0.02091
1872.72229	0.02096
1870.79364	0.02099
1868.86499	0.02086
1866.93633	0.02056
1865.00768	0.02042
1863.07903	0.02051
1861.15037	0.02062
1859.22172	0.02070
1857.29307	0.02072
1855.36442	0.02065
1853.43576	0.02064
1851.50711	0.02070
1849.57846	0.02061
1847.64980	0.02037
1845.72115	0.02031
1843.79250	0.02036
1841.86384	0.02030
1839.93519	0.02034
1838.00654	0.02054
1836.07788	0.02082
1834.14923	0.02092
1832.22058	0.02071
1830.29192	0.02035
1828.36327	0.01999
1826.43462	0.01993
1824.50596	0.02005
1822.57731	0.01991
1820.64866	0.01968
1818.72000	0.01962
1816.79135	0.01968
1814.86270	0.01974
1812.93404	0.01988
1811.00539	0.02009
1809.07674	0.02020
1807.14808	0.02009
1805.21943	0.01988
1803.29078	0.01990
1801.36212	0.02016
1799.43347	0.02028
1797.50482	0.02011
1795.57616	0.01988
1793.64751	0.01985
1791.71886	0.01989
1789.79021	0.01977
1787.86155	0.01968
1785.93290	0.01962
1784.00425	0.01950
1782.07559	0.01942
1780.14694	0.01940
1778.21829	0.01935
1776.28963	0.01933
1774.36098	0.01941
1772.43233	0.01945
1770.50367	0.01929
1768.57502	0.01923
1766.64637	0.01919
1764.71771	0.01916
1762.78906	0.01926
1760.86041	0.01926
1758.93175	0.01920
1757.00310	0.01931
1755.07445	0.01939
1753.14579	0.01948
1751.21714	0.01957
1749.28849	0.01957
1747.35983	0.01974
1745.43118	0.02005
1743.50253	0.02038
1741.57387	0.02073
1739.64522	0.02101
1737.71657	0.02114
1735.78791	0.02153
1733.85926	0.02200
1731.93061	0.02215
1730.00195	0.02242
1728.07330	0.02289
1726.14465	0.02339
1724.21599	0.02385
1722.28734	0.02419
1720.35869	0.02466
1718.43004	0.02552
1716.50138	0.02633
1714.57273	0.02705
1712.64408	0.02808
1710.71542	0.02954
1708.78677	0.03141
1706.85812	0.03369
1704.92946	0.03629
1703.00081	0.03923
1701.07216	0.04275
1699.14350	0.04630
1697.21485	0.05003
1695.28620	0.05396
1693.35754	0.05756
1691.42889	0.06132
1689.50024	0.06520
1687.57158	0.06914
1685.64293	0.07363
1683.71428	0.07834
1681.78562	0.08301
1679.85697	0.08797
1677.92832	0.09315
1675.99966	0.09873
1674.07101	0.10453
1672.14236	0.11050
1670.21370	0.11679
1668.28505	0.12307
1666.35640	0.12916
1664.42774	0.13516
1662.49909	0.14089
1660.57044	0.14611
1658.64178	0.15084
1656.71313	0.15500
1654.78448	0.15896
1652.85583	0.16259
1650.92717	0.16525
1648.99852	0.16769
1647.06987	0.17031
1645.14121	0.17255
1643.21256	0.17432
1641.28391	0.17591
1639.35525	0.17742
1637.42660	0.17897
1635.49795	0.18040
1633.56929	0.18113
1631.64064	0.18117
1629.71199	0.18042
1627.78333	0.17862
1625.85468	0.17565
1623.92603	0.17163
1621.99737	0.16664
1620.06872	0.16105
1618.14007	0.15536
1616.21141	0.14947
1614.28276	0.14331
1612.35411	0.13731
1610.42545	0.13153
1608.49680	0.12603
1606.56815	0.12089
1604.63949	0.11612
1602.71084	0.11178
1600.78219	0.10794
1598.85353	0.10465
1596.92488	0.10183
1594.99623	0.09929
1593.06757	0.09708
1591.13892	0.09542
1589.21027	0.09438
1587.28161	0.09377
1585.35296	0.09350
1583.42431	0.09364
1581.49566	0.09416
1579.56700	0.09503
1577.63835	0.09655
1575.70970	0.09864
1573.78104	0.10089
1571.85239	0.10368
1569.92374	0.10700
1567.99508	0.11045
1566.06643	0.11400
1564.13778	0.11760
1562.20912	0.12120
1560.28047	0.12508
1558.35182	0.12882
1556.42316	0.13209
1554.49451	0.13514
1552.56586	0.13776
1550.63720	0.13998
1548.70855	0.14173
1546.77990	0.14296
1544.85124	0.14376
1542.92259	0.14424
1540.99394	0.14460
1539.06528	0.14457
1537.13663	0.14399
1535.20798	0.14340
1533.27932	0.14276
1531.35067	0.14174
1529.42202	0.14047
1527.49336	0.13902
1525.56471	0.13736
1523.63606	0.13566
1521.70740	0.13409
1519.77875	0.13231
1517.85010	0.13032
1515.92145	0.12803
1513.99279	0.12528
1512.06414	0.12220
1510.13549	0.11885
1508.20683	0.11550
1506.27818	0.11199
1504.34953	0.10812
1502.42087	0.10439
1500.49222	0.10088
1498.56357	0.09739
1496.63491	0.09391
1494.70626	0.09034
1492.77761	0.08695
1490.84895	0.08404
1488.92030	0.08152
1486.99165	0.07940
1485.06299	0.07773
1483.13434	0.07659
1481.20569	0.07604
1479.27703	0.07604
1477.34838	0.07658
1475.41973	0.07754
1473.49107	0.07894
1471.56242	0.08062
1469.63377	0.08251
1467.70511	0.08461
1465.77646	0.08678
1463.84781	0.08880
1461.91915	0.09075
1459.99050	0.09285
1458.06185	0.09523
1456.13319	0.09747
1454.20454	0.09914
1452.27589	0.10027
1450.34724	0.10077
1448.41858	0.10075
1446.48993	0.10026
1444.56128	0.09935
1442.63262	0.09816
1440.70397	0.09668
1438.77532	0.09501
1436.84666	0.09318
1434.91801	0.09111
1432.98936	0.08916
1431.06070	0.08755
1429.13205	0.08622
1427.20340	0.08521
1425.27474	0.08460
1423.34609	0.08424
1421.41744	0.08405
1419.48878	0.08410
1417.56013	0.08422
1415.63148	0.08443
1413.70282	0.08471
1411.77417	0.08509
1409.84552	0.08571
1407.91686	0.08653
1405.98821	0.08731
1404.05956	0.08781
1402.13090	0.08796
1400.20225	0.08789
1398.27360	0.08761
1396.34494	0.08718
1394.41629	0.08672
1392.48764	0.08622
1390.55898	0.08564
1388.63033	0.08498
1386.70168	0.08424
1384.77302	0.08352
1382.84437	0.08293
1380.91572	0.08233
1378.98707	0.08158
1377.05841	0.08066
1375.12976	0.07959
1373.20111	0.07837
1371.27245	0.07699
1369.34380	0.07550
1367.41515	0.07389
1365.48649	0.07230
1363.55784	0.07097
1361.62919	0.06993
1359.70053	0.06917
1357.77188	0.06872
1355.84323	0.06858
1353.91457	0.06879
1351.98592	0.06937
1350.05727	0.07023
1348.12861	0.07130
1346.19996	0.07249
1344.27131	0.07367
1342.34265	0.07476
1340.41400	0.07567
1338.48535	0.07628
1336.55669	0.07651
1334.62804	0.07632
1332.69939	0.07570
1330.77073	0.07470
1328.84208	0.07354
1326.91343	0.07240
1324.98477	0.07146
1323.05612	0.07084
1321.12747	0.07046
1319.19881	0.07020
1317.27016	0.06997
1315.34151	0.06965
1313.41286	0.06911
1311.48420	0.06841
1309.55555	0.06776
1307.62690	0.06721
1305.69824	0.06677
1303.76959	0.06640
1301.84094	0.06602
1299.91228	0.06558
1297.98363	0.06523
1296.05498	0.06511
1294.12632	0.06524
1292.19767	0.06565
1290.26902	0.06634
1288.34036	0.06720
1286.41171	0.06804
1284.48306	0.06874
1282.55440	0.06930
1280.62575	0.06969
1278.69710	0.06988
1276.76844	0.06991
1274.83979	0.06990
1272.91114	0.06994
1270.98248	0.07004
1269.05383	0.07023
1267.12518	0.07058
1265.19652	0.07110
1263.26787	0.07174
1261.33922	0.07246
1259.41056	0.07325
1257.48191	0.07418
1255.55326	0.07530
1253.62460	0.07655
1251.69595	0.07787
1249.76730	0.07927
1247.83864	0.08071
1245.90999	0.08216
1243.98134	0.08358
1242.05269	0.08491
1240.12403	0.08600
1238.19538	0.08672
1236.26673	0.08708
1234.33807	0.08701
1232.40942	0.08642
1230.48077	0.08532
1228.55211	0.08385
1226.62346	0.08208
1224.69481	0.08012
1222.76615	0.07812
1220.83750	0.07620
1218.90885	0.07443
1216.98019	0.07292
1215.05154	0.07181
1213.12289	0.07122
1211.19423	0.07113
1209.26558	0.07142
1207.33693	0.07185
1205.40827	0.07222
1203.47962	0.07234
1201.55097	0.07206
1199.62231	0.07133
1197.69366	0.07011
1195.76501	0.06863
1193.83635	0.06712
1191.90770	0.06572
1189.97905	0.06445
1188.05039	0.06329
1186.12174	0.06224
1184.19309	0.06128
1182.26443	0.06045
1180.33578	0.05985
1178.40713	0.05950
1176.47848	0.05928
1174.54982	0.05910
1172.62117	0.05898
1170.69252	0.05895
1168.76386	0.05896
1166.83521	0.05900
1164.90656	0.05908
1162.97790	0.05917
1161.04925	0.05917
1159.12060	0.05890
1157.19194	0.05820
1155.26329	0.05724
1153.33464	0.05624
1151.40598	0.05526
1149.47733	0.05436
1147.54868	0.05352
1145.62002	0.05270
1143.69137	0.05202
1141.76272	0.05154
1139.83406	0.05117
1137.90541	0.05089
1135.97676	0.05064
1134.04810	0.05038
1132.11945	0.05024
1130.19080	0.05029
1128.26214	0.05043
1126.33349	0.05064
1124.40484	0.05091
1122.47618	0.05120
1120.54753	0.05143
1118.61888	0.05160
1116.69022	0.05188
1114.76157	0.05233
1112.83292	0.05289
1110.90427	0.05350
1108.97561	0.05409
1107.04696	0.05468
1105.11831	0.05529
1103.18965	0.05583
1101.26100	0.05636
1099.33235	0.05703
1097.40369	0.05786
1095.47504	0.05880
1093.54639	0.05979
1091.61773	0.06081
1089.68908	0.06205
1087.76043	0.06359
1085.83177	0.06508
1083.90312	0.06626
1081.97447	0.06710
1080.04581	0.06757
1078.11716	0.06764
1076.18851	0.06737
1074.25985	0.06697
1072.33120	0.06666
1070.40255	0.06654
1068.47389	0.06660
1066.54524	0.06671
1064.61659	0.06688
1062.68793	0.06713
1060.75928	0.06730
1058.83063	0.06733
1056.90197	0.06723
1054.97332	0.06699
1053.04467	0.06666
1051.11601	0.06637
1049.18736	0.06627
1047.25871	0.06633
1045.33005	0.06635
1043.40140	0.06629
1041.47275	0.06644
1039.54410	0.06691
1037.61544	0.06765
1035.68679	0.06860
1033.75814	0.06952
1031.82948	0.07004
1029.90083	0.07003
1027.97218	0.06962
1026.04352	0.06898
1024.11487	0.06827
1022.18622	0.06757
1020.25756	0.06694
1018.32891	0.06642
1016.40026	0.06594
1014.47160	0.06544
1012.54295	0.06495
1010.61430	0.06442
1008.68564	0.06373
1006.75699	0.06289
1004.82834	0.06202
1002.89968	0.06122
1000.97103	0.06052
999.04238	0.05996
997.11372	0.05934
995.18507	0.05850
993.25642	0.05768
991.32776	0.05698
989.39911	0.05634
987.47046	0.05580
985.54180	0.05534
983.61315	0.05488
981.68450	0.05440
979.75584	0.05403
977.82719	0.05371
975.89854	0.05335
973.96989	0.05299
972.04123	0.05264
970.11258	0.05222
968.18393	0.05165
966.25527	0.05113
964.32662	0.05082
962.39797	0.05053
960.46931	0.05013
958.54066	0.04967
956.61201	0.04924
954.68335	0.04882
952.75470	0.04838
950.82605	0.04796
948.89739	0.04766
946.96874	0.04743
945.04009	0.04718
943.11143	0.04703
941.18278	0.04702
939.25413	0.04685
937.32547	0.04640
935.39682	0.04596
933.46817	0.04562
931.53951	0.04529
929.61086	0.04493
927.68221	0.04461
925.75355	0.04442
923.82490	0.04431
921.89625	0.04405
919.96759	0.04361
918.03894	0.04322
916.11029	0.04301
914.18163	0.04276
912.25298	0.04231
910.32433	0.04187
908.39567	0.04160
906.46702	0.04146
904.53837	0.04133
902.60972	0.04114
900.68106	0.04086
898.75241	0.04054
896.82376	0.04020
894.89510	0.03985
892.96645	0.03950
891.03780	0.03924
889.10914	0.03907
887.18049	0.03905
885.25184	0.03927
883.32318	0.03955
881.39453	0.03976
879.46588	0.03995
877.53722	0.04019
875.60857	0.04041
873.67992	0.04053
871.75126	0.04052
869.82261	0.04032
867.89396	0.03999
865.96530	0.03970
864.03665	0.03951
862.10800	0.03933
860.17934	0.03918
858.25069	0.03908
856.32204	0.03902
854.39338	0.03901
852.46473	0.03899
850.53608	0.03883
848.60742	0.03859
846.67877	0.03837
844.75012	0.03812
842.82146	0.03785
840.89281	0.03764
838.96416	0.03753
837.03551	0.03751
835.10685	0.03751
833.17820	0.03749
831.24955	0.03745
829.32089	0.03746
827.39224	0.03749
825.46359	0.03747
823.53493	0.03762
821.60628	0.03804
819.67763	0.03843
817.74897	0.03863
815.82032	0.03879
813.89167	0.03889
811.96301	0.03885
810.03436	0.03890
808.10571	0.03908
806.17705	0.03928
804.24840	0.03948
802.31975	0.03962
800.39109	0.03968
798.46244	0.03976
796.53379	0.03993
794.60513	0.04018
792.67648	0.04040
790.74783	0.04052
788.81917	0.04066
786.89052	0.04089
784.96187	0.04122
783.03321	0.04165
781.10456	0.04200
779.17591	0.04212
777.24725	0.04222
775.31860	0.04246
773.38995	0.04275
771.46130	0.04305
769.53264	0.04332
767.60399	0.04356
765.67534	0.04378
763.74668	0.04404
761.81803	0.04436
759.88938	0.04469
757.96072	0.04503
756.03207	0.04536
754.10342	0.04552
752.17476	0.04553
750.24611	0.04561
748.31746	0.04591
746.38880	0.04639
744.46015	0.04683
742.53150	0.04706
740.60284	0.04707
738.67419	0.04717
736.74554	0.04759
734.81688	0.04807
732.88823	0.04831
730.95958	0.04841
729.03092	0.04855
727.10227	0.04885
725.17362	0.04928
723.24496	0.04970
721.31631	0.05028
719.38766	0.05075
717.45900	0.05109
715.53035	0.05137
713.60170	0.05163
711.67304	0.05184
709.74439	0.05207
707.81574	0.05240
705.88708	0.05284
703.95843	0.05331
702.02978	0.05363
700.10113	0.05379
698.17247	0.05390
696.24382	0.05403
694.31517	0.05418
692.38651	0.05431
690.45786	0.05444
688.52921	0.05461
686.60055	0.05480
684.67190	0.05497
682.74325	0.05520
680.81459	0.05557
678.88594	0.05592
676.95729	0.05613
675.02863	0.05631
673.09998	0.05656
671.17133	0.05680
669.24267	0.05694
667.31402	0.05707
665.38537	0.05724
663.45671	0.05746
661.52806	0.05769
659.59941	0.05781
657.67075	0.05785
655.74210	0.05798
653.81345	0.05814
651.88479	0.05823
649.95614	0.05833
648.02749	0.05841
646.09883	0.05846
644.17018	0.05851
642.24153	0.05859
640.31287	0.05866
638.38422	0.05873
636.45557	0.05880
634.52692	0.05890
632.59826	0.05893
630.66961	0.05894
628.74096	0.05915
626.81230	0.05831
624.88365	0.05785
622.95500	0.05949
621.02634	0.06197
619.09769	0.06143
617.16904	0.05969
615.24038	0.05937
613.31173	0.05839
611.38308	0.05590
609.45442	0.05541
607.52577	0.05827
605.59712	0.06210
603.66846	0.06484
601.73981	0.06550
599.81116	0.06511
597.88250	0.06479
595.95385	0.06442
594.02520	0.06385
592.09654	0.06344
590.16789	0.06338
588.23924	0.06336
586.31058	0.06328
584.38193	0.06329
582.45328	0.06343
580.52462	0.06363
578.59597	0.06391
576.66732	0.06450
574.73866	0.06542
572.81001	0.06624
570.88136	0.06672
568.95270	0.06707
567.02405	0.06745
565.09540	0.06801
563.16675	0.06882
561.23809	0.06967
559.30944	0.07019
557.38079	0.07010
555.45213	0.06960
553.52348	0.06916
551.59483	0.06894
549.66617	0.06869
547.73752	0.06825
545.80887	0.06767
543.88021	0.06709
541.95156	0.06664
540.02291	0.06637
538.09425	0.06617
536.16560	0.06597
534.23695	0.06581
532.30829	0.06577
530.37964	0.06587
528.45099	0.06591
526.52233	0.06554
524.59368	0.06490
522.66503	0.06430
520.73637	0.06372
518.80772	0.06313
516.87907	0.06256
514.95041	0.06191
513.02176	0.06118
511.09311	0.06054
509.16445	0.06001
507.23580	0.05959
505.30715	0.05925
503.37849	0.05880
501.44984	0.05813
499.52119	0.05756
497.59254	0.05726
495.66388	0.05688
493.73523	0.05630
491.80658	0.05578
489.87792	0.05528
487.94927	0.05465
486.02062	0.05412
484.09196	0.05380
482.16331	0.05343
480.23466	0.05301
478.30600	0.05266
476.37735	0.05234
474.44870	0.05204
472.52004	0.05184
470.59139	0.05150
468.66274	0.05083
466.73408	0.05013
464.80543	0.04974
462.87678	0.04952
460.94812	0.04915
459.01947	0.04864
457.09082	0.04810
455.16216	0.04755
453.23351	0.04705
451.30486	0.04657
449.37620	0.04606
447.44755	0.04559
445.51890	0.04526
443.59024	0.04496
441.66159	0.04455
439.73294	0.04411
437.80428	0.04369
435.87563	0.04329
433.94698	0.04299
432.01833	0.04286
430.08967	0.04276
428.16102	0.04255
426.23237	0.04215
424.30371	0.04155
422.37506	0.04090
420.44641	0.04046
418.51775	0.04011
416.58910	0.03975
414.66045	0.03952
412.73179	0.03940
410.80314	0.03921
408.87449	0.03894
406.94583	0.03870
405.01718	0.03847
403.08853	0.03817
401.15987	0.03778
399.23122	0.03740
