3996.16951	0.06120
3994.24086	0.06082
3992.31221	0.06124
3990.38355	0.06217
3988.45490	0.06280
3986.52625	0.06279
3984.59759	0.06249
3982.66894	0.06246
3980.74029	0.06276
3978.81163	0.06284
3976.88298	0.06233
3974.95433	0.06146
3973.02567	0.06086
3971.09702	0.06053
3969.16837	0.06008
3967.23972	0.05983
3965.31106	0.06015
3963.38241	0.06077
3961.45376	0.06129
3959.52510	0.06137
3957.59645	0.06095
3955.66780	0.06047
3953.73914	0.06052
3951.81049	0.06096
3949.88184	0.06112
3947.95318	0.06084
3946.02453	0.06053
3944.09588	0.06052
3942.16722	0.06085
3940.23857	0.06119
3938.30992	0.06110
3936.38126	0.06044
3934.45261	0.05949
3932.52396	0.05886
3930.59530	0.05887
3928.66665	0.05921
3926.73800	0.05930
3924.80934	0.05903
3922.88069	0.05883
3920.95204	0.05905
3919.02338	0.05961
3917.09473	0.05992
3915.16608	0.05969
3913.23742	0.05947
3911.30877	0.05956
3909.38012	0.05948
3907.45146	0.05897
3905.52281	0.05855
3903.59416	0.05872
3901.66550	0.05905
3899.73685	0.05886
3897.80820	0.05831
3895.87955	0.05780
3893.95089	0.05754
3892.02224	0.05764
3890.09359	0.05801
3888.16493	0.05844
3886.23628	0.05870
3884.30763	0.05847
3882.37897	0.05781
3880.45032	0.05720
3878.52167	0.05692
3876.59301	0.05705
3874.66436	0.05748
3872.73571	0.05783
3870.80705	0.05792
3868.87840	0.05803
3866.94975	0.05843
3865.02109	0.05876
3863.09244	0.05867
3861.16379	0.05804
3859.23513	0.05713
3857.30648	0.05669
3855.37783	0.05685
3853.44917	0.05685
3851.52052	0.05650
3849.59187	0.05634
3847.66321	0.05661
3845.73456	0.05718
3843.80591	0.05751
3841.87725	0.05714
3839.94860	0.05636
3838.01995	0.05580
3836.09129	0.05569
3834.16264	0.05577
3832.23399	0.05570
3830.30534	0.05568
3828.37668	0.05594
3826.44803	0.05592
3824.51938	0.05541
3822.59072	0.05505
3820.66207	0.05502
3818.73342	0.05505
3816.80476	0.05510
3814.87611	0.05520
3812.94746	0.05541
3811.01880	0.05557
3809.09015	0.05540
3807.16150	0.05518
3805.23284	0.05509
3803.30419	0.05493
3801.37554	0.05485
3799.44688	0.05497
3797.51823	0.05502
3795.58958	0.05513
3793.66092	0.05531
3791.73227	0.05511
3789.80362	0.05449
3787.87496	0.05377
3785.94631	0.05308
3784.01766	0.05242
3782.08900	0.05224
3780.16035	0.05254
3778.23170	0.05276
3776.30304	0.05288
3774.37439	0.05297
3772.44574	0.05277
3770.51708	0.05244
3768.58843	0.05253
3766.65978	0.05288
3764.73112	0.05278
3762.80247	0.05200
3760.87382	0.05118
3758.94517	0.05112
3757.01651	0.05167
3755.08786	0.05221
3753.15921	0.05282
3751.23055	0.05350
3749.30190	0.05358
3747.37325	0.05283
3745.44459	0.05187
3743.51594	0.05147
3741.58729	0.05168
3739.65863	0.05195
3737.72998	0.05192
3735.80133	0.05169
3733.87267	0.05144
3731.94402	0.05125
3730.01537	0.05077
3728.08671	0.05019
3726.15806	0.05037
3724.22941	0.05090
3722.30075	0.05084
3720.37210	0.05048
3718.44345	0.05031
3716.51479	0.05029
3714.58614	0.05012
3712.65749	0.04980
3710.72883	0.04979
3708.80018	0.05030
3706.87153	0.05082
3704.94287	0.05060
3703.01422	0.04963
3701.08557	0.04877
3699.15691	0.04845
3697.22826	0.04852
3695.29961	0.04899
3693.37095	0.04949
3691.44230	0.04972
3689.51365	0.04989
3687.58500	0.04987
3685.65634	0.04938
3683.72769	0.04860
3681.79904	0.04798
3679.87038	0.04801
3677.94173	0.04862
3676.01308	0.04919
3674.08442	0.04957
3672.15577	0.05005
3670.22712	0.05046
3668.29846	0.05013
3666.36981	0.04929
3664.44116	0.04897
3662.51250	0.04938
3660.58385	0.04983
3658.65520	0.05025
3656.72654	0.05063
3654.79789	0.05070
3652.86924	0.05069
3650.94058	0.05086
3649.01193	0.05122
3647.08328	0.05170
3645.15462	0.05193
3643.22597	0.05197
3641.29732	0.05254
3639.36866	0.05360
3637.44001	0.05426
3635.51136	0.05414
3633.58270	0.05380
3631.65405	0.05386
3629.72540	0.05419
3627.79674	0.05450
3625.86809	0.05490
3623.93944	0.05549
3622.01079	0.05609
3620.08213	0.05688
3618.15348	0.05792
3616.22483	0.05854
3614.29617	0.05872
3612.36752	0.05909
3610.43887	0.05960
3608.51021	0.05993
3606.58156	0.06024
3604.65291	0.06065
3602.72425	0.06107
3600.79560	0.06127
3598.86695	0.06131
3596.93829	0.06148
3595.00964	0.06203
3593.08099	0.06305
3591.15233	0.06419
3589.22368	0.06491
3587.29503	0.06512
3585.36637	0.06536
3583.43772	0.06603
3581.50907	0.06685
3579.58041	0.06761
3577.65176	0.06843
3575.72311	0.06921
3573.79445	0.06986
3571.86580	0.07043
3569.93715	0.07087
3568.00849	0.07131
3566.07984	0.07241
3564.15119	0.07410
3562.22253	0.07518
3560.29388	0.07522
3558.36523	0.07509
3556.43657	0.07537
3554.50792	0.07592
3552.57927	0.07665
3550.65062	0.07757
3548.72196	0.07854
3546.79331	0.07929
3544.86466	0.07990
3542.93600	0.08076
3541.00735	0.08189
3539.07870	0.08301
3537.15004	0.08384
3535.22139	0.08406
3533.29274	0.08389
3531.36408	0.08399
3529.43543	0.08460
3527.50678	0.08561
3525.57812	0.08701
3523.64947	0.08832
3521.72082	0.08902
3519.79216	0.08925
3517.86351	0.08944
3515.93486	0.08990
3514.00620	0.09062
3512.07755	0.09140
3510.14890	0.09216
3508.22024	0.09298
3506.29159	0.09373
3504.36294	0.09415
3502.43428	0.09435
3500.50563	0.09464
3498.57698	0.09494
3496.64832	0.09531
3494.71967	0.09616
3492.79102	0.09723
3490.86236	0.09795
3488.93371	0.09859
3487.00506	0.09941
3485.07641	0.10017
3483.14775	0.10085
3481.21910	0.10134
3479.29045	0.10150
3477.36179	0.10170
3475.43314	0.10209
3473.50449	0.10270
3471.57583	0.10364
3469.64718	0.10455
3467.71853	0.10509
3465.78987	0.10541
3463.86122	0.10551
3461.93257	0.10546
3460.00391	0.10568
3458.07526	0.10646
3456.14661	0.10756
3454.21795	0.10853
3452.28930	0.10932
3450.36065	0.11008
3448.43199	0.11081
3446.50334	0.11142
3444.57469	0.11194
3442.64603	0.11245
3440.71738	0.11307
3438.78873	0.11387
3436.86007	0.11454
3434.93142	0.11506
3433.00277	0.11579
3431.07411	0.11656
3429.14546	0.11696
3427.21681	0.11726
3425.28815	0.11779
3423.35950	0.11830
3421.43085	0.11859
3419.50219	0.11885
3417.57354	0.11934
3415.64489	0.12000
3413.71624	0.12047
3411.78758	0.12079
3409.85893	0.12159
3407.93028	0.12280
3406.00162	0.12365
3404.07297	0.12371
3402.14432	0.12336
3400.21566	0.12345
3398.28701	0.12415
3396.35836	0.12498
3394.42970	0.12577
3392.50105	0.12659
3390.57240	0.12739
3388.64374	0.12824
3386.71509	0.12928
3384.78644	0.13024
3382.85778	0.13065
3380.92913	0.13073
3379.00048	0.13104
3377.07182	0.13181
3375.14317	0.13277
3373.21452	0.13354
3371.28586	0.13410
3369.35721	0.13471
3367.42856	0.13546
3365.49990	0.13645
3363.57125	0.13778
3361.64260	0.13915
3359.71394	0.14012
3357.78529	0.14097
3355.85664	0.14212
3353.92798	0.14335
3351.99933	0.14449
3350.07068	0.14572
3348.14202	0.14699
3346.21337	0.14828
3344.28472	0.14963
3342.35607	0.15086
3340.42741	0.15177
3338.49876	0.15251
3336.57011	0.15321
3334.64145	0.15374
3332.71280	0.15422
3330.78415	0.15500
3328.85549	0.15598
3326.92684	0.15673
3324.99819	0.15728
3323.06953	0.15793
3321.14088	0.15852
3319.21223	0.15887
3317.28357	0.15942
3315.35492	0.16046
3313.42627	0.16138
3311.49761	0.16186
3309.56896	0.16210
3307.64031	0.16217
3305.71165	0.16217
3303.78300	0.16223
3301.85435	0.16224
3299.92569	0.16222
3297.99704	0.16232
3296.06839	0.16254
3294.13973	0.16272
3292.21108	0.16262
3290.28243	0.16243
3288.35377	0.16257
3286.42512	0.16290
3284.49647	0.16285
3282.56781	0.16229
3280.63916	0.16172
3278.71051	0.16154
3276.78186	0.16151
3274.85320	0.16131
3272.92455	0.16110
3270.99590	0.16081
3269.06724	0.16013
3267.13859	0.15927
3265.20994	0.15862
3263.28128	0.15788
3261.35263	0.15696
3259.42398	0.15624
3257.49532	0.15558
3255.56667	0.15487
3253.63802	0.15442
3251.70936	0.15401
3249.78071	0.15344
3247.85206	0.15302
3245.92340	0.15275
3243.99475	0.15226
3242.06610	0.15160
3240.13744	0.15103
3238.20879	0.15056
3236.28014	0.15013
3234.35148	0.14978
3232.42283	0.14944
3230.49418	0.14895
3228.56552	0.14850
3226.63687	0.14808
3224.70822	0.14750
3222.77956	0.14692
3220.85091	0.14654
3218.92226	0.14628
3216.99360	0.14598
3215.06495	0.14576
3213.13630	0.14569
3211.20764	0.14532
3209.27899	0.14440
3207.35034	0.14337
3205.42169	0.14277
3203.49303	0.14258
3201.56438	0.14232
3199.63573	0.14165
3197.70707	0.14076
3195.77842	0.14014
3193.84977	0.13995
3191.92111	0.13956
3189.99246	0.13863
3188.06381	0.13770
3186.13515	0.13721
3184.20650	0.13681
3182.27785	0.13615
3180.34919	0.13528
3178.42054	0.13440
3176.49189	0.13369
3174.56323	0.13325
3172.63458	0.13283
3170.70593	0.13209
3168.77727	0.13102
3166.84862	0.12991
3164.91997	0.12883
3162.99131	0.12775
3161.06266	0.12690
3159.13401	0.12645
3157.20535	0.12612
3155.27670	0.12551
3153.34805	0.12465
3151.41939	0.12389
3149.49074	0.12337
3147.56209	0.12275
3145.63343	0.12180
3143.70478	0.12077
3141.77613	0.12001
3139.84748	0.11941
3137.91882	0.11863
3135.99017	0.11781
3134.06152	0.11735
3132.13286	0.11717
3130.20421	0.11680
3128.27556	0.11617
3126.34690	0.11566
3124.41825	0.11529
3122.48960	0.11501
3120.56094	0.11505
3118.63229	0.11541
3116.70364	0.11562
3114.77498	0.11533
3112.84633	0.11484
3110.91768	0.11458
3108.98902	0.11453
3107.06037	0.11440
3105.13172	0.11428
3103.20306	0.11429
3101.27441	0.11428
3099.34576	0.11424
3097.41710	0.11441
3095.48845	0.11476
3093.55980	0.11508
3091.63114	0.11526
3089.70249	0.11539
3087.77384	0.11574
3085.84518	0.11631
3083.91653	0.11657
3081.98788	0.11644
3080.05922	0.11651
3078.13057	0.11695
3076.20192	0.11733
3074.27326	0.11741
3072.34461	0.11728
3070.41596	0.11709
3068.48731	0.11678
3066.55865	0.11625
3064.63000	0.11567
3062.70135	0.11522
3060.77269	0.11484
3058.84404	0.11448
3056.91539	0.11418
3054.98673	0.11391
3053.05808	0.11352
3051.12943	0.11291
3049.20077	0.11219
3047.27212	0.11144
3045.34347	0.11082
3043.41481	0.11027
3041.48616	0.10956
3039.55751	0.10882
3037.62885	0.10826
3035.70020	0.10774
3033.77155	0.10702
3031.84289	0.10620
3029.91424	0.10545
3027.98559	0.10472
3026.05693	0.10411
3024.12828	0.10362
3022.19963	0.10306
3020.27097	0.10249
3018.34232	0.10215
3016.41367	0.10207
3014.48501	0.10198
3012.55636	0.10156
3010.62771	0.10090
3008.69905	0.10047
3006.77040	0.10049
3004.84175	0.10067
3002.91309	0.10077
3000.98444	0.10092
2999.05579	0.10108
2997.12714	0.10109
2995.19848	0.10092
2993.26983	0.10078
2991.34118	0.10101
2989.41252	0.10155
2987.48387	0.10199
2985.55522	0.10237
2983.62656	0.10285
2981.69791	0.10338
2979.76926	0.10392
2977.84060	0.10452
2975.91195	0.10518
2973.98330	0.10575
2972.05464	0.10616
2970.12599	0.10649
2968.19734	0.10689
2966.26868	0.10744
2964.34003	0.10820
2962.41138	0.10895
2960.48272	0.10940
2958.55407	0.10959
2956.62542	0.10974
2954.69676	0.10996
2952.76811	0.11025
2950.83946	0.11052
2948.91080	0.11079
2946.98215	0.11106
2945.05350	0.11129
2943.12484	0.11169
2941.19619	0.11261
2939.26754	0.11381
2937.33888	0.11484
2935.41023	0.11565
2933.48158	0.11643
2931.55293	0.11728
2929.62427	0.11806
2927.69562	0.11865
2925.76697	0.11904
2923.83831	0.11911
2921.90966	0.11867
2919.98101	0.11780
2918.05235	0.11673
2916.12370	0.11542
2914.19505	0.11373
2912.26639	0.11171
2910.33774	0.10967
2908.40909	0.10798
2906.48043	0.10676
2904.55178	0.10583
2902.62313	0.10493
2900.69447	0.10393
2898.76582	0.10300
2896.83717	0.10229
2894.90851	0.10178
2892.97986	0.10141
2891.05121	0.10099
2889.12255	0.10048
2887.19390	0.10012
2885.26525	0.10008
2883.33659	0.10009
2881.40794	0.09989
2879.47929	0.09974
2877.55063	0.09977
2875.62198	0.09972
2873.69333	0.09953
2871.76467	0.09943
2869.83602	0.09940
2867.90737	0.09914
2865.97871	0.09857
2864.05006	0.09800
2862.12141	0.09761
2860.19276	0.09745
2858.26410	0.09751
2856.33545	0.09785
2854.40680	0.09831
2852.47814	0.09847
2850.54949	0.09789
2848.62084	0.09660
2846.69218	0.09486
2844.76353	0.09310
2842.83488	0.09169
2840.90622	0.09065
2838.97757	0.08972
2837.04892	0.08872
2835.12026	0.08780
2833.19161	0.08716
2831.26296	0.08682
2829.33430	0.08661
2827.40565	0.08617
2825.47700	0.08551
2823.54834	0.08500
2821.61969	0.08475
2819.69104	0.08456
2817.76238	0.08433
2815.83373	0.08410
2813.90508	0.08384
2811.97642	0.08346
2810.04777	0.08311
2808.11912	0.08284
2806.19046	0.08244
2804.26181	0.08199
2802.33316	0.08170
2800.40450	0.08155
2798.47585	0.08139
2796.54720	0.08119
2794.61855	0.08082
2792.68989	0.08034
2790.76124	0.08004
2788.83259	0.07992
2786.90393	0.07964
2784.97528	0.07919
2783.04663	0.07879
2781.11797	0.07847
2779.18932	0.07817
2777.26067	0.07794
2775.33201	0.07780
2773.40336	0.07764
2771.47471	0.07743
2769.54605	0.07712
2767.61740	0.07669
2765.68875	0.07625
2763.76009	0.07589
2761.83144	0.07563
2759.90279	0.07548
2757.97413	0.07540
2756.04548	0.07538
2754.11683	0.07533
2752.18817	0.07521
2750.25952	0.07501
2748.33087	0.07468
2746.40221	0.07435
2744.47356	0.07418
2742.54491	0.07407
2740.61625	0.07386
2738.68760	0.07351
2736.75895	0.07312
2734.83029	0.07277
2732.90164	0.07244
2730.97299	0.07218
2729.04433	0.07207
2727.11568	0.07201
2725.18703	0.07186
2723.25838	0.07149
2721.32972	0.07095
2719.40107	0.07059
2717.47242	0.07044
2715.54376	0.07033
2713.61511	0.07026
2711.68646	0.07022
2709.75780	0.07003
2707.82915	0.06968
2705.90050	0.06935
2703.97184	0.06909
2702.04319	0.06890
2700.11454	0.06890
2698.18588	0.06897
2696.25723	0.06883
2694.32858	0.06851
2692.39992	0.06820
2690.47127	0.06798
2688.54262	0.06790
2686.61396	0.06796
2684.68531	0.06790
2682.75666	0.06761
2680.82800	0.06731
2678.89935	0.06718
2676.97070	0.06713
2675.04204	0.06704
2673.11339	0.06697
2671.18474	0.06690
2669.25608	0.06669
2667.32743	0.06643
2665.39878	0.06627
2663.47012	0.06615
2661.54147	0.06599
2659.61282	0.06577
2657.68417	0.06552
2655.75551	0.06532
2653.82686	0.06504
2651.89821	0.06465
2649.96955	0.06424
2648.04090	0.06395
2646.11225	0.06378
2644.18359	0.06354
2642.25494	0.06318
2640.32629	0.06276
2638.39763	0.06216
2636.46898	0.06146
2634.54033	0.06095
2632.61167	0.06067
2630.68302	0.06049
2628.75437	0.06036
2626.82571	0.06018
2624.89706	0.05973
2622.96841	0.05904
2621.03975	0.05838
2619.11110	0.05789
2617.18245	0.05756
2615.25379	0.05724
2613.32514	0.05675
2611.39649	0.05621
2609.46783	0.05613
2607.53918	0.05653
2605.61053	0.05669
2603.68187	0.05627
2601.75322	0.05565
2599.82457	0.05518
2597.89591	0.05482
2595.96726	0.05451
2594.03861	0.05421
2592.10995	0.05379
2590.18130	0.05322
2588.25265	0.05277
2586.32400	0.05265
2584.39534	0.05257
2582.46669	0.05205
2580.53804	0.05154
2578.60938	0.05170
2576.68073	0.05195
2574.75208	0.05166
2572.82342	0.05105
2570.89477	0.05040
2568.96612	0.04982
2567.03746	0.04964
2565.10881	0.04999
2563.18016	0.05026
2561.25150	0.04993
2559.32285	0.04919
2557.39420	0.04861
2555.46554	0.04862
2553.53689	0.04898
2551.60824	0.04905
2549.67958	0.04881
2547.75093	0.04861
2545.82228	0.04851
2543.89362	0.04832
2541.96497	0.04809
2540.03632	0.04798
2538.10766	0.04801
2536.17901	0.04796
2534.25036	0.04769
2532.32170	0.04743
2530.39305	0.04740
2528.46440	0.04737
2526.53574	0.04705
2524.60709	0.04666
2522.67844	0.04650
2520.74978	0.04641
2518.82113	0.04613
2516.89248	0.04568
2514.96383	0.04540
2513.03517	0.04555
2511.10652	0.04588
2509.17787	0.04606
2507.24921	0.04606
2505.32056	0.04598
2503.39191	0.04604
2501.46325	0.04609
2499.53460	0.04570
2497.60595	0.04523
2495.67729	0.04522
2493.74864	0.04556
2491.81999	0.04569
2489.89133	0.04525
2487.96268	0.04472
2486.03403	0.04459
2484.10537	0.04465
2482.17672	0.04468
2480.24807	0.04453
2478.31941	0.04428
2476.39076	0.04424
2474.46211	0.04435
2472.53345	0.04426
2470.60480	0.04396
2468.67615	0.04385
2466.74749	0.04400
2464.81884	0.04423
2462.89019	0.04449
2460.96153	0.04467
2459.03288	0.04457
2457.10423	0.04420
2455.17557	0.04377
2453.24692	0.04338
2451.31827	0.04317
2449.38962	0.04320
2447.46096	0.04319
2445.53231	0.04296
2443.60366	0.04266
2441.67500	0.04250
2439.74635	0.04254
2437.81770	0.04273
2435.88904	0.04299
2433.96039	0.04317
2432.03174	0.04305
2430.10308	0.04267
2428.17443	0.04240
2426.24578	0.04246
2424.31712	0.04268
2422.38847	0.04275
2420.45982	0.04256
2418.53116	0.04238
2416.60251	0.04236
2414.67386	0.04237
2412.74520	0.04226
2410.81655	0.04216
2408.88790	0.04211
2406.95924	0.04212
2405.03059	0.04235
2403.10194	0.04261
2401.17328	0.04263
2399.24463	0.04243
2397.31598	0.04226
2395.38732	0.04240
2393.45867	0.04300
2391.53002	0.04373
2389.60136	0.04390
2387.67271	0.04344
2385.74406	0.04302
2383.81540	0.04299
2381.88675	0.04314
2379.95810	0.04324
2378.02945	0.04335
2376.10079	0.04343
2374.17214	0.04327
2372.24349	0.04301
2370.31483	0.04313
2368.38618	0.04286
2366.45753	0.04321
2364.52887	0.04350
2362.60022	0.04418
2360.67157	0.04389
2358.74291	0.04448
2356.81426	0.04364
2354.88561	0.04406
2352.95695	0.04459
2351.02830	0.04445
2349.09965	0.04455
2347.17099	0.04467
2345.24234	0.04459
2343.31369	0.04472
2341.38503	0.04527
2339.45638	0.04539
2337.52773	0.04512
2335.59907	0.04449
2333.67042	0.04375
2331.74177	0.04325
2329.81311	0.04307
2327.88446	0.04331
2325.95581	0.04400
2324.02715	0.04437
2322.09850	0.04407
2320.16985	0.04334
2318.24119	0.04268
2316.31254	0.04216
2314.38389	0.04174
2312.45524	0.04126
2310.52658	0.04084
2308.59793	0.04069
2306.66928	0.04044
2304.74062	0.03968
2302.81197	0.03878
2300.88332	0.03830
2298.95466	0.03811
2297.02601	0.03791
2295.09736	0.03766
2293.16870	0.03742
2291.24005	0.03706
2289.31140	0.03658
2287.38274	0.03615
2285.45409	0.03591
2283.52544	0.03562
2281.59678	0.03502
2279.66813	0.03425
2277.73948	0.03333
2275.81082	0.03225
2273.88217	0.03154
2271.95352	0.03151
2270.02486	0.03170
2268.09621	0.03156
2266.16756	0.03092
2264.23890	0.03001
2262.31025	0.02930
2260.38160	0.02912
2258.45294	0.02918
2256.52429	0.02904
2254.59564	0.02882
2252.66698	0.02860
2250.73833	0.02819
2248.80968	0.02787
2246.88102	0.02774
2244.95237	0.02759
2243.02372	0.02672
2241.09507	0.02585
2239.16641	0.02565
2237.23776	0.02539
2235.30911	0.02470
2233.38045	0.02424
2231.45180	0.02434
2229.52315	0.02458
2227.59449	0.02456
2225.66584	0.02433
2223.73719	0.02386
2221.80853	0.02289
2219.87988	0.02175
2217.95123	0.02116
2216.02257	0.02133
2214.09392	0.02178
2212.16527	0.02195
2210.23661	0.02172
2208.30796	0.02110
2206.37931	0.02031
2204.45065	0.01993
2202.52200	0.02005
2200.59335	0.02030
2198.66469	0.02047
2196.73604	0.02052
2194.80739	0.02036
2192.87873	0.01996
2190.95008	0.01943
2189.02143	0.01863
2187.09277	0.01788
2185.16412	0.01756
2183.23547	0.01714
2181.30681	0.01655
2179.37816	0.01650
2177.44951	0.01693
2175.52085	0.01714
2173.59220	0.01704
2171.66355	0.01703
2169.73490	0.01700
2167.80624	0.01623
2165.87759	0.01461
2163.94894	0.01331
2162.02028	0.01267
2160.09163	0.01116
2158.16298	0.00910
2156.23432	0.00920
2154.30567	0.01148
2152.37702	0.01363
2150.44836	0.01504
2148.51971	0.01604
2146.59106	0.01618
2144.66240	0.01557
2142.73375	0.01529
2140.80510	0.01577
2138.87644	0.01664
2136.94779	0.01745
2135.01914	0.01805
2133.09048	0.01871
2131.16183	0.01969
2129.23318	0.02084
2127.30452	0.02180
2125.37587	0.02249
2123.44722	0.02313
2121.51856	0.02369
2119.58991	0.02391
2117.66126	0.02401
2115.73260	0.02420
2113.80395	0.02399
2111.87530	0.02334
2109.94664	0.02280
2108.01799	0.02265
2106.08934	0.02252
2104.16069	0.02220
2102.23203	0.02215
2100.30338	0.02256
2098.37473	0.02276
2096.44607	0.02249
2094.51742	0.02220
2092.58877	0.02220
2090.66011	0.02245
2088.73146	0.02257
2086.80281	0.02232
2084.87415	0.02212
2082.94550	0.02214
2081.01685	0.02207
2079.08819	0.02188
2077.15954	0.02152
2075.23089	0.02101
2073.30223	0.02060
2071.37358	0.02004
2069.44493	0.01919
2067.51627	0.01835
2065.58762	0.01761
2063.65897	0.01723
2061.73031	0.01724
2059.80166	0.01709
2057.87301	0.01663
2055.94435	0.01620
2054.01570	0.01607
2052.08705	0.01608
2050.15839	0.01553
2048.22974	0.01413
2046.30109	0.01249
2044.37243	0.01149
2042.44378	0.01154
2040.51513	0.01194
2038.58647	0.01183
2036.65782	0.01126
2034.72917	0.01097
2032.80052	0.01113
2030.87186	0.01109
2028.94321	0.01061
2027.01456	0.01031
2025.08590	0.01050
2023.15725	0.01060
2021.22860	0.01045
2019.29994	0.01055
2017.37129	0.01073
2015.44264	0.01055
2013.51398	0.01029
2011.58533	0.01017
2009.65668	0.01009
2007.72802	0.01015
2005.79937	0.01059
2003.87072	0.01144
2001.94206	0.01252
2000.01341	0.01329
1998.08476	0.01324
1996.15610	0.01279
1994.22745	0.01242
1992.29880	0.01235
1990.37014	0.01266
1988.44149	0.01291
1986.51284	0.01305
1984.58418	0.01351
1982.65553	0.01384
1980.72688	0.01329
1978.79822	0.01201
1976.86957	0.01109
1974.94092	0.01132
1973.01226	0.01213
1971.08361	0.01252
1969.15496	0.01262
1967.22631	0.01309
1965.29765	0.01390
1963.36900	0.01447
1961.44035	0.01452
1959.51169	0.01442
1957.58304	0.01457
1955.65439	0.01474
1953.72573	0.01458
1951.79708	0.01446
1949.86843	0.01480
1947.93977	0.01537
1946.01112	0.01597
1944.08247	0.01657
1942.15381	0.01693
1940.22516	0.01706
1938.29651	0.01738
1936.36785	0.01792
1934.43920	0.01818
1932.51055	0.01796
1930.58189	0.01771
1928.65324	0.01790
1926.72459	0.01836
1924.79593	0.01876
1922.86728	0.01904
1920.93863	0.01913
1919.00997	0.01903
1917.08132	0.01901
1915.15267	0.01913
1913.22401	0.01925
1911.29536	0.01939
1909.36671	0.01972
1907.43805	0.01993
1905.50940	0.01979
1903.58075	0.01963
1901.65209	0.01961
1899.72344	0.01968
1897.79479	0.01996
1895.86614	0.02039
1893.93748	0.02067
1892.00883	0.02067
1890.08018	0.02049
1888.15152	0.02030
1886.22287	0.02015
1884.29422	0.02006
1882.36556	0.02008
1880.43691	0.02015
1878.50826	0.02027
1876.57960	0.02040
1874.65095	0.02044
1872.72230	0.02048
1870.79364	0.02074
1868.86499	0.02097
1866.93634	0.02087
1865.00768	0.02063
1863.07903	0.02059
1861.15038	0.02073
1859.22172	0.02083
1857.29307	0.02066
1855.36442	0.02040
1853.43576	0.02039
1851.50711	0.02055
1849.57846	0.02061
1847.64980	0.02063
1845.72115	0.02081
1843.79250	0.02105
1841.86384	0.02115
1839.93519	0.02111
1838.00654	0.02111
1836.07788	0.02116
1834.14923	0.02117
1832.22058	0.02118
1830.29192	0.02124
1828.36327	0.02131
1826.43462	0.02128
1824.50597	0.02126
1822.57731	0.02130
1820.64866	0.02131
1818.72001	0.02128
1816.79135	0.02125
1814.86270	0.02123
1812.93405	0.02122
1811.00539	0.02118
1809.07674	0.02107
1807.14809	0.02094
1805.21943	0.02102
1803.29078	0.02126
1801.36213	0.02141
1799.43347	0.02142
1797.50482	0.02146
1795.57617	0.02155
1793.64751	0.02162
1791.71886	0.02162
1789.79021	0.02151
1787.86155	0.02137
1785.93290	0.02133
1784.00425	0.02128
1782.07559	0.02112
1780.14694	0.02102
1778.21829	0.02106
1776.28963	0.02112
1774.36098	0.02118
1772.43233	0.02116
1770.50367	0.02097
1768.57502	0.02077
1766.64637	0.02069
1764.71771	0.02073
1762.78906	0.02084
1760.86041	0.02098
1758.93176	0.02115
1757.00310	0.02137
1755.07445	0.02157
1753.14580	0.02174
1751.21714	0.02199
1749.28849	0.02233
1747.35984	0.02256
1745.43118	0.02272
1743.50253	0.02304
1741.57388	0.02355
1739.64522	0.02405
1737.71657	0.02450
1735.78792	0.02499
1733.85926	0.02550
1731.93061	0.02587
1730.00196	0.02617
1728.07330	0.02659
1726.14465	0.02712
1724.21600	0.02770
1722.28734	0.02836
1720.35869	0.02911
1718.43004	0.02988
1716.50138	0.03062
1714.57273	0.03144
1712.64408	0.03253
1710.71542	0.03405
1708.78677	0.03588
1706.85812	0.03789
1704.92946	0.04010
1703.00081	0.04266
1701.07216	0.04565
1699.14350	0.04888
1697.21485	0.05211
1695.28620	0.05542
1693.35754	0.05890
1691.42889	0.06248
1689.50024	0.06617
1687.57159	0.07003
1685.64293	0.07409
1683.71428	0.07836
1681.78563	0.08276
1679.85697	0.08728
1677.92832	0.09206
1675.99967	0.09722
1674.07101	0.10267
1672.14236	0.10822
1670.21371	0.11382
1668.28505	0.11936
1666.35640	0.12474
1664.42775	0.13003
1662.49909	0.13520
1660.57044	0.14004
1658.64179	0.14432
1656.71313	0.14801
1654.78448	0.15128
1652.85583	0.15435
1650.92717	0.15707
1648.99852	0.15929
1647.06987	0.16123
1645.14121	0.16309
1643.21256	0.16476
1641.28391	0.16622
1639.35525	0.16748
1637.42660	0.16858
1635.49795	0.16956
1633.56929	0.17022
1631.64064	0.17026
1629.71199	0.16951
1627.78333	0.16792
1625.85468	0.16551
1623.92603	0.16229
1621.99738	0.15835
1620.06872	0.15393
1618.14007	0.14920
1616.21142	0.14426
1614.28276	0.13909
1612.35411	0.13377
1610.42546	0.12845
1608.49680	0.12326
1606.56815	0.11827
1604.63950	0.11363
1602.71084	0.10939
1600.78219	0.10545
1598.85354	0.10183
1596.92488	0.09864
1594.99623	0.09588
1593.06758	0.09349
1591.13892	0.09150
1589.21027	0.08990
1587.28162	0.08867
1585.35296	0.08785
1583.42431	0.08746
1581.49566	0.08754
1579.56700	0.08804
1577.63835	0.08893
1575.70970	0.09023
1573.78104	0.09191
1571.85239	0.09391
1569.92374	0.09631
1567.99508	0.09912
1566.06643	0.10217
1564.13778	0.10534
1562.20912	0.10855
1560.28047	0.11187
1558.35182	0.11521
1556.42316	0.11826
1554.49451	0.12087
1552.56586	0.12323
1550.63721	0.12545
1548.70855	0.12740
1546.77990	0.12892
1544.85125	0.13004
1542.92259	0.13089
1540.99394	0.13153
1539.06529	0.13188
1537.13663	0.13184
1535.20798	0.13153
1533.27933	0.13111
1531.35067	0.13052
1529.42202	0.12966
1527.49337	0.12859
1525.56471	0.12739
1523.63606	0.12613
1521.70741	0.12484
1519.77875	0.12347
1517.85010	0.12189
1515.92145	0.11998
1513.99279	0.11772
1512.06414	0.11518
1510.13549	0.11245
1508.20683	0.10959
1506.27818	0.10658
1504.34953	0.10339
1502.42087	0.10019
1500.49222	0.09712
1498.56357	0.09417
1496.63491	0.09125
1494.70626	0.08836
1492.77761	0.08562
1490.84895	0.08312
1488.92030	0.08087
1486.99165	0.07895
1485.06299	0.07747
1483.13434	0.07651
1481.20569	0.07606
1479.27704	0.07613
1477.34838	0.07666
1475.41973	0.07760
1473.49108	0.07891
1471.56242	0.08057
1469.63377	0.08244
1467.70512	0.08433
1465.77646	0.08619
1463.84781	0.08804
1461.91916	0.08991
1459.99050	0.09186
1458.06185	0.09397
1456.13320	0.09612
1454.20454	0.09791
1452.27589	0.09916
1450.34724	0.09993
1448.41858	0.10034
1446.48993	0.10033
1444.56128	0.09984
1442.63262	0.09899
1440.70397	0.09799
1438.77532	0.09690
1436.84666	0.09562
1434.91801	0.09409
1432.98936	0.09239
1431.06070	0.09073
1429.13205	0.08935
1427.20340	0.08834
1425.27474	0.08762
1423.34609	0.08713
1421.41744	0.08683
1419.48878	0.08672
1417.56013	0.08674
1415.63148	0.08683
1413.70283	0.08698
1411.77417	0.08713
1409.84552	0.08725
1407.91687	0.08734
1405.98821	0.08731
1404.05956	0.08704
1402.13091	0.08656
1400.20225	0.08591
1398.27360	0.08517
1396.34495	0.08436
1394.41629	0.08345
1392.48764	0.08255
1390.55899	0.08180
1388.63033	0.08116
1386.70168	0.08054
1384.77303	0.07992
1382.84437	0.07925
1380.91572	0.07853
1378.98707	0.07782
1377.05841	0.07711
1375.12976	0.07631
1373.20111	0.07542
1371.27245	0.07452
1369.34380	0.07355
1367.41515	0.07243
1365.48649	0.07122
1363.55784	0.07005
1361.62919	0.06908
1359.70053	0.06847
1357.77188	0.06818
1355.84323	0.06808
1353.91457	0.06820
1351.98592	0.06863
1350.05727	0.06934
1348.12861	0.07023
1346.19996	0.07120
1344.27131	0.07220
1342.34266	0.07314
1340.41400	0.07389
1338.48535	0.07438
1336.55670	0.07463
1334.62804	0.07459
1332.69939	0.07421
1330.77074	0.07354
1328.84208	0.07272
1326.91343	0.07189
1324.98478	0.07106
1323.05612	0.07029
1321.12747	0.06966
1319.19882	0.06919
1317.27016	0.06882
1315.34151	0.06845
1313.41286	0.06800
1311.48420	0.06749
1309.55555	0.06698
1307.62690	0.06650
1305.69824	0.06608
1303.76959	0.06579
1301.84094	0.06559
1299.91228	0.06542
1297.98363	0.06524
1296.05498	0.06507
1294.12632	0.06507
1292.19767	0.06533
1290.26902	0.06579
1288.34036	0.06637
1286.41171	0.06704
1284.48306	0.06770
1282.55440	0.06825
1280.62575	0.06865
1278.69710	0.06888
1276.76845	0.06896
1274.83979	0.06896
1272.91114	0.06898
1270.98249	0.06902
1269.05383	0.06910
1267.12518	0.06935
1265.19653	0.06979
1263.26787	0.07034
1261.33922	0.07097
1259.41057	0.07166
1257.48191	0.07240
1255.55326	0.07323
1253.62461	0.07418
1251.69595	0.07530
1249.76730	0.07648
1247.83865	0.07767
1245.90999	0.07887
1243.98134	0.08008
1242.05269	0.08124
1240.12403	0.08223
1238.19538	0.08291
1236.26673	0.08329
1234.33807	0.08340
1232.40942	0.08320
1230.48077	0.08267
1228.55211	0.08178
1226.62346	0.08054
1224.69481	0.07904
1222.76615	0.07744
1220.83750	0.07586
1218.90885	0.07439
1216.98019	0.07320
1215.05154	0.07237
1213.12289	0.07186
1211.19423	0.07159
1209.26558	0.07152
1207.33693	0.07173
1205.40828	0.07211
1203.47962	0.07239
1201.55097	0.07227
1199.62232	0.07175
1197.69366	0.07098
1195.76501	0.06993
1193.83636	0.06875
1191.90770	0.06765
1189.97905	0.06663
1188.05040	0.06565
1186.12174	0.06480
1184.19309	0.06418
1182.26444	0.06373
1180.33578	0.06333
1178.40713	0.06301
1176.47848	0.06286
1174.54982	0.06290
1172.62117	0.06298
1170.69252	0.06308
1168.76386	0.06336
1166.83521	0.06376
1164.90656	0.06408
1162.97790	0.06434
1161.04925	0.06455
1159.12060	0.06466
1157.19194	0.06462
1155.26329	0.06445
1153.33464	0.06410
1151.40598	0.06362
1149.47733	0.06311
1147.54868	0.06269
1145.62002	0.06238
1143.69137	0.06209
1141.76272	0.06177
1139.83406	0.06150
1137.90541	0.06145
1135.97676	0.06167
1134.04811	0.06196
1132.11945	0.06219
1130.19080	0.06246
1128.26215	0.06287
1126.33349	0.06322
1124.40484	0.06351
1122.47619	0.06395
1120.54753	0.06458
1118.61888	0.06520
1116.69023	0.06570
1114.76157	0.06616
1112.83292	0.06672
1110.90427	0.06742
1108.97561	0.06816
1107.04696	0.06876
1105.11831	0.06927
1103.18965	0.06992
1101.26100	0.07069
1099.33235	0.07140
1097.40369	0.07206
1095.47504	0.07278
1093.54639	0.07356
1091.61773	0.07441
1089.68908	0.07539
1087.76043	0.07646
1085.83177	0.07760
1083.90312	0.07876
1081.97447	0.07982
1080.04581	0.08059
1078.11716	0.08099
1076.18851	0.08110
1074.25985	0.08109
1072.33120	0.08106
1070.40255	0.08101
1068.47390	0.08098
1066.54524	0.08107
1064.61659	0.08125
1062.68794	0.08141
1060.75928	0.08151
1058.83063	0.08159
1056.90198	0.08167
1054.97332	0.08169
1053.04467	0.08160
1051.11602	0.08141
1049.18736	0.08123
1047.25871	0.08111
1045.33006	0.08108
1043.40140	0.08122
1041.47275	0.08151
1039.54410	0.08193
1037.61544	0.08248
1035.68679	0.08313
1033.75814	0.08388
1031.82948	0.08455
1029.90083	0.08485
1027.97218	0.08477
1026.04352	0.08444
1024.11487	0.08392
1022.18622	0.08329
1020.25756	0.08277
1018.32891	0.08239
1016.40026	0.08204
1014.47160	0.08162
1012.54295	0.08108
1010.61430	0.08038
1008.68564	0.07955
1006.75699	0.07870
1004.82834	0.07784
1002.89968	0.07698
1000.97103	0.07607
999.04238	0.07499
997.11373	0.07374
995.18507	0.07252
993.25642	0.07145
991.32777	0.07046
989.39911	0.06945
987.47046	0.06840
985.54181	0.06732
983.61315	0.06622
981.68450	0.06528
979.75585	0.06463
977.82719	0.06411
975.89854	0.06346
973.96989	0.06275
972.04123	0.06211
970.11258	0.06146
968.18393	0.06072
966.25527	0.06013
964.32662	0.05985
962.39797	0.05975
960.46931	0.05960
958.54066	0.05935
956.61201	0.05906
954.68335	0.05868
952.75470	0.05819
950.82605	0.05773
948.89739	0.05735
946.96874	0.05696
945.04009	0.05653
943.11143	0.05617
941.18278	0.05592
939.25413	0.05572
937.32547	0.05545
935.39682	0.05504
933.46817	0.05453
931.53952	0.05394
929.61086	0.05333
927.68221	0.05281
925.75356	0.05246
923.82490	0.05220
921.89625	0.05183
919.96760	0.05133
918.03894	0.05083
916.11029	0.05030
914.18164	0.04961
912.25298	0.04889
910.32433	0.04836
908.39568	0.04804
906.46702	0.04785
904.53837	0.04774
902.60972	0.04742
900.68106	0.04685
898.75241	0.04645
896.82376	0.04634
894.89510	0.04627
892.96645	0.04604
891.03780	0.04565
889.10914	0.04539
887.18049	0.04546
885.25184	0.04574
883.32318	0.04611
881.39453	0.04652
879.46588	0.04678
877.53722	0.04694
875.60857	0.04727
873.67992	0.04768
871.75126	0.04786
869.82261	0.04768
867.89396	0.04728
865.96530	0.04689
864.03665	0.04655
862.10800	0.04620
860.17935	0.04577
858.25069	0.04530
856.32204	0.04494
854.39339	0.04470
852.46473	0.04448
850.53608	0.04420
848.60743	0.04385
846.67877	0.04337
844.75012	0.04277
842.82147	0.04222
840.89281	0.04178
838.96416	0.04140
837.03551	0.04110
835.10685	0.04080
833.17820	0.04041
831.24955	0.04012
829.32089	0.04003
827.39224	0.03992
825.46359	0.03963
823.53493	0.03939
821.60628	0.03938
819.67763	0.03953
817.74897	0.03967
815.82032	0.03966
813.89167	0.03963
811.96301	0.03969
810.03436	0.03975
808.10571	0.03968
806.17705	0.03953
804.24840	0.03948
802.31975	0.03953
800.39109	0.03958
798.46244	0.03963
796.53379	0.03971
794.60513	0.03973
792.67648	0.03980
790.74783	0.03998
788.81918	0.04015
786.89052	0.04021
784.96187	0.04022
783.03322	0.04025
781.10456	0.04041
779.17591	0.04063
777.24726	0.04073
775.31860	0.04073
773.38995	0.04075
771.46130	0.04085
769.53264	0.04100
767.60399	0.04118
765.67534	0.04138
763.74668	0.04158
761.81803	0.04179
759.88938	0.04201
757.96072	0.04219
756.03207	0.04231
754.10342	0.04239
752.17476	0.04254
750.24611	0.04273
748.31746	0.04297
746.38880	0.04324
744.46015	0.04331
742.53150	0.04323
740.60284	0.04337
738.67419	0.04359
736.74554	0.04363
734.81688	0.04375
732.88823	0.04411
730.95958	0.04454
729.03092	0.04495
727.10227	0.04541
725.17362	0.04589
723.24497	0.04613
721.31631	0.04636
719.38766	0.04642
717.45901	0.04655
715.53035	0.04685
713.60170	0.04711
711.67305	0.04719
709.74439	0.04727
707.81574	0.04750
705.88709	0.04782
703.95843	0.04810
702.02978	0.04829
700.10113	0.04844
698.17247	0.04861
696.24382	0.04882
694.31517	0.04906
692.38651	0.04924
690.45786	0.04934
688.52921	0.04936
686.60055	0.04932
684.67190	0.04931
682.74325	0.04944
680.81459	0.04962
678.88594	0.04968
676.95729	0.04974
675.02863	0.04992
673.09998	0.05016
671.17133	0.05028
669.24267	0.05031
667.31402	0.05041
665.38537	0.05048
663.45671	0.05051
661.52806	0.05055
659.59941	0.05066
657.67075	0.05080
655.74210	0.05093
653.81345	0.05105
651.88480	0.05113
649.95614	0.05117
648.02749	0.05116
646.09884	0.05111
644.17018	0.05110
642.24153	0.05116
640.31288	0.05121
638.38422	0.05122
636.45557	0.05117
634.52692	0.05113
632.59826	0.05113
630.66961	0.05089
628.74096	0.05009
626.81230	0.05035
624.88365	0.05031
622.95500	0.04958
621.02634	0.05059
619.09769	0.05364
617.16904	0.05562
615.24038	0.05587
613.31173	0.05515
611.38308	0.05394
609.45442	0.05330
607.52577	0.05393
605.59712	0.05492
603.66846	0.05568
601.73981	0.05652
599.81116	0.05738
597.88250	0.05793
595.95385	0.05807
594.02520	0.05779
592.09654	0.05752
590.16789	0.05769
588.23924	0.05803
586.31059	0.05818
584.38193	0.05834
582.45328	0.05871
580.52463	0.05921
578.59597	0.05976
576.66732	0.06032
574.73867	0.06093
572.81001	0.06161
570.88136	0.06226
568.95271	0.06275
567.02405	0.06325
565.09540	0.06402
563.16675	0.06489
561.23809	0.06538
559.30944	0.06557
557.38079	0.06582
555.45213	0.06582
553.52348	0.06521
551.59483	0.06448
549.66617	0.06407
547.73752	0.06382
545.80887	0.06362
543.88021	0.06345
541.95156	0.06321
540.02291	0.06303
538.09425	0.06310
536.16560	0.06320
534.23695	0.06314
532.30829	0.06310
530.37964	0.06315
528.45099	0.06308
526.52233	0.06263
524.59368	0.06200
522.66503	0.06163
520.73637	0.06143
518.80772	0.06111
516.87907	0.06072
514.95042	0.06032
513.02176	0.05967
511.09311	0.05876
509.16446	0.05806
507.23580	0.05770
505.30715	0.05731
503.37850	0.05669
501.44984	0.05593
499.52119	0.05515
497.59254	0.05445
495.66388	0.05387
493.73523	0.05339
491.80658	0.05298
489.87792	0.05257
487.94927	0.05200
486.02062	0.05129
484.09196	0.05063
482.16331	0.05013
480.23466	0.04991
478.30600	0.04982
476.37735	0.04953
474.44870	0.04900
472.52004	0.04846
470.59139	0.04810
468.66274	0.04790
466.73408	0.04767
464.80543	0.04739
462.87678	0.04716
460.94812	0.04684
459.01947	0.04637
457.09082	0.04590
455.16216	0.04548
453.23351	0.04500
451.30486	0.04446
449.37620	0.04387
447.44755	0.04329
445.51890	0.04280
443.59025	0.04236
441.66159	0.04191
439.73294	0.04154
437.80429	0.04127
435.87563	0.04097
433.94698	0.04067
432.01833	0.04038
430.08967	0.04011
428.16102	0.03987
426.23237	0.03959
424.30371	0.03920
422.37506	0.03882
420.44641	0.03856
418.51775	0.03831
416.58910	0.03795
414.66045	0.03755
412.73179	0.03718
410.80314	0.03680
408.87449	0.03643
406.94583	0.03616
405.01718	0.03609
403.08853	0.03611
401.15987	0.03593
399.23122	0.03555
