3996.16951	0.05992
3994.24086	0.05931
3992.31221	0.05982
3990.38355	0.06048
3988.45490	0.06052
3986.52625	0.06052
3984.59759	0.06078
3982.66894	0.06083
3980.74029	0.06055
3978.81163	0.06022
3976.88298	0.05986
3974.95433	0.05960
3973.02567	0.05960
3971.09702	0.05952
3969.16837	0.05936
3967.23972	0.05934
3965.31106	0.05944
3963.38241	0.05991
3961.45376	0.06071
3959.52510	0.06110
3957.59645	0.06056
3955.66780	0.05966
3953.73914	0.05927
3951.81049	0.05922
3949.88184	0.05897
3947.95318	0.05861
3946.02453	0.05837
3944.09588	0.05849
3942.16722	0.05919
3940.23857	0.05977
3938.30992	0.05935
3936.38126	0.05839
3934.45261	0.05790
3932.52396	0.05798
3930.59530	0.05822
3928.66665	0.05827
3926.73800	0.05781
3924.80934	0.05719
3922.88069	0.05704
3920.95204	0.05730
3919.02338	0.05759
3917.09473	0.05771
3915.16608	0.05790
3913.23742	0.05856
3911.30877	0.05915
3909.38012	0.05880
3907.45146	0.05796
3905.52281	0.05763
3903.59416	0.05791
3901.66550	0.05798
3899.73685	0.05722
3897.80820	0.05633
3895.87955	0.05609
3893.95089	0.05622
3892.02224	0.05633
3890.09359	0.05666
3888.16493	0.05717
3886.23628	0.05731
3884.30763	0.05674
3882.37897	0.05573
3880.45032	0.05491
3878.52167	0.05472
3876.59301	0.05496
3874.66436	0.05520
3872.73571	0.05541
3870.80705	0.05577
3868.87840	0.05630
3866.94975	0.05674
3865.02109	0.05688
3863.09244	0.05655
3861.16379	0.05565
3859.23513	0.05491
3857.30648	0.05519
3855.37783	0.05591
3853.44917	0.05595
3851.52052	0.05558
3849.59187	0.05530
3847.66321	0.05510
3845.73456	0.05528
3843.80591	0.05560
3841.87725	0.05530
3839.94860	0.05447
3838.01995	0.05383
3836.09129	0.05371
3834.16264	0.05376
3832.23399	0.05367
3830.30534	0.05366
3828.37668	0.05389
3826.44803	0.05410
3824.51938	0.05419
3822.59072	0.05429
3820.66207	0.05426
3818.73342	0.05407
3816.80476	0.05400
3814.87611	0.05415
3812.94746	0.05420
3811.01880	0.05390
3809.09015	0.05346
3807.16150	0.05317
3805.23284	0.05289
3803.30419	0.05250
3801.37554	0.05250
3799.44688	0.05308
3797.51823	0.05344
3795.58958	0.05327
3793.66092	0.05315
3791.73227	0.05342
3789.80362	0.05354
3787.87496	0.05296
3785.94631	0.05186
3784.01766	0.05094
3782.08900	0.05074
3780.16035	0.05107
3778.23170	0.05151
3776.30304	0.05189
3774.37439	0.05199
3772.44574	0.05181
3770.51708	0.05158
3768.58843	0.05155
3766.65978	0.05184
3764.73112	0.05180
3762.80247	0.05083
3760.87382	0.04976
3758.94517	0.04976
3757.01651	0.05051
3755.08786	0.05111
3753.15921	0.05155
3751.23055	0.05179
3749.30190	0.05163
3747.37325	0.05125
3745.44459	0.05088
3743.51594	0.05060
3741.58729	0.05046
3739.65863	0.05037
3737.72998	0.05028
3735.80133	0.05022
3733.87267	0.05018
3731.94402	0.04990
3730.01537	0.04950
3728.08671	0.04956
3726.15806	0.04993
3724.22941	0.04974
3722.30075	0.04906
3720.37210	0.04864
3718.44345	0.04870
3716.51479	0.04888
3714.58614	0.04883
3712.65749	0.04867
3710.72883	0.04885
3708.80018	0.04926
3706.87153	0.04956
3704.94287	0.04969
3703.01422	0.04969
3701.08557	0.04942
3699.15691	0.04871
3697.22826	0.04799
3695.29961	0.04776
3693.37095	0.04797
3691.44230	0.04840
3689.51365	0.04882
3687.58500	0.04888
3685.65634	0.04858
3683.72769	0.04827
3681.79904	0.04830
3679.87038	0.04868
3677.94173	0.04913
3676.01308	0.04946
3674.08442	0.04972
3672.15577	0.05009
3670.22712	0.05051
3668.29846	0.05045
3666.36981	0.05006
3664.44116	0.05023
3662.51250	0.05087
3660.58385	0.05123
3658.65520	0.05139
3656.72654	0.05165
3654.79789	0.05205
3652.86924	0.05263
3650.94058	0.05318
3649.01193	0.05355
3647.08328	0.05387
3645.15462	0.05422
3643.22597	0.05496
3641.29732	0.05606
3639.36866	0.05676
3637.44001	0.05691
3635.51136	0.05696
3633.58270	0.05711
3631.65405	0.05765
3629.72540	0.05871
3627.79674	0.05967
3625.86809	0.06024
3623.93944	0.06104
3622.01079	0.06222
3620.08213	0.06338
3618.15348	0.06437
3616.22483	0.06516
3614.29617	0.06592
3612.36752	0.06676
3610.43887	0.06751
3608.51021	0.06820
3606.58156	0.06887
3604.65291	0.06951
3602.72425	0.07030
3600.79560	0.07132
3598.86695	0.07235
3596.93829	0.07298
3595.00964	0.07333
3593.08099	0.07409
3591.15233	0.07530
3589.22368	0.07629
3587.29503	0.07684
3585.36637	0.07750
3583.43772	0.07866
3581.50907	0.07985
3579.58041	0.08061
3577.65176	0.08141
3575.72311	0.08282
3573.79445	0.08454
3571.86580	0.08590
3569.93715	0.08663
3568.00849	0.08721
3566.07984	0.08819
3564.15119	0.08932
3562.22253	0.09026
3560.29388	0.09113
3558.36523	0.09227
3556.43657	0.09376
3554.50792	0.09512
3552.57927	0.09598
3550.65062	0.09648
3548.72196	0.09691
3546.79331	0.09758
3544.86466	0.09889
3542.93600	0.10070
3541.00735	0.10223
3539.07870	0.10336
3537.15004	0.10444
3535.22139	0.10529
3533.29274	0.10577
3531.36408	0.10616
3529.43543	0.10676
3527.50678	0.10799
3525.57812	0.10989
3523.64947	0.11160
3521.72082	0.11241
3519.79216	0.11272
3517.86351	0.11337
3515.93486	0.11441
3514.00620	0.11533
3512.07755	0.11631
3510.14890	0.11776
3508.22024	0.11920
3506.29159	0.11981
3504.36294	0.11985
3502.43428	0.12028
3500.50563	0.12126
3498.57698	0.12237
3496.64832	0.12367
3494.71967	0.12530
3492.79102	0.12658
3490.86236	0.12703
3488.93371	0.12719
3487.00506	0.12758
3485.07641	0.12833
3483.14775	0.12948
3481.21910	0.13051
3479.29045	0.13088
3477.36179	0.13108
3475.43314	0.13185
3473.50449	0.13302
3471.57583	0.13415
3469.64718	0.13500
3467.71853	0.13557
3465.78987	0.13617
3463.86122	0.13713
3461.93257	0.13825
3460.00391	0.13913
3458.07526	0.13989
3456.14661	0.14075
3454.21795	0.14161
3452.28930	0.14230
3450.36065	0.14300
3448.43199	0.14404
3446.50334	0.14533
3444.57469	0.14636
3442.64603	0.14706
3440.71738	0.14788
3438.78873	0.14893
3436.86007	0.14990
3434.93142	0.15076
3433.00277	0.15179
3431.07411	0.15284
3429.14546	0.15349
3427.21681	0.15402
3425.28815	0.15485
3423.35950	0.15580
3421.43085	0.15671
3419.50219	0.15758
3417.57354	0.15819
3415.64489	0.15850
3413.71624	0.15889
3411.78758	0.15980
3409.85893	0.16120
3407.93028	0.16258
3406.00162	0.16357
3404.07297	0.16420
3402.14432	0.16470
3400.21566	0.16540
3398.28701	0.16621
3396.35836	0.16691
3394.42970	0.16775
3392.50105	0.16876
3390.57240	0.16969
3388.64374	0.17073
3386.71509	0.17210
3384.78644	0.17346
3382.85778	0.17466
3380.92913	0.17587
3379.00048	0.17692
3377.07182	0.17782
3375.14317	0.17879
3373.21452	0.17968
3371.28586	0.18042
3369.35721	0.18140
3367.42856	0.18286
3365.49990	0.18442
3363.57125	0.18589
3361.64260	0.18756
3359.71394	0.18939
3357.78529	0.19111
3355.85664	0.19275
3353.92798	0.19412
3351.99933	0.19508
3350.07068	0.19618
3348.14202	0.19805
3346.21337	0.20026
3344.28472	0.20198
3342.35607	0.20314
3340.42741	0.20418
3338.49876	0.20530
3336.57011	0.20643
3334.64145	0.20751
3332.71280	0.20854
3330.78415	0.20964
3328.85549	0.21091
3326.92684	0.21226
3324.99819	0.21353
3323.06953	0.21461
3321.14088	0.21534
3319.21223	0.21576
3317.28357	0.21621
3315.35492	0.21667
3313.42627	0.21709
3311.49761	0.21764
3309.56896	0.21828
3307.64031	0.21895
3305.71165	0.21952
3303.78300	0.21966
3301.85435	0.21961
3299.92569	0.21995
3297.99704	0.22044
3296.06839	0.22060
3294.13973	0.22053
3292.21108	0.22022
3290.28243	0.21972
3288.35377	0.21957
3286.42512	0.21998
3284.49647	0.22035
3282.56781	0.22026
3280.63916	0.21992
3278.71051	0.21961
3276.78186	0.21925
3274.85320	0.21878
3272.92455	0.21833
3270.99590	0.21794
3269.06724	0.21734
3267.13859	0.21640
3265.20994	0.21539
3263.28128	0.21447
3261.35263	0.21351
3259.42398	0.21246
3257.49532	0.21120
3255.56667	0.20988
3253.63802	0.20906
3251.70936	0.20878
3249.78071	0.20859
3247.85206	0.20833
3245.92340	0.20793
3243.99475	0.20733
3242.06610	0.20660
3240.13744	0.20562
3238.20879	0.20441
3236.28014	0.20353
3234.35148	0.20335
3232.42283	0.20327
3230.49418	0.20261
3228.56552	0.20157
3226.63687	0.20085
3224.70822	0.20052
3222.77956	0.20018
3220.85091	0.19967
3218.92226	0.19896
3216.99360	0.19790
3215.06495	0.19682
3213.13630	0.19642
3211.20764	0.19639
3209.27899	0.19584
3207.35034	0.19502
3205.42169	0.19453
3203.49303	0.19426
3201.56438	0.19378
3199.63573	0.19293
3197.70707	0.19175
3195.77842	0.19041
3193.84977	0.18932
3191.92111	0.18862
3189.99246	0.18798
3188.06381	0.18717
3186.13515	0.18615
3184.20650	0.18495
3182.27785	0.18386
3180.34919	0.18289
3178.42054	0.18180
3176.49189	0.18073
3174.56323	0.17984
3172.63458	0.17874
3170.70593	0.17727
3168.77727	0.17601
3166.84862	0.17519
3164.91997	0.17440
3162.99131	0.17310
3161.06266	0.17140
3159.13401	0.16997
3157.20535	0.16886
3155.27670	0.16766
3153.34805	0.16657
3151.41939	0.16574
3149.49074	0.16485
3147.56209	0.16373
3145.63343	0.16265
3143.70478	0.16178
3141.77613	0.16102
3139.84748	0.16011
3137.91882	0.15907
3135.99017	0.15811
3134.06152	0.15728
3132.13286	0.15666
3130.20421	0.15616
3128.27556	0.15540
3126.34690	0.15451
3124.41825	0.15392
3122.48960	0.15370
3120.56094	0.15374
3118.63229	0.15385
3116.70364	0.15376
3114.77498	0.15342
3112.84633	0.15323
3110.91768	0.15342
3108.98902	0.15350
3107.06037	0.15322
3105.13172	0.15321
3103.20306	0.15363
3101.27441	0.15392
3099.34576	0.15400
3097.41710	0.15423
3095.48845	0.15465
3093.55980	0.15511
3091.63114	0.15548
3089.70249	0.15583
3087.77384	0.15631
3085.84518	0.15675
3083.91653	0.15690
3081.98788	0.15698
3080.05922	0.15736
3078.13057	0.15785
3076.20192	0.15809
3074.27326	0.15803
3072.34461	0.15777
3070.41596	0.15738
3068.48731	0.15700
3066.55865	0.15656
3064.63000	0.15594
3062.70135	0.15535
3060.77269	0.15488
3058.84404	0.15453
3056.91539	0.15424
3054.98673	0.15372
3053.05808	0.15278
3051.12943	0.15164
3049.20077	0.15056
3047.27212	0.14952
3045.34347	0.14848
3043.41481	0.14744
3041.48616	0.14641
3039.55751	0.14547
3037.62885	0.14463
3035.70020	0.14382
3033.77155	0.14302
3031.84289	0.14214
3029.91424	0.14103
3027.98559	0.13991
3026.05693	0.13923
3024.12828	0.13881
3022.19963	0.13812
3020.27097	0.13720
3018.34232	0.13648
3016.41367	0.13612
3014.48501	0.13582
3012.55636	0.13531
3010.62771	0.13471
3008.69905	0.13436
3006.77040	0.13436
3004.84175	0.13433
3002.91309	0.13404
3000.98444	0.13381
2999.05579	0.13399
2997.12714	0.13445
2995.19848	0.13472
2993.26983	0.13488
2991.34118	0.13530
2989.41252	0.13594
2987.48387	0.13648
2985.55522	0.13683
2983.62656	0.13716
2981.69791	0.13772
2979.76926	0.13841
2977.84060	0.13908
2975.91195	0.13979
2973.98330	0.14058
2972.05464	0.14136
2970.12599	0.14211
2968.19734	0.14304
2966.26868	0.14424
2964.34003	0.14548
2962.41138	0.14645
2960.48272	0.14720
2958.55407	0.14795
2956.62542	0.14868
2954.69676	0.14905
2952.76811	0.14896
2950.83946	0.14882
2948.91080	0.14905
2946.98215	0.14968
2945.05350	0.15054
2943.12484	0.15155
2941.19619	0.15288
2939.26754	0.15465
2937.33888	0.15662
2935.41023	0.15857
2933.48158	0.16040
2931.55293	0.16202
2929.62427	0.16346
2927.69562	0.16467
2925.76697	0.16556
2923.83831	0.16609
2921.90966	0.16624
2919.98101	0.16585
2918.05235	0.16440
2916.12370	0.16150
2914.19505	0.15769
2912.26639	0.15373
2910.33774	0.15011
2908.40909	0.14728
2906.48043	0.14518
2904.55178	0.14329
2902.62313	0.14143
2900.69447	0.13968
2898.76582	0.13817
2896.83717	0.13693
2894.90851	0.13591
2892.97986	0.13500
2891.05121	0.13412
2889.12255	0.13338
2887.19390	0.13283
2885.26525	0.13246
2883.33659	0.13220
2881.40794	0.13204
2879.47929	0.13209
2877.55063	0.13230
2875.62198	0.13238
2873.69333	0.13215
2871.76467	0.13182
2869.83602	0.13151
2867.90737	0.13092
2865.97871	0.13006
2864.05006	0.12934
2862.12141	0.12914
2860.19276	0.12955
2858.26410	0.13043
2856.33545	0.13151
2854.40680	0.13255
2852.47814	0.13314
2850.54949	0.13259
2848.62084	0.13063
2846.69218	0.12762
2844.76353	0.12424
2842.83488	0.12111
2840.90622	0.11859
2838.97757	0.11672
2837.04892	0.11523
2835.12026	0.11394
2833.19161	0.11283
2831.26296	0.11191
2829.33430	0.11119
2827.40565	0.11040
2825.47700	0.10948
2823.54834	0.10882
2821.61969	0.10846
2819.69104	0.10803
2817.76238	0.10740
2815.83373	0.10683
2813.90508	0.10633
2811.97642	0.10587
2810.04777	0.10550
2808.11912	0.10504
2806.19046	0.10438
2804.26181	0.10376
2802.33316	0.10333
2800.40450	0.10292
2798.47585	0.10246
2796.54720	0.10201
2794.61855	0.10159
2792.68989	0.10106
2790.76124	0.10045
2788.83259	0.10008
2786.90393	0.09988
2784.97528	0.09950
2783.04663	0.09892
2781.11797	0.09828
2779.18932	0.09764
2777.26067	0.09716
2775.33201	0.09686
2773.40336	0.09652
2771.47471	0.09615
2769.54605	0.09579
2767.61740	0.09530
2765.68875	0.09475
2763.76009	0.09417
2761.83144	0.09360
2759.90279	0.09323
2757.97413	0.09310
2756.04548	0.09302
2754.11683	0.09282
2752.18817	0.09245
2750.25952	0.09211
2748.33087	0.09167
2746.40221	0.09099
2744.47356	0.09045
2742.54491	0.09018
2740.61625	0.08989
2738.68760	0.08957
2736.75895	0.08937
2734.83029	0.08916
2732.90164	0.08877
2730.97299	0.08833
2729.04433	0.08793
2727.11568	0.08756
2725.18703	0.08719
2723.25838	0.08678
2721.32972	0.08635
2719.40107	0.08590
2717.47242	0.08540
2715.54376	0.08498
2713.61511	0.08475
2711.68646	0.08464
2709.75780	0.08447
2707.82915	0.08420
2705.90050	0.08384
2703.97184	0.08341
2702.04319	0.08300
2700.11454	0.08270
2698.18588	0.08249
2696.25723	0.08232
2694.32858	0.08203
2692.39992	0.08164
2690.47127	0.08144
2688.54262	0.08150
2686.61396	0.08150
2684.68531	0.08124
2682.75666	0.08077
2680.82800	0.08035
2678.89935	0.08018
2676.97070	0.08007
2675.04204	0.07984
2673.11339	0.07963
2671.18474	0.07957
2669.25608	0.07952
2667.32743	0.07939
2665.39878	0.07918
2663.47012	0.07888
2661.54147	0.07856
2659.61282	0.07823
2657.68417	0.07787
2655.75551	0.07752
2653.82686	0.07719
2651.89821	0.07683
2649.96955	0.07639
2648.04090	0.07586
2646.11225	0.07544
2644.18359	0.07511
2642.25494	0.07462
2640.32629	0.07401
2638.39763	0.07343
2636.46898	0.07274
2634.54033	0.07203
2632.61167	0.07159
2630.68302	0.07127
2628.75437	0.07082
2626.82571	0.07045
2624.89706	0.07011
2622.96841	0.06960
2621.03975	0.06907
2619.11110	0.06855
2617.18245	0.06781
2615.25379	0.06692
2613.32514	0.06616
2611.39649	0.06576
2609.46783	0.06580
2607.53918	0.06602
2605.61053	0.06608
2603.68187	0.06584
2601.75322	0.06518
2599.82457	0.06424
2597.89591	0.06353
2595.96726	0.06308
2594.03861	0.06263
2592.10995	0.06226
2590.18130	0.06202
2588.25265	0.06176
2586.32400	0.06160
2584.39534	0.06151
2582.46669	0.06109
2580.53804	0.06044
2578.60938	0.06005
2576.68073	0.05976
2574.75208	0.05924
2572.82342	0.05867
2570.89477	0.05824
2568.96612	0.05794
2567.03746	0.05785
2565.10881	0.05802
2563.18016	0.05824
2561.25150	0.05811
2559.32285	0.05750
2557.39420	0.05673
2555.46554	0.05618
2553.53689	0.05602
2551.60824	0.05608
2549.67958	0.05611
2547.75093	0.05612
2545.82228	0.05616
2543.89362	0.05610
2541.96497	0.05584
2540.03632	0.05533
2538.10766	0.05491
2536.17901	0.05486
2534.25036	0.05475
2532.32170	0.05430
2530.39305	0.05389
2528.46440	0.05379
2526.53574	0.05395
2524.60709	0.05422
2522.67844	0.05426
2520.74978	0.05391
2518.82113	0.05350
2516.89248	0.05325
2514.96383	0.05322
2513.03517	0.05342
2511.10652	0.05354
2509.17787	0.05352
2507.24921	0.05365
2505.32056	0.05374
2503.39191	0.05351
2501.46325	0.05309
2499.53460	0.05266
2497.60595	0.05227
2495.67729	0.05199
2493.74864	0.05197
2491.81999	0.05205
2489.89133	0.05195
2487.96268	0.05180
2486.03403	0.05161
2484.10537	0.05131
2482.17672	0.05115
2480.24807	0.05103
2478.31941	0.05078
2476.39076	0.05062
2474.46211	0.05061
2472.53345	0.05073
2470.60480	0.05102
2468.67615	0.05130
2466.74749	0.05137
2464.81884	0.05120
2462.89019	0.05107
2460.96153	0.05116
2459.03288	0.05123
2457.10423	0.05109
2455.17557	0.05080
2453.24692	0.05044
2451.31827	0.05008
2449.38962	0.04987
2447.46096	0.04986
2445.53231	0.04980
2443.60366	0.04968
2441.67500	0.04959
2439.74635	0.04943
2437.81770	0.04930
2435.88904	0.04941
2433.96039	0.04960
2432.03174	0.04968
2430.10308	0.04975
2428.17443	0.04973
2426.24578	0.04962
2424.31712	0.04950
2422.38847	0.04920
2420.45982	0.04882
2418.53116	0.04881
2416.60251	0.04920
2414.67386	0.04960
2412.74520	0.04970
2410.81655	0.04948
2408.88790	0.04922
2406.95924	0.04905
2405.03059	0.04897
2403.10194	0.04905
2401.17328	0.04931
2399.24463	0.04942
2397.31598	0.04933
2395.38732	0.04923
2393.45867	0.04937
2391.53002	0.04970
2389.60136	0.04996
2387.67271	0.05002
2385.74406	0.05002
2383.81540	0.04998
2381.88675	0.04980
2379.95810	0.04966
2378.02945	0.04971
2376.10079	0.04978
2374.17214	0.04976
2372.24349	0.04987
2370.31483	0.05016
2368.38618	0.05048
2366.45753	0.05074
2364.52887	0.05097
2362.60022	0.05119
2360.67157	0.05128
2358.74291	0.05111
2356.81426	0.05097
2354.88561	0.05119
2352.95695	0.05149
2351.02830	0.05145
2349.09965	0.05131
2347.17099	0.05138
2345.24234	0.05149
2343.31369	0.05142
2341.38503	0.05127
2339.45638	0.05120
2337.52773	0.05118
2335.59907	0.05097
2333.67042	0.05055
2331.74177	0.05022
2329.81311	0.05014
2327.88446	0.05043
2325.95581	0.05100
2324.02715	0.05122
2322.09850	0.05071
2320.16985	0.04987
2318.24119	0.04915
2316.31254	0.04845
2314.38389	0.04767
2312.45524	0.04683
2310.52658	0.04620
2308.59793	0.04586
2306.66928	0.04553
2304.74062	0.04496
2302.81197	0.04425
2300.88332	0.04377
2298.95466	0.04360
2297.02601	0.04338
2295.09736	0.04289
2293.16870	0.04219
2291.24005	0.04148
2289.31140	0.04104
2287.38274	0.04084
2285.45409	0.04071
2283.52544	0.04041
2281.59678	0.03974
2279.66813	0.03890
2277.73948	0.03808
2275.81082	0.03716
2273.88217	0.03652
2271.95352	0.03654
2270.02486	0.03682
2268.09621	0.03661
2266.16756	0.03558
2264.23890	0.03418
2262.31025	0.03304
2260.38160	0.03247
2258.45294	0.03242
2256.52429	0.03264
2254.59564	0.03277
2252.66698	0.03239
2250.73833	0.03154
2248.80968	0.03093
2246.88102	0.03043
2244.95237	0.03009
2243.02372	0.02963
2241.09507	0.02901
2239.16641	0.02837
2237.23776	0.02769
2235.30911	0.02714
2233.38045	0.02685
2231.45180	0.02682
2229.52315	0.02733
2227.59449	0.02805
2225.66584	0.02791
2223.73719	0.02689
2221.80853	0.02594
2219.87988	0.02537
2217.95123	0.02503
2216.02257	0.02495
2214.09392	0.02510
2212.16527	0.02523
2210.23661	0.02499
2208.30796	0.02443
2206.37931	0.02410
2204.45065	0.02417
2202.52200	0.02396
2200.59335	0.02326
2198.66469	0.02283
2196.73604	0.02311
2194.80739	0.02363
2192.87873	0.02393
2190.95008	0.02346
2189.02143	0.02200
2187.09277	0.02078
2185.16412	0.02044
2183.23547	0.01999
2181.30681	0.01931
2179.37816	0.01897
2177.44951	0.01864
2175.52085	0.01819
2173.59220	0.01824
2171.66355	0.01856
2169.73490	0.01836
2167.80624	0.01750
2165.87759	0.01608
2163.94894	0.01481
2162.02028	0.01392
2160.09163	0.01241
2158.16298	0.01113
2156.23432	0.01207
2154.30567	0.01421
2152.37702	0.01560
2150.44836	0.01642
2148.51971	0.01722
2146.59106	0.01744
2144.66240	0.01708
2142.73375	0.01714
2140.80510	0.01809
2138.87644	0.01933
2136.94779	0.02002
2135.01914	0.01996
2133.09048	0.01988
2131.16183	0.02095
2129.23318	0.02303
2127.30452	0.02456
2125.37587	0.02501
2123.44722	0.02534
2121.51856	0.02579
2119.58991	0.02584
2117.66126	0.02584
2115.73260	0.02627
2113.80395	0.02663
2111.87530	0.02635
2109.94664	0.02587
2108.01799	0.02585
2106.08934	0.02584
2104.16069	0.02535
2102.23203	0.02500
2100.30338	0.02522
2098.37473	0.02537
2096.44607	0.02502
2094.51742	0.02450
2092.58877	0.02415
2090.66011	0.02394
2088.73146	0.02379
2086.80281	0.02371
2084.87415	0.02379
2082.94550	0.02398
2081.01685	0.02405
2079.08819	0.02386
2077.15954	0.02338
2075.23089	0.02286
2073.30223	0.02260
2071.37358	0.02241
2069.44493	0.02213
2067.51627	0.02193
2065.58762	0.02179
2063.65897	0.02130
2061.73031	0.02021
2059.80166	0.01895
2057.87301	0.01855
2055.94435	0.01915
2054.01570	0.01963
2052.08705	0.01913
2050.15839	0.01786
2048.22974	0.01659
2046.30109	0.01566
2044.37243	0.01477
2042.44378	0.01401
2040.51513	0.01370
2038.58647	0.01352
2036.65782	0.01311
2034.72917	0.01292
2032.80052	0.01300
2030.87186	0.01250
2028.94321	0.01140
2027.01456	0.01072
2025.08590	0.01106
2023.15725	0.01182
2021.22860	0.01195
2019.29994	0.01139
2017.37129	0.01121
2015.44264	0.01152
2013.51398	0.01173
2011.58533	0.01214
2009.65668	0.01279
2007.72802	0.01283
2005.79937	0.01237
2003.87072	0.01270
2001.94206	0.01424
2000.01341	0.01544
1998.08476	0.01512
1996.15610	0.01426
1994.22745	0.01419
1992.29880	0.01484
1990.37014	0.01526
1988.44149	0.01508
1986.51284	0.01482
1984.58418	0.01491
1982.65553	0.01524
1980.72688	0.01502
1978.79822	0.01374
1976.86957	0.01221
1974.94092	0.01171
1973.01226	0.01235
1971.08361	0.01318
1969.15496	0.01363
1967.22631	0.01391
1965.29765	0.01421
1963.36900	0.01447
1961.44035	0.01458
1959.51169	0.01479
1957.58304	0.01544
1955.65439	0.01621
1953.72573	0.01661
1951.79708	0.01665
1949.86843	0.01690
1947.93977	0.01762
1946.01112	0.01841
1944.08247	0.01884
1942.15381	0.01906
1940.22516	0.01947
1938.29651	0.01994
1936.36785	0.02004
1934.43920	0.01982
1932.51055	0.01935
1930.58189	0.01886
1928.65324	0.01896
1926.72459	0.01962
1924.79593	0.02023
1922.86728	0.02072
1920.93863	0.02121
1919.00997	0.02148
1917.08132	0.02134
1915.15267	0.02112
1913.22401	0.02116
1911.29536	0.02132
1909.36671	0.02150
1907.43805	0.02176
1905.50940	0.02200
1903.58075	0.02214
1901.65209	0.02225
1899.72344	0.02244
1897.79479	0.02273
1895.86614	0.02294
1893.93748	0.02290
1892.00883	0.02269
1890.08018	0.02256
1888.15152	0.02264
1886.22287	0.02278
1884.29422	0.02288
1882.36556	0.02288
1880.43691	0.02268
1878.50826	0.02243
1876.57960	0.02243
1874.65095	0.02263
1872.72230	0.02277
1870.79364	0.02289
1868.86499	0.02309
1866.93634	0.02326
1865.00768	0.02328
1863.07903	0.02328
1861.15038	0.02330
1859.22172	0.02326
1857.29307	0.02311
1855.36442	0.02304
1853.43576	0.02320
1851.50711	0.02342
1849.57846	0.02353
1847.64980	0.02359
1845.72115	0.02372
1843.79250	0.02393
1841.86384	0.02414
1839.93519	0.02429
1838.00654	0.02432
1836.07788	0.02420
1834.14923	0.02408
1832.22058	0.02414
1830.29192	0.02431
1828.36327	0.02437
1826.43462	0.02433
1824.50597	0.02437
1822.57731	0.02443
1820.64866	0.02436
1818.72001	0.02433
1816.79135	0.02448
1814.86270	0.02472
1812.93405	0.02492
1811.00539	0.02503
1809.07674	0.02510
1807.14809	0.02519
1805.21943	0.02534
1803.29078	0.02553
1801.36213	0.02558
1799.43347	0.02548
1797.50482	0.02548
1795.57617	0.02566
1793.64751	0.02586
1791.71886	0.02591
1789.79021	0.02578
1787.86155	0.02564
1785.93290	0.02567
1784.00425	0.02576
1782.07559	0.02580
1780.14694	0.02585
1778.21829	0.02595
1776.28963	0.02604
1774.36098	0.02607
1772.43233	0.02607
1770.50367	0.02607
1768.57502	0.02614
1766.64637	0.02627
1764.71771	0.02642
1762.78906	0.02661
1760.86041	0.02686
1758.93176	0.02716
1757.00310	0.02755
1755.07445	0.02807
1753.14580	0.02868
1751.21714	0.02935
1749.28849	0.03006
1747.35984	0.03077
1745.43118	0.03148
1743.50253	0.03234
1741.57388	0.03338
1739.64522	0.03445
1737.71657	0.03548
1735.78792	0.03651
1733.85926	0.03755
1731.93061	0.03848
1730.00196	0.03935
1728.07330	0.04040
1726.14465	0.04163
1724.21600	0.04290
1722.28734	0.04423
1720.35869	0.04572
1718.43004	0.04746
1716.50138	0.04946
1714.57273	0.05165
1712.64408	0.05387
1710.71542	0.05605
1708.78677	0.05823
1706.85812	0.06056
1704.92946	0.06310
1703.00081	0.06601
1701.07216	0.06945
1699.14350	0.07336
1697.21485	0.07749
1695.28620	0.08185
1693.35754	0.08647
1691.42889	0.09124
1689.50024	0.09617
1687.57159	0.10137
1685.64293	0.10697
1683.71428	0.11293
1681.78563	0.11904
1679.85697	0.12535
1677.92832	0.13214
1675.99967	0.13946
1674.07101	0.14705
1672.14236	0.15481
1670.21371	0.16282
1668.28505	0.17087
1666.35640	0.17865
1664.42775	0.18620
1662.49909	0.19363
1660.57044	0.20067
1658.64179	0.20700
1656.71313	0.21254
1654.78448	0.21756
1652.85583	0.22232
1650.92717	0.22650
1648.99852	0.22986
1647.06987	0.23282
1645.14121	0.23565
1643.21256	0.23816
1641.28391	0.24029
1639.35525	0.24225
1637.42660	0.24420
1635.49795	0.24598
1633.56929	0.24708
1631.64064	0.24720
1629.71199	0.24631
1627.78333	0.24430
1625.85468	0.24099
1623.92603	0.23635
1621.99738	0.23052
1620.06872	0.22377
1618.14007	0.21644
1616.21142	0.20867
1614.28276	0.20048
1612.35411	0.19204
1610.42546	0.18358
1608.49680	0.17524
1606.56815	0.16714
1604.63950	0.15946
1602.71084	0.15229
1600.78219	0.14560
1598.85354	0.13943
1596.92488	0.13401
1594.99623	0.12942
1593.06758	0.12557
1591.13892	0.12238
1589.21027	0.11976
1587.28162	0.11770
1585.35296	0.11627
1583.42431	0.11559
1581.49566	0.11575
1579.56700	0.11662
1577.63835	0.11814
1575.70970	0.12036
1573.78104	0.12321
1571.85239	0.12654
1569.92374	0.13038
1567.99508	0.13469
1566.06643	0.13929
1564.13778	0.14402
1562.20912	0.14876
1560.28047	0.15359
1558.35182	0.15849
1556.42316	0.16305
1554.49451	0.16701
1552.56586	0.17048
1550.63721	0.17361
1548.70855	0.17637
1546.77990	0.17866
1544.85125	0.18039
1542.92259	0.18157
1540.99394	0.18233
1539.06529	0.18265
1537.13663	0.18245
1535.20798	0.18181
1533.27933	0.18089
1531.35067	0.17969
1529.42202	0.17814
1527.49337	0.17626
1525.56471	0.17410
1523.63606	0.17172
1521.70741	0.16928
1519.77875	0.16680
1517.85010	0.16409
1515.92145	0.16085
1513.99279	0.15703
1512.06414	0.15275
1510.13549	0.14813
1508.20683	0.14327
1506.27818	0.13828
1504.34953	0.13323
1502.42087	0.12816
1500.49222	0.12323
1498.56357	0.11858
1496.63491	0.11417
1494.70626	0.10989
1492.77761	0.10583
1490.84895	0.10215
1488.92030	0.09900
1486.99165	0.09653
1485.06299	0.09486
1483.13434	0.09393
1481.20569	0.09365
1479.27704	0.09406
1477.34838	0.09516
1475.41973	0.09694
1473.49108	0.09942
1471.56242	0.10243
1469.63377	0.10559
1467.70512	0.10867
1465.77646	0.11168
1463.84781	0.11468
1461.91916	0.11765
1459.99050	0.12064
1458.06185	0.12374
1456.13320	0.12668
1454.20454	0.12895
1452.27589	0.13038
1450.34724	0.13107
1448.41858	0.13116
1446.48993	0.13072
1444.56128	0.12978
1442.63262	0.12851
1440.70397	0.12702
1438.77532	0.12518
1436.84666	0.12295
1434.91801	0.12041
1432.98936	0.11778
1431.06070	0.11531
1429.13205	0.11318
1427.20340	0.11140
1425.27474	0.10998
1423.34609	0.10898
1421.41744	0.10840
1419.48878	0.10814
1417.56013	0.10814
1415.63148	0.10834
1413.70283	0.10859
1411.77417	0.10876
1409.84552	0.10880
1407.91687	0.10861
1405.98821	0.10816
1404.05956	0.10747
1402.13091	0.10656
1400.20225	0.10545
1398.27360	0.10419
1396.34495	0.10289
1394.41629	0.10173
1392.48764	0.10077
1390.55899	0.09997
1388.63033	0.09929
1386.70168	0.09873
1384.77303	0.09824
1382.84437	0.09774
1380.91572	0.09721
1378.98707	0.09673
1377.05841	0.09619
1375.12976	0.09539
1373.20111	0.09443
1371.27245	0.09345
1369.34380	0.09234
1367.41515	0.09098
1365.48649	0.08955
1363.55784	0.08834
1361.62919	0.08747
1359.70053	0.08699
1357.77188	0.08687
1355.84323	0.08708
1353.91457	0.08768
1351.98592	0.08873
1350.05727	0.09015
1348.12861	0.09178
1346.19996	0.09347
1344.27131	0.09517
1342.34266	0.09677
1340.41400	0.09808
1338.48535	0.09897
1336.55670	0.09941
1334.62804	0.09936
1332.69939	0.09876
1330.77074	0.09779
1328.84208	0.09670
1326.91343	0.09557
1324.98478	0.09437
1323.05612	0.09326
1321.12747	0.09243
1319.19882	0.09188
1317.27016	0.09150
1315.34151	0.09115
1313.41286	0.09071
1311.48420	0.09019
1309.55555	0.08972
1307.62690	0.08939
1305.69824	0.08916
1303.76959	0.08899
1301.84094	0.08888
1299.91228	0.08884
1297.98363	0.08888
1296.05498	0.08901
1294.12632	0.08941
1292.19767	0.09018
1290.26902	0.09120
1288.34036	0.09223
1286.41171	0.09324
1284.48306	0.09423
1282.55440	0.09518
1280.62575	0.09595
1278.69710	0.09642
1276.76845	0.09663
1274.83979	0.09679
1272.91114	0.09707
1270.98249	0.09747
1269.05383	0.09795
1267.12518	0.09861
1265.19653	0.09949
1263.26787	0.10047
1261.33922	0.10148
1259.41057	0.10254
1257.48191	0.10373
1255.55326	0.10509
1253.62461	0.10666
1251.69595	0.10841
1249.76730	0.11028
1247.83865	0.11218
1245.90999	0.11405
1243.98134	0.11588
1242.05269	0.11763
1240.12403	0.11911
1238.19538	0.12016
1236.26673	0.12080
1234.33807	0.12101
1232.40942	0.12079
1230.48077	0.12010
1228.55211	0.11892
1226.62346	0.11733
1224.69481	0.11541
1222.76615	0.11322
1220.83750	0.11093
1218.90885	0.10882
1216.98019	0.10719
1215.05154	0.10613
1213.12289	0.10558
1211.19423	0.10545
1209.26558	0.10568
1207.33693	0.10621
1205.40828	0.10684
1203.47962	0.10731
1201.55097	0.10738
1199.62232	0.10691
1197.69366	0.10594
1195.76501	0.10461
1193.83636	0.10323
1191.90770	0.10196
1189.97905	0.10079
1188.05040	0.09971
1186.12174	0.09884
1184.19309	0.09826
1182.26444	0.09790
1180.33578	0.09771
1178.40713	0.09769
1176.47848	0.09785
1174.54982	0.09819
1172.62117	0.09869
1170.69252	0.09931
1168.76386	0.10009
1166.83521	0.10095
1164.90656	0.10171
1162.97790	0.10235
1161.04925	0.10293
1159.12060	0.10328
1157.19194	0.10327
1155.26329	0.10301
1153.33464	0.10267
1151.40598	0.10233
1149.47733	0.10195
1147.54868	0.10159
1145.62002	0.10142
1143.69137	0.10133
1141.76272	0.10114
1139.83406	0.10099
1137.90541	0.10107
1135.97676	0.10135
1134.04811	0.10171
1132.11945	0.10208
1130.19080	0.10242
1128.26215	0.10281
1126.33349	0.10323
1124.40484	0.10357
1122.47619	0.10390
1120.54753	0.10432
1118.61888	0.10482
1116.69023	0.10534
1114.76157	0.10589
1112.83292	0.10639
1110.90427	0.10690
1108.97561	0.10750
1107.04696	0.10818
1105.11831	0.10890
1103.18965	0.10971
1101.26100	0.11065
1099.33235	0.11160
1097.40369	0.11249
1095.47504	0.11346
1093.54639	0.11457
1091.61773	0.11581
1089.68908	0.11726
1087.76043	0.11890
1085.83177	0.12060
1083.90312	0.12222
1081.97447	0.12351
1080.04581	0.12419
1078.11716	0.12417
1076.18851	0.12366
1074.25985	0.12290
1072.33120	0.12201
1070.40255	0.12101
1068.47390	0.11997
1066.54524	0.11904
1064.61659	0.11828
1062.68794	0.11753
1060.75928	0.11648
1058.83063	0.11508
1056.90198	0.11355
1054.97332	0.11204
1053.04467	0.11048
1051.11602	0.10889
1049.18736	0.10738
1047.25871	0.10598
1045.33006	0.10473
1043.40140	0.10365
1041.47275	0.10283
1039.54410	0.10240
1037.61544	0.10232
1035.68679	0.10241
1033.75814	0.10256
1031.82948	0.10259
1029.90083	0.10228
1027.97218	0.10159
1026.04352	0.10062
1024.11487	0.09953
1022.18622	0.09859
1020.25756	0.09790
1018.32891	0.09738
1016.40026	0.09692
1014.47160	0.09647
1012.54295	0.09594
1010.61430	0.09518
1008.68564	0.09425
1006.75699	0.09341
1004.82834	0.09261
1002.89968	0.09160
1000.97103	0.09036
999.04238	0.08905
997.11373	0.08775
995.18507	0.08653
993.25642	0.08539
991.32777	0.08420
989.39911	0.08291
987.47046	0.08165
985.54181	0.08052
983.61315	0.07960
981.68450	0.07897
979.75585	0.07862
977.82719	0.07834
975.89854	0.07795
973.96989	0.07754
972.04123	0.07725
970.11258	0.07698
968.18393	0.07659
966.25527	0.07613
964.32662	0.07583
962.39797	0.07572
960.46931	0.07559
958.54066	0.07533
956.61201	0.07509
954.68335	0.07492
952.75470	0.07470
950.82605	0.07446
948.89739	0.07425
946.96874	0.07411
945.04009	0.07403
943.11143	0.07392
941.18278	0.07369
939.25413	0.07339
937.32547	0.07307
935.39682	0.07262
933.46817	0.07196
931.53952	0.07116
929.61086	0.07036
927.68221	0.06966
925.75356	0.06911
923.82490	0.06863
921.89625	0.06811
919.96760	0.06751
918.03894	0.06684
916.11029	0.06605
914.18164	0.06516
912.25298	0.06434
910.32433	0.06377
908.39568	0.06347
906.46702	0.06331
904.53837	0.06312
902.60972	0.06272
900.68106	0.06233
898.75241	0.06229
896.82376	0.06242
894.89510	0.06241
892.96645	0.06228
891.03780	0.06222
889.10914	0.06239
887.18049	0.06269
885.25184	0.06304
883.32318	0.06348
881.39453	0.06392
879.46588	0.06411
877.53722	0.06409
875.60857	0.06413
873.67992	0.06421
871.75126	0.06408
869.82261	0.06363
867.89396	0.06301
865.96530	0.06237
864.03665	0.06169
862.10800	0.06110
860.17935	0.06064
858.25069	0.06023
856.32204	0.05990
854.39339	0.05959
852.46473	0.05913
850.53608	0.05852
848.60743	0.05776
846.67877	0.05681
844.75012	0.05580
842.82147	0.05494
840.89281	0.05421
838.96416	0.05353
837.03551	0.05302
835.10685	0.05265
833.17820	0.05238
831.24955	0.05222
829.32089	0.05203
827.39224	0.05171
825.46359	0.05141
823.53493	0.05126
821.60628	0.05127
819.67763	0.05140
817.74897	0.05153
815.82032	0.05164
813.89167	0.05180
811.96301	0.05189
810.03436	0.05186
808.10571	0.05183
806.17705	0.05182
804.24840	0.05182
802.31975	0.05186
800.39109	0.05189
798.46244	0.05192
796.53379	0.05208
794.60513	0.05224
792.67648	0.05224
790.74783	0.05231
788.81918	0.05266
786.89052	0.05308
784.96187	0.05343
783.03322	0.05366
781.10456	0.05370
779.17591	0.05361
777.24726	0.05357
775.31860	0.05369
773.38995	0.05395
771.46130	0.05419
769.53264	0.05443
767.60399	0.05475
765.67534	0.05505
763.74668	0.05525
761.81803	0.05539
759.88938	0.05566
757.96072	0.05618
756.03207	0.05677
754.10342	0.05715
752.17476	0.05739
750.24611	0.05761
748.31746	0.05783
746.38880	0.05810
744.46015	0.05837
742.53150	0.05856
740.60284	0.05884
738.67419	0.05932
736.74554	0.05977
734.81688	0.06012
732.88823	0.06062
730.95958	0.06138
729.03092	0.06215
727.10227	0.06277
725.17362	0.06330
723.24497	0.06364
721.31631	0.06415
719.38766	0.06457
717.45901	0.06493
715.53035	0.06529
713.60170	0.06562
711.67305	0.06594
709.74439	0.06633
707.81574	0.06677
705.88709	0.06717
703.95843	0.06753
702.02978	0.06787
700.10113	0.06815
698.17247	0.06835
696.24382	0.06849
694.31517	0.06862
692.38651	0.06880
690.45786	0.06912
688.52921	0.06952
686.60055	0.06979
684.67190	0.06988
682.74325	0.06999
680.81459	0.07022
678.88594	0.07049
676.95729	0.07077
675.02863	0.07106
673.09998	0.07134
671.17133	0.07153
669.24267	0.07164
667.31402	0.07188
665.38537	0.07230
663.45671	0.07268
661.52806	0.07291
659.59941	0.07305
657.67075	0.07322
655.74210	0.07343
653.81345	0.07362
651.88480	0.07369
649.95614	0.07374
648.02749	0.07385
646.09884	0.07391
644.17018	0.07389
642.24153	0.07389
640.31288	0.07398
638.38422	0.07409
636.45557	0.07413
634.52692	0.07410
632.59826	0.07411
630.66961	0.07408
628.74096	0.07378
626.81230	0.07411
624.88365	0.07457
622.95500	0.07477
621.02634	0.07445
619.09769	0.07371
617.16904	0.07319
615.24038	0.07310
613.31173	0.07266
611.38308	0.07171
609.45442	0.07265
607.52577	0.07584
605.59712	0.07767
603.66846	0.07745
601.73981	0.07693
599.81116	0.07684
597.88250	0.07722
595.95385	0.07775
594.02520	0.07789
592.09654	0.07790
590.16789	0.07831
588.23924	0.07891
586.31059	0.07936
584.38193	0.07976
582.45328	0.08016
580.52463	0.08053
578.59597	0.08092
576.66732	0.08142
574.73867	0.08206
572.81001	0.08274
570.88136	0.08336
568.95271	0.08390
567.02405	0.08443
565.09540	0.08506
563.16675	0.08577
561.23809	0.08624
559.30944	0.08642
557.38079	0.08676
555.45213	0.08729
553.52348	0.08752
551.59483	0.08748
549.66617	0.08754
547.73752	0.08795
545.80887	0.08864
543.88021	0.08916
541.95156	0.08923
540.02291	0.08933
538.09425	0.08986
536.16560	0.09043
534.23695	0.09069
532.30829	0.09086
530.37964	0.09108
528.45099	0.09111
526.52233	0.09094
524.59368	0.09081
522.66503	0.09064
520.73637	0.09021
518.80772	0.08966
516.87907	0.08924
514.95042	0.08884
513.02176	0.08826
511.09311	0.08743
509.16446	0.08658
507.23580	0.08591
505.30715	0.08522
503.37850	0.08438
501.44984	0.08337
499.52119	0.08215
497.59254	0.08093
495.66388	0.07992
493.73523	0.07905
491.80658	0.07818
489.87792	0.07721
487.94927	0.07609
486.02062	0.07496
484.09196	0.07400
482.16331	0.07332
480.23466	0.07283
478.30600	0.07234
476.37735	0.07185
474.44870	0.07150
472.52004	0.07118
470.59139	0.07077
468.66274	0.07034
466.73408	0.06980
464.80543	0.06918
462.87678	0.06856
460.94812	0.06795
459.01947	0.06735
457.09082	0.06686
455.16216	0.06647
453.23351	0.06598
451.30486	0.06525
449.37620	0.06438
447.44755	0.06353
445.51890	0.06286
443.59025	0.06241
441.66159	0.06203
439.73294	0.06161
437.80429	0.06123
435.87563	0.06098
433.94698	0.06074
432.01833	0.06037
430.08967	0.05990
428.16102	0.05947
426.23237	0.05908
424.30371	0.05870
422.37506	0.05828
420.44641	0.05787
418.51775	0.05747
416.58910	0.05705
414.66045	0.05660
412.73179	0.05614
410.80314	0.05572
408.87449	0.05539
406.94583	0.05519
405.01718	0.05509
403.08853	0.05488
401.15987	0.05443
399.23122	0.05392
