3996.16951	0.05683
3994.24086	0.05721
3992.31221	0.05747
3990.38355	0.05749
3988.45490	0.05757
3986.52625	0.05794
3984.59759	0.05811
3982.66894	0.05779
3980.74029	0.05733
3978.81163	0.05709
3976.88298	0.05688
3974.95433	0.05647
3973.02567	0.05624
3971.09702	0.05642
3969.16837	0.05658
3967.23972	0.05645
3965.31106	0.05610
3963.38241	0.05572
3961.45376	0.05562
3959.52510	0.05587
3957.59645	0.05607
3955.66780	0.05602
3953.73914	0.05609
3951.81049	0.05637
3949.88184	0.05639
3947.95318	0.05625
3946.02453	0.05638
3944.09588	0.05630
3942.16722	0.05559
3940.23857	0.05476
3938.30992	0.05432
3936.38126	0.05443
3934.45261	0.05480
3932.52396	0.05503
3930.59530	0.05526
3928.66665	0.05572
3926.73800	0.05578
3924.80934	0.05498
3922.88069	0.05405
3920.95204	0.05382
3919.02338	0.05416
3917.09473	0.05449
3915.16608	0.05439
3913.23742	0.05402
3911.30877	0.05363
3909.38012	0.05351
3907.45146	0.05401
3905.52281	0.05489
3903.59416	0.05531
3901.66550	0.05498
3899.73685	0.05437
3897.80820	0.05392
3895.87955	0.05389
3893.95089	0.05388
3892.02224	0.05327
3890.09359	0.05243
3888.16493	0.05219
3886.23628	0.05252
3884.30763	0.05292
3882.37897	0.05311
3880.45032	0.05279
3878.52167	0.05186
3876.59301	0.05110
3874.66436	0.05117
3872.73571	0.05164
3870.80705	0.05189
3868.87840	0.05192
3866.94975	0.05211
3865.02109	0.05268
3863.09244	0.05325
3861.16379	0.05318
3859.23513	0.05241
3857.30648	0.05181
3855.37783	0.05194
3853.44917	0.05219
3851.52052	0.05208
3849.59187	0.05208
3847.66321	0.05246
3845.73456	0.05296
3843.80591	0.05318
3841.87725	0.05284
3839.94860	0.05239
3838.01995	0.05227
3836.09129	0.05223
3834.16264	0.05203
3832.23399	0.05177
3830.30534	0.05140
3828.37668	0.05082
3826.44803	0.05037
3824.51938	0.05035
3822.59072	0.05061
3820.66207	0.05078
3818.73342	0.05067
3816.80476	0.05028
3814.87611	0.04998
3812.94746	0.05011
3811.01880	0.05050
3809.09015	0.05070
3807.16150	0.05044
3805.23284	0.05004
3803.30419	0.05001
3801.37554	0.05003
3799.44688	0.04975
3797.51823	0.04931
3795.58958	0.04896
3793.66092	0.04923
3791.73227	0.04976
3789.80362	0.04941
3787.87496	0.04831
3785.94631	0.04771
3784.01766	0.04830
3782.08900	0.04921
3780.16035	0.04922
3778.23170	0.04863
3776.30304	0.04835
3774.37439	0.04837
3772.44574	0.04849
3770.51708	0.04860
3768.58843	0.04826
3766.65978	0.04763
3764.73112	0.04748
3762.80247	0.04782
3760.87382	0.04788
3758.94517	0.04755
3757.01651	0.04742
3755.08786	0.04753
3753.15921	0.04754
3751.23055	0.04749
3749.30190	0.04757
3747.37325	0.04801
3745.44459	0.04859
3743.51594	0.04852
3741.58729	0.04773
3739.65863	0.04712
3737.72998	0.04691
3735.80133	0.04673
3733.87267	0.04664
3731.94402	0.04646
3730.01537	0.04614
3728.08671	0.04599
3726.15806	0.04600
3724.22941	0.04616
3722.30075	0.04641
3720.37210	0.04634
3718.44345	0.04609
3716.51479	0.04615
3714.58614	0.04664
3712.65749	0.04684
3710.72883	0.04634
3708.80018	0.04551
3706.87153	0.04480
3704.94287	0.04488
3703.01422	0.04581
3701.08557	0.04652
3699.15691	0.04663
3697.22826	0.04659
3695.29961	0.04666
3693.37095	0.04688
3691.44230	0.04714
3689.51365	0.04696
3687.58500	0.04632
3685.65634	0.04597
3683.72769	0.04596
3681.79904	0.04579
3679.87038	0.04614
3677.94173	0.04740
3676.01308	0.04818
3674.08442	0.04790
3672.15577	0.04766
3670.22712	0.04783
3668.29846	0.04801
3666.36981	0.04833
3664.44116	0.04920
3662.51250	0.05038
3660.58385	0.05123
3658.65520	0.05202
3656.72654	0.05323
3654.79789	0.05427
3652.86924	0.05452
3650.94058	0.05444
3649.01193	0.05449
3647.08328	0.05469
3645.15462	0.05518
3643.22597	0.05601
3641.29732	0.05690
3639.36866	0.05792
3637.44001	0.05903
3635.51136	0.05972
3633.58270	0.06033
3631.65405	0.06147
3629.72540	0.06288
3627.79674	0.06376
3625.86809	0.06409
3623.93944	0.06424
3622.01079	0.06477
3620.08213	0.06582
3618.15348	0.06719
3616.22483	0.06860
3614.29617	0.06987
3612.36752	0.07083
3610.43887	0.07144
3608.51021	0.07191
3606.58156	0.07231
3604.65291	0.07317
3602.72425	0.07471
3600.79560	0.07602
3598.86695	0.07661
3596.93829	0.07733
3595.00964	0.07873
3593.08099	0.08040
3591.15233	0.08191
3589.22368	0.08310
3587.29503	0.08398
3585.36637	0.08489
3583.43772	0.08623
3581.50907	0.08782
3579.58041	0.08917
3577.65176	0.09017
3575.72311	0.09107
3573.79445	0.09186
3571.86580	0.09259
3569.93715	0.09374
3568.00849	0.09558
3566.07984	0.09752
3564.15119	0.09876
3562.22253	0.09953
3560.29388	0.10072
3558.36523	0.10250
3556.43657	0.10427
3554.50792	0.10574
3552.57927	0.10694
3550.65062	0.10788
3548.72196	0.10883
3546.79331	0.11048
3544.86466	0.11274
3542.93600	0.11453
3541.00735	0.11560
3539.07870	0.11675
3537.15004	0.11830
3535.22139	0.11995
3533.29274	0.12138
3531.36408	0.12245
3529.43543	0.12350
3527.50678	0.12494
3525.57812	0.12646
3523.64947	0.12767
3521.72082	0.12872
3519.79216	0.12982
3517.86351	0.13106
3515.93486	0.13253
3514.00620	0.13414
3512.07755	0.13578
3510.14890	0.13733
3508.22024	0.13854
3506.29159	0.13958
3504.36294	0.14094
3502.43428	0.14232
3500.50563	0.14331
3498.57698	0.14426
3496.64832	0.14541
3494.71967	0.14632
3492.79102	0.14717
3490.86236	0.14854
3488.93371	0.15007
3487.00506	0.15116
3485.07641	0.15194
3483.14775	0.15278
3481.21910	0.15378
3479.29045	0.15473
3477.36179	0.15566
3475.43314	0.15693
3473.50449	0.15841
3471.57583	0.15976
3469.64718	0.16086
3467.71853	0.16157
3465.78987	0.16222
3463.86122	0.16341
3461.93257	0.16497
3460.00391	0.16615
3458.07526	0.16706
3456.14661	0.16845
3454.21795	0.17009
3452.28930	0.17106
3450.36065	0.17133
3448.43199	0.17180
3446.50334	0.17277
3444.57469	0.17385
3442.64603	0.17486
3440.71738	0.17588
3438.78873	0.17691
3436.86007	0.17784
3434.93142	0.17875
3433.00277	0.17984
3431.07411	0.18100
3429.14546	0.18213
3427.21681	0.18337
3425.28815	0.18454
3423.35950	0.18536
3421.43085	0.18613
3419.50219	0.18712
3417.57354	0.18798
3415.64489	0.18846
3413.71624	0.18905
3411.78758	0.19010
3409.85893	0.19120
3407.93028	0.19209
3406.00162	0.19310
3404.07297	0.19407
3402.14432	0.19467
3400.21566	0.19525
3398.28701	0.19621
3396.35836	0.19730
3394.42970	0.19811
3392.50105	0.19889
3390.57240	0.19995
3388.64374	0.20104
3386.71509	0.20185
3384.78644	0.20251
3382.85778	0.20336
3380.92913	0.20447
3379.00048	0.20550
3377.07182	0.20644
3375.14317	0.20777
3373.21452	0.20960
3371.28586	0.21149
3369.35721	0.21301
3367.42856	0.21436
3365.49990	0.21608
3363.57125	0.21807
3361.64260	0.22008
3359.71394	0.22206
3357.78529	0.22369
3355.85664	0.22512
3353.92798	0.22708
3351.99933	0.22940
3350.07068	0.23127
3348.14202	0.23292
3346.21337	0.23496
3344.28472	0.23719
3342.35607	0.23941
3340.42741	0.24163
3338.49876	0.24366
3336.57011	0.24548
3334.64145	0.24722
3332.71280	0.24886
3330.78415	0.25022
3328.85549	0.25131
3326.92684	0.25233
3324.99819	0.25331
3323.06953	0.25418
3321.14088	0.25512
3319.21223	0.25622
3317.28357	0.25720
3315.35492	0.25779
3313.42627	0.25810
3311.49761	0.25862
3309.56896	0.25947
3307.64031	0.26028
3305.71165	0.26094
3303.78300	0.26159
3301.85435	0.26217
3299.92569	0.26244
3297.99704	0.26230
3296.06839	0.26207
3294.13973	0.26220
3292.21108	0.26253
3290.28243	0.26258
3288.35377	0.26204
3286.42512	0.26110
3284.49647	0.26050
3282.56781	0.26065
3280.63916	0.26076
3278.71051	0.26019
3276.78186	0.25946
3274.85320	0.25912
3272.92455	0.25859
3270.99590	0.25732
3269.06724	0.25604
3267.13859	0.25561
3265.20994	0.25563
3263.28128	0.25509
3261.35263	0.25391
3259.42398	0.25276
3257.49532	0.25178
3255.56667	0.25079
3253.63802	0.24996
3251.70936	0.24940
3249.78071	0.24883
3247.85206	0.24816
3245.92340	0.24744
3243.99475	0.24659
3242.06610	0.24558
3240.13744	0.24453
3238.20879	0.24359
3236.28014	0.24265
3234.35148	0.24138
3232.42283	0.23997
3230.49418	0.23908
3228.56552	0.23875
3226.63687	0.23833
3224.70822	0.23741
3222.77956	0.23623
3220.85091	0.23508
3218.92226	0.23411
3216.99360	0.23356
3215.06495	0.23330
3213.13630	0.23280
3211.20764	0.23192
3209.27899	0.23099
3207.35034	0.23017
3205.42169	0.22912
3203.49303	0.22770
3201.56438	0.22643
3199.63573	0.22547
3197.70707	0.22457
3195.77842	0.22374
3193.84977	0.22288
3191.92111	0.22190
3189.99246	0.22090
3188.06381	0.21974
3186.13515	0.21822
3184.20650	0.21647
3182.27785	0.21474
3180.34919	0.21302
3178.42054	0.21124
3176.49189	0.20963
3174.56323	0.20833
3172.63458	0.20712
3170.70593	0.20574
3168.77727	0.20409
3166.84862	0.20219
3164.91997	0.20031
3162.99131	0.19858
3161.06266	0.19680
3159.13401	0.19495
3157.20535	0.19332
3155.27670	0.19197
3153.34805	0.19059
3151.41939	0.18892
3149.49074	0.18708
3147.56209	0.18527
3145.63343	0.18367
3143.70478	0.18254
3141.77613	0.18170
3139.84748	0.18066
3137.91882	0.17946
3135.99017	0.17829
3134.06152	0.17714
3132.13286	0.17601
3130.20421	0.17484
3128.27556	0.17357
3126.34690	0.17234
3124.41825	0.17146
3122.48960	0.17104
3120.56094	0.17080
3118.63229	0.17044
3116.70364	0.17007
3114.77498	0.16984
3112.84633	0.16965
3110.91768	0.16940
3108.98902	0.16923
3107.06037	0.16923
3105.13172	0.16929
3103.20306	0.16934
3101.27441	0.16948
3099.34576	0.16978
3097.41710	0.17015
3095.48845	0.17071
3093.55980	0.17158
3091.63114	0.17251
3089.70249	0.17319
3087.77384	0.17377
3085.84518	0.17432
3083.91653	0.17471
3081.98788	0.17493
3080.05922	0.17511
3078.13057	0.17518
3076.20192	0.17487
3074.27326	0.17444
3072.34461	0.17439
3070.41596	0.17442
3068.48731	0.17403
3066.55865	0.17337
3064.63000	0.17275
3062.70135	0.17222
3060.77269	0.17176
3058.84404	0.17126
3056.91539	0.17057
3054.98673	0.16956
3053.05808	0.16825
3051.12943	0.16692
3049.20077	0.16573
3047.27212	0.16454
3045.34347	0.16325
3043.41481	0.16174
3041.48616	0.16002
3039.55751	0.15842
3037.62885	0.15723
3035.70020	0.15620
3033.77155	0.15492
3031.84289	0.15347
3029.91424	0.15213
3027.98559	0.15083
3026.05693	0.14938
3024.12828	0.14798
3022.19963	0.14701
3020.27097	0.14641
3018.34232	0.14565
3016.41367	0.14456
3014.48501	0.14358
3012.55636	0.14310
3010.62771	0.14289
3008.69905	0.14261
3006.77040	0.14222
3004.84175	0.14173
3002.91309	0.14119
3000.98444	0.14096
2999.05579	0.14113
2997.12714	0.14142
2995.19848	0.14160
2993.26983	0.14189
2991.34118	0.14272
2989.41252	0.14379
2987.48387	0.14435
2985.55522	0.14467
2983.62656	0.14557
2981.69791	0.14690
2979.76926	0.14811
2977.84060	0.14899
2975.91195	0.14965
2973.98330	0.15042
2972.05464	0.15144
2970.12599	0.15259
2968.19734	0.15395
2966.26868	0.15558
2964.34003	0.15712
2962.41138	0.15824
2960.48272	0.15905
2958.55407	0.15983
2956.62542	0.16062
2954.69676	0.16105
2952.76811	0.16096
2950.83946	0.16075
2948.91080	0.16086
2946.98215	0.16153
2945.05350	0.16267
2943.12484	0.16406
2941.19619	0.16576
2939.26754	0.16789
2937.33888	0.17027
2935.41023	0.17262
2933.48158	0.17497
2931.55293	0.17752
2929.62427	0.17995
2927.69562	0.18168
2925.76697	0.18265
2923.83831	0.18329
2921.90966	0.18358
2919.98101	0.18313
2918.05235	0.18153
2916.12370	0.17835
2914.19505	0.17362
2912.26639	0.16826
2910.33774	0.16340
2908.40909	0.15959
2906.48043	0.15644
2904.55178	0.15338
2902.62313	0.15073
2900.69447	0.14883
2898.76582	0.14726
2896.83717	0.14582
2894.90851	0.14459
2892.97986	0.14343
2891.05121	0.14240
2889.12255	0.14171
2887.19390	0.14114
2885.26525	0.14050
2883.33659	0.14011
2881.40794	0.14009
2879.47929	0.14001
2877.55063	0.13962
2875.62198	0.13934
2873.69333	0.13940
2871.76467	0.13922
2869.83602	0.13840
2867.90737	0.13720
2865.97871	0.13615
2864.05006	0.13573
2862.12141	0.13615
2860.19276	0.13725
2858.26410	0.13859
2856.33545	0.13986
2854.40680	0.14112
2852.47814	0.14205
2850.54949	0.14172
2848.62084	0.13946
2846.69218	0.13561
2844.76353	0.13114
2842.83488	0.12701
2840.90622	0.12387
2838.97757	0.12155
2837.04892	0.11939
2835.12026	0.11732
2833.19161	0.11579
2831.26296	0.11477
2829.33430	0.11395
2827.40565	0.11330
2825.47700	0.11268
2823.54834	0.11173
2821.61969	0.11066
2819.69104	0.10992
2817.76238	0.10935
2815.83373	0.10866
2813.90508	0.10801
2811.97642	0.10758
2810.04777	0.10728
2808.11912	0.10683
2806.19046	0.10623
2804.26181	0.10571
2802.33316	0.10526
2800.40450	0.10477
2798.47585	0.10424
2796.54720	0.10358
2794.61855	0.10278
2792.68989	0.10207
2790.76124	0.10170
2788.83259	0.10158
2786.90393	0.10127
2784.97528	0.10067
2783.04663	0.09997
2781.11797	0.09933
2779.18932	0.09888
2777.26067	0.09846
2775.33201	0.09785
2773.40336	0.09718
2771.47471	0.09658
2769.54605	0.09606
2767.61740	0.09574
2765.68875	0.09562
2763.76009	0.09544
2761.83144	0.09495
2759.90279	0.09436
2757.97413	0.09409
2756.04548	0.09408
2754.11683	0.09378
2752.18817	0.09323
2750.25952	0.09273
2748.33087	0.09216
2746.40221	0.09149
2744.47356	0.09105
2742.54491	0.09080
2740.61625	0.09041
2738.68760	0.08990
2736.75895	0.08947
2734.83029	0.08918
2732.90164	0.08896
2730.97299	0.08870
2729.04433	0.08839
2727.11568	0.08806
2725.18703	0.08767
2723.25838	0.08724
2721.32972	0.08674
2719.40107	0.08626
2717.47242	0.08594
2715.54376	0.08570
2713.61511	0.08543
2711.68646	0.08520
2709.75780	0.08496
2707.82915	0.08456
2705.90050	0.08417
2703.97184	0.08386
2702.04319	0.08356
2700.11454	0.08332
2698.18588	0.08316
2696.25723	0.08294
2694.32858	0.08266
2692.39992	0.08252
2690.47127	0.08258
2688.54262	0.08253
2686.61396	0.08220
2684.68531	0.08188
2682.75666	0.08171
2680.82800	0.08153
2678.89935	0.08137
2676.97070	0.08123
2675.04204	0.08113
2673.11339	0.08113
2671.18474	0.08108
2669.25608	0.08094
2667.32743	0.08088
2665.39878	0.08082
2663.47012	0.08064
2661.54147	0.08055
2659.61282	0.08057
2657.68417	0.08035
2655.75551	0.07980
2653.82686	0.07927
2651.89821	0.07892
2649.96955	0.07862
2648.04090	0.07823
2646.11225	0.07782
2644.18359	0.07746
2642.25494	0.07713
2640.32629	0.07679
2638.39763	0.07635
2636.46898	0.07572
2634.54033	0.07505
2632.61167	0.07465
2630.68302	0.07439
2628.75437	0.07401
2626.82571	0.07363
2624.89706	0.07330
2622.96841	0.07288
2621.03975	0.07246
2619.11110	0.07215
2617.18245	0.07193
2615.25379	0.07169
2613.32514	0.07147
2611.39649	0.07126
2609.46783	0.07078
2607.53918	0.07003
2605.61053	0.06948
2603.68187	0.06924
2601.75322	0.06896
2599.82457	0.06855
2597.89591	0.06816
2595.96726	0.06777
2594.03861	0.06733
2592.10995	0.06690
2590.18130	0.06635
2588.25265	0.06566
2586.32400	0.06503
2584.39534	0.06464
2582.46669	0.06468
2580.53804	0.06510
2578.60938	0.06544
2576.68073	0.06540
2574.75208	0.06511
2572.82342	0.06482
2570.89477	0.06444
2568.96612	0.06387
2567.03746	0.06339
2565.10881	0.06322
2563.18016	0.06310
2561.25150	0.06288
2559.32285	0.06279
2557.39420	0.06274
2555.46554	0.06249
2553.53689	0.06210
2551.60824	0.06173
2549.67958	0.06167
2547.75093	0.06192
2545.82228	0.06191
2543.89362	0.06140
2541.96497	0.06057
2540.03632	0.05965
2538.10766	0.05914
2536.17901	0.05925
2534.25036	0.05951
2532.32170	0.05960
2530.39305	0.05948
2528.46440	0.05922
2526.53574	0.05900
2524.60709	0.05884
2522.67844	0.05873
2520.74978	0.05875
2518.82113	0.05877
2516.89248	0.05870
2514.96383	0.05863
2513.03517	0.05846
2511.10652	0.05806
2509.17787	0.05756
2507.24921	0.05719
2505.32056	0.05684
2503.39191	0.05641
2501.46325	0.05626
2499.53460	0.05647
2497.60595	0.05667
2495.67729	0.05667
2493.74864	0.05649
2491.81999	0.05619
2489.89133	0.05573
2487.96268	0.05500
2486.03403	0.05442
2484.10537	0.05424
2482.17672	0.05427
2480.24807	0.05440
2478.31941	0.05451
2476.39076	0.05431
2474.46211	0.05393
2472.53345	0.05379
2470.60480	0.05401
2468.67615	0.05418
2466.74749	0.05399
2464.81884	0.05370
2462.89019	0.05354
2460.96153	0.05359
2459.03288	0.05390
2457.10423	0.05407
2455.17557	0.05374
2453.24692	0.05343
2451.31827	0.05343
2449.38962	0.05327
2447.46096	0.05302
2445.53231	0.05301
2443.60366	0.05269
2441.67500	0.05191
2439.74635	0.05138
2437.81770	0.05149
2435.88904	0.05207
2433.96039	0.05266
2432.03174	0.05262
2430.10308	0.05184
2428.17443	0.05114
2426.24578	0.05109
2424.31712	0.05147
2422.38847	0.05183
2420.45982	0.05187
2418.53116	0.05161
2416.60251	0.05122
2414.67386	0.05081
2412.74520	0.05040
2410.81655	0.05018
2408.88790	0.05039
2406.95924	0.05087
2405.03059	0.05105
2403.10194	0.05090
2401.17328	0.05081
2399.24463	0.05079
2397.31598	0.05075
2395.38732	0.05065
2393.45867	0.05056
2391.53002	0.05050
2389.60136	0.05045
2387.67271	0.05040
2385.74406	0.05027
2383.81540	0.05015
2381.88675	0.05010
2379.95810	0.05018
2378.02945	0.05053
2376.10079	0.05121
2374.17214	0.05163
2372.24349	0.05142
2370.31483	0.05063
2368.38618	0.05089
2366.45753	0.05114
2364.52887	0.05133
2362.60022	0.05168
2360.67157	0.05151
2358.74291	0.05079
2356.81426	0.05140
2354.88561	0.05193
2352.95695	0.05184
2351.02830	0.05193
2349.09965	0.05189
2347.17099	0.05197
2345.24234	0.05185
2343.31369	0.05164
2341.38503	0.05153
2339.45638	0.05098
2337.52773	0.05174
2335.59907	0.05179
2333.67042	0.05118
2331.74177	0.05079
2329.81311	0.05053
2327.88446	0.05070
2325.95581	0.05154
2324.02715	0.05219
2322.09850	0.05178
2320.16985	0.05084
2318.24119	0.05011
2316.31254	0.04959
2314.38389	0.04913
2312.45524	0.04865
2310.52658	0.04823
2308.59793	0.04795
2306.66928	0.04743
2304.74062	0.04664
2302.81197	0.04633
2300.88332	0.04646
2298.95466	0.04646
2297.02601	0.04610
2295.09736	0.04565
2293.16870	0.04540
2291.24005	0.04527
2289.31140	0.04491
2287.38274	0.04435
2285.45409	0.04391
2283.52544	0.04358
2281.59678	0.04297
2279.66813	0.04223
2277.73948	0.04193
2275.81082	0.04194
2273.88217	0.04177
2271.95352	0.04149
2270.02486	0.04123
2268.09621	0.04065
2266.16756	0.03977
2264.23890	0.03906
2262.31025	0.03885
2260.38160	0.03909
2258.45294	0.03931
2256.52429	0.03904
2254.59564	0.03831
2252.66698	0.03751
2250.73833	0.03709
2248.80968	0.03728
2246.88102	0.03748
2244.95237	0.03766
2243.02372	0.03753
2241.09507	0.03703
2239.16641	0.03663
2237.23776	0.03658
2235.30911	0.03639
2233.38045	0.03592
2231.45180	0.03539
2229.52315	0.03491
2227.59449	0.03487
2225.66584	0.03519
2223.73719	0.03515
2221.80853	0.03462
2219.87988	0.03389
2217.95123	0.03330
2216.02257	0.03344
2214.09392	0.03342
2212.16527	0.03235
2210.23661	0.03187
2208.30796	0.03253
2206.37931	0.03231
2204.45065	0.03099
2202.52200	0.03041
2200.59335	0.03099
2198.66469	0.03165
2196.73604	0.03183
2194.80739	0.03170
2192.87873	0.03136
2190.95008	0.03094
2189.02143	0.03052
2187.09277	0.03027
2185.16412	0.03015
2183.23547	0.02996
2181.30681	0.02971
2179.37816	0.02905
2177.44951	0.02794
2175.52085	0.02730
2173.59220	0.02733
2171.66355	0.02723
2169.73490	0.02666
2167.80624	0.02637
2165.87759	0.02672
2163.94894	0.02630
2162.02028	0.02402
2160.09163	0.02125
2158.16298	0.02014
2156.23432	0.02125
2154.30567	0.02334
2152.37702	0.02517
2150.44836	0.02641
2148.51971	0.02691
2146.59106	0.02692
2144.66240	0.02735
2142.73375	0.02819
2140.80510	0.02854
2138.87644	0.02843
2136.94779	0.02848
2135.01914	0.02892
2133.09048	0.03000
2131.16183	0.03144
2129.23318	0.03238
2127.30452	0.03260
2125.37587	0.03256
2123.44722	0.03273
2121.51856	0.03323
2119.58991	0.03385
2117.66126	0.03427
2115.73260	0.03430
2113.80395	0.03386
2111.87530	0.03343
2109.94664	0.03354
2108.01799	0.03395
2106.08934	0.03420
2104.16069	0.03413
2102.23203	0.03400
2100.30338	0.03385
2098.37473	0.03358
2096.44607	0.03309
2094.51742	0.03260
2092.58877	0.03231
2090.66011	0.03245
2088.73146	0.03286
2086.80281	0.03316
2084.87415	0.03323
2082.94550	0.03314
2081.01685	0.03274
2079.08819	0.03224
2077.15954	0.03200
2075.23089	0.03203
2073.30223	0.03195
2071.37358	0.03145
2069.44493	0.03058
2067.51627	0.02995
2065.58762	0.03011
2063.65897	0.03046
2061.73031	0.03008
2059.80166	0.02911
2057.87301	0.02826
2055.94435	0.02778
2054.01570	0.02779
2052.08705	0.02832
2050.15839	0.02853
2048.22974	0.02770
2046.30109	0.02648
2044.37243	0.02606
2042.44378	0.02635
2040.51513	0.02577
2038.58647	0.02381
2036.65782	0.02208
2034.72917	0.02194
2032.80052	0.02250
2030.87186	0.02230
2028.94321	0.02181
2027.01456	0.02220
2025.08590	0.02322
2023.15725	0.02431
2021.22860	0.02541
2019.29994	0.02559
2017.37129	0.02375
2015.44264	0.02172
2013.51398	0.02235
2011.58533	0.02452
2009.65668	0.02516
2007.72802	0.02411
2005.79937	0.02286
2003.87072	0.02225
2001.94206	0.02277
2000.01341	0.02423
1998.08476	0.02523
1996.15610	0.02498
1994.22745	0.02412
1992.29880	0.02300
1990.37014	0.02157
1988.44149	0.02086
1986.51284	0.02176
1984.58418	0.02330
1982.65553	0.02392
1980.72688	0.02390
1978.79822	0.02442
1976.86957	0.02532
1974.94092	0.02584
1973.01226	0.02545
1971.08361	0.02418
1969.15496	0.02284
1967.22631	0.02207
1965.29765	0.02208
1963.36900	0.02299
1961.44035	0.02379
1959.51169	0.02360
1957.58304	0.02341
1955.65439	0.02401
1953.72573	0.02464
1951.79708	0.02479
1949.86843	0.02468
1947.93977	0.02460
1946.01112	0.02451
1944.08247	0.02450
1942.15381	0.02531
1940.22516	0.02682
1938.29651	0.02755
1936.36785	0.02707
1934.43920	0.02643
1932.51055	0.02627
1930.58189	0.02652
1928.65324	0.02701
1926.72459	0.02751
1924.79593	0.02782
1922.86728	0.02787
1920.93863	0.02767
1919.00997	0.02736
1917.08132	0.02721
1915.15267	0.02734
1913.22401	0.02771
1911.29536	0.02821
1909.36671	0.02849
1907.43805	0.02844
1905.50940	0.02845
1903.58075	0.02874
1901.65209	0.02886
1899.72344	0.02846
1897.79479	0.02794
1895.86614	0.02792
1893.93748	0.02832
1892.00883	0.02850
1890.08018	0.02816
1888.15152	0.02772
1886.22287	0.02772
1884.29422	0.02798
1882.36556	0.02803
1880.43691	0.02788
1878.50826	0.02771
1876.57960	0.02764
1874.65095	0.02780
1872.72230	0.02807
1870.79364	0.02821
1868.86499	0.02810
1866.93634	0.02781
1865.00768	0.02758
1863.07903	0.02753
1861.15038	0.02750
1859.22172	0.02728
1857.29307	0.02709
1855.36442	0.02721
1853.43576	0.02748
1851.50711	0.02768
1849.57846	0.02774
1847.64980	0.02768
1845.72115	0.02757
1843.79250	0.02738
1841.86384	0.02719
1839.93519	0.02722
1838.00654	0.02728
1836.07788	0.02721
1834.14923	0.02727
1832.22058	0.02751
1830.29192	0.02766
1828.36327	0.02763
1826.43462	0.02763
1824.50597	0.02766
1822.57731	0.02755
1820.64866	0.02735
1818.72001	0.02708
1816.79135	0.02681
1814.86270	0.02672
1812.93405	0.02677
1811.00539	0.02676
1809.07674	0.02670
1807.14809	0.02662
1805.21943	0.02652
1803.29078	0.02656
1801.36213	0.02679
1799.43347	0.02717
1797.50482	0.02753
1795.57617	0.02761
1793.64751	0.02733
1791.71886	0.02700
1789.79021	0.02700
1787.86155	0.02723
1785.93290	0.02730
1784.00425	0.02716
1782.07559	0.02701
1780.14694	0.02695
1778.21829	0.02697
1776.28963	0.02702
1774.36098	0.02706
1772.43233	0.02709
1770.50367	0.02707
1768.57502	0.02693
1766.64637	0.02683
1764.71771	0.02693
1762.78906	0.02720
1760.86041	0.02752
1758.93176	0.02792
1757.00310	0.02848
1755.07445	0.02911
1753.14580	0.02973
1751.21714	0.03043
1749.28849	0.03133
1747.35984	0.03234
1745.43118	0.03333
1743.50253	0.03435
1741.57388	0.03555
1739.64522	0.03693
1737.71657	0.03830
1735.78792	0.03964
1733.85926	0.04101
1731.93061	0.04229
1730.00196	0.04335
1728.07330	0.04438
1726.14465	0.04566
1724.21600	0.04733
1722.28734	0.04923
1720.35869	0.05123
1718.43004	0.05336
1716.50138	0.05553
1714.57273	0.05764
1712.64408	0.05967
1710.71542	0.06166
1708.78677	0.06364
1706.85812	0.06571
1704.92946	0.06805
1703.00081	0.07087
1701.07216	0.07430
1699.14350	0.07820
1697.21485	0.08244
1695.28620	0.08697
1693.35754	0.09163
1691.42889	0.09638
1689.50024	0.10146
1687.57159	0.10698
1685.64293	0.11295
1683.71428	0.11933
1681.78563	0.12610
1679.85697	0.13344
1677.92832	0.14149
1675.99967	0.15018
1674.07101	0.15933
1672.14236	0.16879
1670.21371	0.17857
1668.28505	0.18848
1666.35640	0.19830
1664.42775	0.20808
1662.49909	0.21771
1660.57044	0.22680
1658.64179	0.23510
1656.71313	0.24254
1654.78448	0.24921
1652.85583	0.25504
1650.92717	0.25979
1648.99852	0.26373
1647.06987	0.26732
1645.14121	0.27056
1643.21256	0.27359
1641.28391	0.27678
1639.35525	0.28011
1637.42660	0.28338
1635.49795	0.28653
1633.56929	0.28929
1631.64064	0.29126
1629.71199	0.29218
1627.78333	0.29177
1625.85468	0.28981
1623.92603	0.28610
1621.99738	0.28064
1620.06872	0.27369
1618.14007	0.26562
1616.21142	0.25672
1614.28276	0.24734
1612.35411	0.23767
1610.42546	0.22772
1608.49680	0.21757
1606.56815	0.20750
1604.63950	0.19772
1602.71084	0.18835
1600.78219	0.17954
1598.85354	0.17145
1596.92488	0.16412
1594.99623	0.15759
1593.06758	0.15188
1591.13892	0.14705
1589.21027	0.14317
1587.28162	0.14023
1585.35296	0.13823
1583.42431	0.13720
1581.49566	0.13713
1579.56700	0.13805
1577.63835	0.14004
1575.70970	0.14304
1573.78104	0.14682
1571.85239	0.15132
1569.92374	0.15668
1567.99508	0.16276
1566.06643	0.16929
1564.13778	0.17603
1562.20912	0.18284
1560.28047	0.18976
1558.35182	0.19650
1556.42316	0.20250
1554.49451	0.20767
1552.56586	0.21214
1550.63721	0.21595
1548.70855	0.21913
1546.77990	0.22165
1544.85125	0.22348
1542.92259	0.22466
1540.99394	0.22515
1539.06529	0.22485
1537.13663	0.22371
1535.20798	0.22191
1533.27933	0.21965
1531.35067	0.21697
1529.42202	0.21394
1527.49337	0.21066
1525.56471	0.20714
1523.63606	0.20342
1521.70741	0.19951
1519.77875	0.19540
1517.85010	0.19113
1515.92145	0.18649
1513.99279	0.18120
1512.06414	0.17533
1510.13549	0.16926
1508.20683	0.16312
1506.27818	0.15675
1504.34953	0.15031
1502.42087	0.14422
1500.49222	0.13865
1498.56357	0.13343
1496.63491	0.12834
1494.70626	0.12343
1492.77761	0.11899
1490.84895	0.11513
1488.92030	0.11183
1486.99165	0.10924
1485.06299	0.10759
1483.13434	0.10693
1481.20569	0.10711
1479.27704	0.10804
1477.34838	0.10982
1475.41973	0.11254
1473.49108	0.11610
1471.56242	0.12018
1469.63377	0.12442
1467.70512	0.12870
1465.77646	0.13295
1463.84781	0.13708
1461.91916	0.14107
1459.99050	0.14505
1458.06185	0.14912
1456.13320	0.15285
1454.20454	0.15552
1452.27589	0.15690
1450.34724	0.15721
1448.41858	0.15677
1446.48993	0.15571
1444.56128	0.15406
1442.63262	0.15197
1440.70397	0.14952
1438.77532	0.14675
1436.84666	0.14368
1434.91801	0.14030
1432.98936	0.13697
1431.06070	0.13417
1429.13205	0.13205
1427.20340	0.13042
1425.27474	0.12916
1423.34609	0.12826
1421.41744	0.12764
1419.48878	0.12723
1417.56013	0.12703
1415.63148	0.12708
1413.70283	0.12736
1411.77417	0.12779
1409.84552	0.12827
1407.91687	0.12861
1405.98821	0.12848
1404.05956	0.12774
1402.13091	0.12647
1400.20225	0.12483
1398.27360	0.12297
1396.34495	0.12112
1394.41629	0.11952
1392.48764	0.11834
1390.55899	0.11759
1388.63033	0.11717
1386.70168	0.11693
1384.77303	0.11671
1382.84437	0.11654
1380.91572	0.11645
1378.98707	0.11634
1377.05841	0.11600
1375.12976	0.11526
1373.20111	0.11412
1371.27245	0.11274
1369.34380	0.11117
1367.41515	0.10938
1365.48649	0.10750
1363.55784	0.10572
1361.62919	0.10420
1359.70053	0.10322
1357.77188	0.10300
1355.84323	0.10352
1353.91457	0.10458
1351.98592	0.10598
1350.05727	0.10769
1348.12861	0.10977
1346.19996	0.11212
1344.27131	0.11451
1342.34266	0.11669
1340.41400	0.11850
1338.48535	0.11979
1336.55670	0.12035
1334.62804	0.12001
1332.69939	0.11889
1330.77074	0.11723
1328.84208	0.11523
1326.91343	0.11308
1324.98478	0.11118
1323.05612	0.10980
1321.12747	0.10883
1319.19882	0.10798
1317.27016	0.10720
1315.34151	0.10657
1313.41286	0.10601
1311.48420	0.10533
1309.55555	0.10456
1307.62690	0.10393
1305.69824	0.10364
1303.76959	0.10361
1301.84094	0.10362
1299.91228	0.10356
1297.98363	0.10357
1296.05498	0.10390
1294.12632	0.10474
1292.19767	0.10607
1290.26902	0.10761
1288.34036	0.10915
1286.41171	0.11063
1284.48306	0.11196
1282.55440	0.11301
1280.62575	0.11370
1278.69710	0.11400
1276.76845	0.11407
1274.83979	0.11407
1272.91114	0.11414
1270.98249	0.11444
1269.05383	0.11499
1267.12518	0.11570
1265.19653	0.11658
1263.26787	0.11771
1261.33922	0.11913
1259.41057	0.12070
1257.48191	0.12229
1255.55326	0.12402
1253.62461	0.12610
1251.69595	0.12861
1249.76730	0.13138
1247.83865	0.13421
1245.90999	0.13702
1243.98134	0.13982
1242.05269	0.14242
1240.12403	0.14450
1238.19538	0.14589
1236.26673	0.14648
1234.33807	0.14626
1232.40942	0.14536
1230.48077	0.14384
1228.55211	0.14158
1226.62346	0.13861
1224.69481	0.13520
1222.76615	0.13167
1220.83750	0.12827
1218.90885	0.12523
1216.98019	0.12278
1215.05154	0.12112
1213.12289	0.12034
1211.19423	0.12038
1209.26558	0.12102
1207.33693	0.12198
1205.40828	0.12289
1203.47962	0.12350
1201.55097	0.12342
1199.62232	0.12227
1197.69366	0.12043
1195.76501	0.11812
1193.83636	0.11565
1191.90770	0.11328
1189.97905	0.11121
1188.05040	0.10947
1186.12174	0.10788
1184.19309	0.10644
1182.26444	0.10536
1180.33578	0.10463
1178.40713	0.10409
1176.47848	0.10366
1174.54982	0.10332
1172.62117	0.10309
1170.69252	0.10292
1168.76386	0.10271
1166.83521	0.10260
1164.90656	0.10278
1162.97790	0.10305
1161.04925	0.10296
1159.12060	0.10231
1157.19194	0.10126
1155.26329	0.09997
1153.33464	0.09845
1151.40598	0.09687
1149.47733	0.09536
1147.54868	0.09384
1145.62002	0.09230
1143.69137	0.09095
1141.76272	0.08989
1139.83406	0.08901
1137.90541	0.08823
1135.97676	0.08763
1134.04811	0.08718
1132.11945	0.08679
1130.19080	0.08655
1128.26215	0.08645
1126.33349	0.08632
1124.40484	0.08617
1122.47619	0.08614
1120.54753	0.08618
1118.61888	0.08617
1116.69023	0.08616
1114.76157	0.08617
1112.83292	0.08614
1110.90427	0.08619
1108.97561	0.08645
1107.04696	0.08686
1105.11831	0.08729
1103.18965	0.08781
1101.26100	0.08848
1099.33235	0.08919
1097.40369	0.08989
1095.47504	0.09068
1093.54639	0.09171
1091.61773	0.09304
1089.68908	0.09471
1087.76043	0.09676
1085.83177	0.09901
1083.90312	0.10110
1081.97447	0.10268
1080.04581	0.10355
1078.11716	0.10362
1076.18851	0.10305
1074.25985	0.10218
1072.33120	0.10124
1070.40255	0.10030
1068.47390	0.09947
1066.54524	0.09891
1064.61659	0.09856
1062.68794	0.09825
1060.75928	0.09782
1058.83063	0.09701
1056.90198	0.09586
1054.97332	0.09479
1053.04467	0.09396
1051.11602	0.09327
1049.18736	0.09259
1047.25871	0.09192
1045.33006	0.09138
1043.40140	0.09111
1041.47275	0.09112
1039.54410	0.09141
1037.61544	0.09206
1035.68679	0.09302
1033.75814	0.09399
1031.82948	0.09449
1029.90083	0.09418
1027.97218	0.09309
1026.04352	0.09155
1024.11487	0.08989
1022.18622	0.08836
1020.25756	0.08708
1018.32891	0.08609
1016.40026	0.08530
1014.47160	0.08443
1012.54295	0.08336
1010.61430	0.08223
1008.68564	0.08112
1006.75699	0.07992
1004.82834	0.07867
1002.89968	0.07751
1000.97103	0.07638
999.04238	0.07526
997.11373	0.07416
995.18507	0.07299
993.25642	0.07182
991.32777	0.07083
989.39911	0.07002
987.47046	0.06935
985.54181	0.06884
983.61315	0.06846
981.68450	0.06825
979.75585	0.06824
977.82719	0.06843
975.89854	0.06877
973.96989	0.06910
972.04123	0.06921
970.11258	0.06905
968.18393	0.06879
966.25527	0.06853
964.32662	0.06812
962.39797	0.06763
960.46931	0.06732
958.54066	0.06721
956.61201	0.06708
954.68335	0.06690
952.75470	0.06681
950.82605	0.06684
948.89739	0.06693
946.96874	0.06710
945.04009	0.06737
943.11143	0.06769
941.18278	0.06796
939.25413	0.06809
937.32547	0.06802
935.39682	0.06777
933.46817	0.06747
931.53952	0.06711
929.61086	0.06647
927.68221	0.06570
925.75356	0.06523
923.82490	0.06510
921.89625	0.06492
919.96760	0.06440
918.03894	0.06351
916.11029	0.06255
914.18164	0.06177
912.25298	0.06102
910.32433	0.06019
908.39568	0.05950
906.46702	0.05911
904.53837	0.05898
902.60972	0.05888
900.68106	0.05854
898.75241	0.05809
896.82376	0.05785
894.89510	0.05768
892.96645	0.05729
891.03780	0.05676
889.10914	0.05645
887.18049	0.05661
885.25184	0.05708
883.32318	0.05751
881.39453	0.05776
879.46588	0.05799
877.53722	0.05834
875.60857	0.05872
873.67992	0.05892
871.75126	0.05875
869.82261	0.05824
867.89396	0.05776
865.96530	0.05754
864.03665	0.05736
862.10800	0.05699
860.17935	0.05652
858.25069	0.05618
856.32204	0.05612
854.39339	0.05625
852.46473	0.05632
850.53608	0.05621
848.60743	0.05585
846.67877	0.05528
844.75012	0.05473
842.82147	0.05428
840.89281	0.05387
838.96416	0.05348
837.03551	0.05316
835.10685	0.05301
833.17820	0.05296
831.24955	0.05290
829.32089	0.05280
827.39224	0.05282
825.46359	0.05307
823.53493	0.05340
821.60628	0.05367
819.67763	0.05399
817.74897	0.05427
815.82032	0.05444
813.89167	0.05471
811.96301	0.05514
810.03436	0.05538
808.10571	0.05531
806.17705	0.05524
804.24840	0.05548
802.31975	0.05594
800.39109	0.05646
798.46244	0.05686
796.53379	0.05704
794.60513	0.05708
792.67648	0.05716
790.74783	0.05738
788.81918	0.05772
786.89052	0.05817
784.96187	0.05872
783.03322	0.05930
781.10456	0.05983
779.17591	0.06020
777.24726	0.06039
775.31860	0.06054
773.38995	0.06064
771.46130	0.06068
769.53264	0.06085
767.60399	0.06120
765.67534	0.06165
763.74668	0.06214
761.81803	0.06261
759.88938	0.06320
757.96072	0.06395
756.03207	0.06457
754.10342	0.06496
752.17476	0.06531
750.24611	0.06575
748.31746	0.06627
746.38880	0.06671
744.46015	0.06698
742.53150	0.06731
740.60284	0.06788
738.67419	0.06848
736.74554	0.06902
734.81688	0.06966
732.88823	0.07051
730.95958	0.07149
729.03092	0.07249
727.10227	0.07335
725.17362	0.07400
723.24497	0.07448
721.31631	0.07519
719.38766	0.07577
717.45901	0.07615
715.53035	0.07653
713.60170	0.07692
711.67305	0.07730
709.74439	0.07782
707.81574	0.07854
705.88709	0.07928
703.95843	0.07992
702.02978	0.08043
700.10113	0.08089
698.17247	0.08134
696.24382	0.08171
694.31517	0.08197
692.38651	0.08214
690.45786	0.08234
688.52921	0.08269
686.60055	0.08318
684.67190	0.08374
682.74325	0.08422
680.81459	0.08452
678.88594	0.08473
676.95729	0.08504
675.02863	0.08555
673.09998	0.08605
671.17133	0.08646
669.24267	0.08695
667.31402	0.08748
665.38537	0.08784
663.45671	0.08817
661.52806	0.08852
659.59941	0.08880
657.67075	0.08909
655.74210	0.08948
653.81345	0.08995
651.88480	0.09050
649.95614	0.09101
648.02749	0.09092
646.09884	0.09045
644.17018	0.09046
642.24153	0.09098
640.31288	0.09153
638.38422	0.09202
636.45557	0.09240
634.52692	0.09244
632.59826	0.09238
630.66961	0.09190
628.74096	0.08985
626.81230	0.09214
624.88365	0.09561
622.95500	0.09776
621.02634	0.09731
619.09769	0.09447
617.16904	0.08987
615.24038	0.08624
613.31173	0.08787
611.38308	0.09383
609.45442	0.09708
607.52577	0.09583
605.59712	0.09461
603.66846	0.09489
601.73981	0.09504
599.81116	0.09443
597.88250	0.09375
595.95385	0.09325
594.02520	0.09310
592.09654	0.09362
590.16789	0.09439
588.23924	0.09474
586.31059	0.09473
584.38193	0.09484
582.45328	0.09507
580.52463	0.09526
578.59597	0.09537
576.66732	0.09528
574.73867	0.09489
572.81001	0.09476
570.88136	0.09562
568.95271	0.09710
567.02405	0.09808
565.09540	0.09827
563.16675	0.09820
561.23809	0.09823
559.30944	0.09837
557.38079	0.09843
555.45213	0.09833
553.52348	0.09816
551.59483	0.09794
549.66617	0.09760
547.73752	0.09726
545.80887	0.09704
543.88021	0.09690
541.95156	0.09677
540.02291	0.09656
538.09425	0.09643
536.16560	0.09670
534.23695	0.09720
532.30829	0.09765
530.37964	0.09807
528.45099	0.09850
526.52233	0.09866
524.59368	0.09836
522.66503	0.09780
520.73637	0.09717
518.80772	0.09651
516.87907	0.09593
514.95042	0.09541
513.02176	0.09497
511.09311	0.09470
509.16446	0.09436
507.23580	0.09379
505.30715	0.09316
503.37850	0.09247
501.44984	0.09171
499.52119	0.09109
497.59254	0.09071
495.66388	0.09047
493.73523	0.09005
491.80658	0.08926
489.87792	0.08833
487.94927	0.08770
486.02062	0.08733
484.09196	0.08699
482.16331	0.08670
480.23466	0.08646
478.30600	0.08602
476.37735	0.08527
474.44870	0.08450
472.52004	0.08404
470.59139	0.08388
468.66274	0.08376
466.73408	0.08350
464.80543	0.08307
462.87678	0.08235
460.94812	0.08138
459.01947	0.08050
457.09082	0.07981
455.16216	0.07921
453.23351	0.07867
451.30486	0.07806
449.37620	0.07723
447.44755	0.07646
445.51890	0.07587
443.59025	0.07515
441.66159	0.07431
439.73294	0.07374
437.80429	0.07345
435.87563	0.07312
433.94698	0.07263
432.01833	0.07209
430.08967	0.07157
428.16102	0.07109
426.23237	0.07060
424.30371	0.07004
422.37506	0.06952
420.44641	0.06915
418.51775	0.06876
416.58910	0.06823
414.66045	0.06765
412.73179	0.06723
410.80314	0.06703
408.87449	0.06692
406.94583	0.06664
405.01718	0.06601
403.08853	0.06515
401.15987	0.06442
399.23122	0.06390
