3997.45528	0.05075
3996.16951	0.05027
3994.88374	0.04996
3993.59798	0.04993
3992.31221	0.05014
3991.02644	0.05041
3989.74067	0.05066
3988.45490	0.05087
3987.16913	0.05106
3985.88336	0.05115
3984.59759	0.05107
3983.31183	0.05092
3982.02606	0.05083
3980.74029	0.05090
3979.45452	0.05108
3978.16875	0.05131
3976.88298	0.05155
3975.59721	0.05170
3974.31144	0.05158
3973.02567	0.05110
3971.73991	0.05044
3970.45414	0.04997
3969.16837	0.04995
3967.88260	0.05037
3966.59683	0.05097
3965.31106	0.05142
3964.02529	0.05154
3962.73952	0.05128
3961.45376	0.05076
3960.16799	0.05017
3958.88222	0.04967
3957.59645	0.04941
3956.31068	0.04947
3955.02491	0.04974
3953.73914	0.05001
3952.45337	0.05019
3951.16760	0.05033
3949.88184	0.05037
3948.59607	0.05012
3947.31030	0.04945
3946.02453	0.04860
3944.73876	0.04797
3943.45299	0.04777
3942.16722	0.04793
3940.88145	0.04827
3939.59569	0.04871
3938.30992	0.04920
3937.02415	0.04964
3935.73838	0.04984
3934.45261	0.04975
3933.16684	0.04944
3931.88107	0.04901
3930.59530	0.04845
3929.30953	0.04776
3928.02377	0.04714
3926.73800	0.04694
3925.45223	0.04737
3924.16646	0.04828
3922.88069	0.04927
3921.59492	0.05002
3920.30915	0.05039
3919.02338	0.05036
3917.73762	0.04998
3916.45185	0.04942
3915.16608	0.04890
3913.88031	0.04860
3912.59454	0.04853
3911.30877	0.04860
3910.02300	0.04870
3908.73723	0.04871
3907.45146	0.04857
3906.16570	0.04839
3904.87993	0.04837
3903.59416	0.04857
3902.30839	0.04874
3901.02262	0.04866
3899.73685	0.04836
3898.45108	0.04806
3897.16531	0.04781
3895.87955	0.04756
3894.59378	0.04729
3893.30801	0.04704
3892.02224	0.04686
3890.73647	0.04684
3889.45070	0.04703
3888.16493	0.04728
3886.87916	0.04747
3885.59339	0.04766
3884.30763	0.04785
3883.02186	0.04790
3881.73609	0.04779
3880.45032	0.04766
3879.16455	0.04763
3877.87878	0.04760
3876.59301	0.04757
3875.30724	0.04774
3874.02148	0.04820
3872.73571	0.04865
3871.44994	0.04877
3870.16417	0.04867
3868.87840	0.04862
3867.59263	0.04850
3866.30686	0.04813
3865.02109	0.04781
3863.73532	0.04796
3862.44956	0.04859
3861.16379	0.04928
3859.87802	0.04969
3858.59225	0.04970
3857.30648	0.04937
3856.02071	0.04879
3854.73494	0.04831
3853.44917	0.04842
3852.16341	0.04910
3850.87764	0.04974
3849.59187	0.04975
3848.30610	0.04907
3847.02033	0.04796
3845.73456	0.04669
3844.44879	0.04559
3843.16302	0.04510
3841.87725	0.04546
3840.59149	0.04640
3839.30572	0.04730
3838.01995	0.04770
3836.73418	0.04756
3835.44841	0.04708
3834.16264	0.04659
3832.87687	0.04643
3831.59110	0.04656
3830.30534	0.04661
3829.01957	0.04625
3827.73380	0.04562
3826.44803	0.04522
3825.16226	0.04547
3823.87649	0.04626
3822.59072	0.04720
3821.30495	0.04796
3820.01918	0.04823
3818.73342	0.04776
3817.44765	0.04674
3816.16188	0.04589
3814.87611	0.04569
3813.59034	0.04584
3812.30457	0.04582
3811.01880	0.04552
3809.73303	0.04503
3808.44726	0.04449
3807.16150	0.04421
3805.87573	0.04445
3804.58996	0.04501
3803.30419	0.04550
3802.01842	0.04576
3800.73265	0.04583
3799.44688	0.04563
3798.16111	0.04510
3796.87535	0.04452
3795.58958	0.04424
3794.30381	0.04432
3793.01804	0.04454
3791.73227	0.04471
3790.44650	0.04468
3789.16073	0.04447
3787.87496	0.04421
3786.58919	0.04411
3785.30343	0.04424
3784.01766	0.04449
3782.73189	0.04461
3781.44612	0.04452
3780.16035	0.04437
3778.87458	0.04437
3777.58881	0.04449
3776.30304	0.04456
3775.01728	0.04454
3773.73151	0.04450
3772.44574	0.04447
3771.15997	0.04442
3769.87420	0.04441
3768.58843	0.04444
3767.30266	0.04437
3766.01689	0.04416
3764.73112	0.04394
3763.44536	0.04377
3762.15959	0.04353
3760.87382	0.04318
3759.58805	0.04281
3758.30228	0.04245
3757.01651	0.04215
3755.73074	0.04194
3754.44497	0.04188
3753.15921	0.04206
3751.87344	0.04253
3750.58767	0.04326
3749.30190	0.04421
3748.01613	0.04511
3746.73036	0.04543
3745.44459	0.04505
3744.15882	0.04453
3742.87305	0.04435
3741.58729	0.04428
3740.30152	0.04404
3739.01575	0.04358
3737.72998	0.04297
3736.44421	0.04230
3735.15844	0.04170
3733.87267	0.04122
3732.58690	0.04101
3731.30114	0.04126
3730.01537	0.04188
3728.72960	0.04246
3727.44383	0.04275
3726.15806	0.04285
3724.87229	0.04292
3723.58652	0.04295
3722.30075	0.04276
3721.01498	0.04230
3719.72922	0.04177
3718.44345	0.04151
3717.15768	0.04167
3715.87191	0.04190
3714.58614	0.04168
3713.30037	0.04089
3712.01460	0.04004
3710.72883	0.03980
3709.44307	0.04030
3708.15730	0.04110
3706.87153	0.04165
3705.58576	0.04173
3704.29999	0.04153
3703.01422	0.04139
3701.72845	0.04140
3700.44268	0.04140
3699.15691	0.04124
3697.87115	0.04109
3696.58538	0.04131
3695.29961	0.04196
3694.01384	0.04260
3692.72807	0.04270
3691.44230	0.04212
3690.15653	0.04119
3688.87076	0.04042
3687.58500	0.04004
3686.29923	0.03980
3685.01346	0.03942
3683.72769	0.03910
3682.44192	0.03911
3681.15615	0.03940
3679.87038	0.03968
3678.58461	0.03980
3677.29884	0.03983
3676.01308	0.04000
3674.72731	0.04040
3673.44154	0.04072
3672.15577	0.04073
3670.87000	0.04078
3669.58423	0.04136
3668.29846	0.04233
3667.01269	0.04308
3665.72693	0.04320
3664.44116	0.04272
3663.15539	0.04189
3661.86962	0.04110
3660.58385	0.04067
3659.29808	0.04063
3658.01231	0.04080
3656.72654	0.04106
3655.44077	0.04156
3654.15501	0.04239
3652.86924	0.04337
3651.58347	0.04415
3650.29770	0.04450
3649.01193	0.04441
3647.72616	0.04411
3646.44039	0.04384
3645.15462	0.04367
3643.86886	0.04356
3642.58309	0.04348
3641.29732	0.04348
3640.01155	0.04358
3638.72578	0.04389
3637.44001	0.04445
3636.15424	0.04513
3634.86847	0.04565
3633.58270	0.04582
3632.29694	0.04561
3631.01117	0.04514
3629.72540	0.04476
3628.43963	0.04483
3627.15386	0.04537
3625.86809	0.04607
3624.58232	0.04674
3623.29655	0.04740
3622.01079	0.04796
3620.72502	0.04823
3619.43925	0.04814
3618.15348	0.04785
3616.86771	0.04756
3615.58194	0.04740
3614.29617	0.04741
3613.01040	0.04767
3611.72463	0.04821
3610.43887	0.04901
3609.15310	0.04997
3607.86733	0.05101
3606.58156	0.05204
3605.29579	0.05302
3604.01002	0.05390
3602.72425	0.05451
3601.43848	0.05464
3600.15272	0.05428
3598.86695	0.05372
3597.58118	0.05337
3596.29541	0.05346
3595.00964	0.05390
3593.72387	0.05444
3592.43810	0.05497
3591.15233	0.05554
3589.86656	0.05615
3588.58080	0.05667
3587.29503	0.05687
3586.00926	0.05665
3584.72349	0.05621
3583.43772	0.05591
3582.15195	0.05604
3580.86618	0.05665
3579.58041	0.05752
3578.29464	0.05842
3577.00888	0.05922
3575.72311	0.05995
3574.43734	0.06076
3573.15157	0.06173
3571.86580	0.06270
3570.58003	0.06327
3569.29426	0.06318
3568.00849	0.06267
3566.72273	0.06234
3565.43696	0.06256
3564.15119	0.06313
3562.86542	0.06355
3561.57965	0.06361
3560.29388	0.06358
3559.00811	0.06391
3557.72234	0.06474
3556.43657	0.06578
3555.15081	0.06653
3553.86504	0.06677
3552.57927	0.06674
3551.29350	0.06684
3550.00773	0.06721
3548.72196	0.06769
3547.43619	0.06810
3546.15042	0.06842
3544.86466	0.06873
3543.57889	0.06907
3542.29312	0.06938
3541.00735	0.06967
3539.72158	0.07012
3538.43581	0.07091
3537.15004	0.07202
3535.86427	0.07318
3534.57850	0.07409
3533.29274	0.07458
3532.00697	0.07473
3530.72120	0.07478
3529.43543	0.07494
3528.14966	0.07530
3526.86389	0.07582
3525.57812	0.07636
3524.29235	0.07679
3523.00659	0.07711
3521.72082	0.07746
3520.43505	0.07798
3519.14928	0.07865
3517.86351	0.07932
3516.57774	0.07987
3515.29197	0.08031
3514.00620	0.08065
3512.72043	0.08079
3511.43467	0.08060
3510.14890	0.08014
3508.86313	0.07975
3507.57736	0.07979
3506.29159	0.08034
3505.00582	0.08118
3503.72005	0.08201
3502.43428	0.08271
3501.14852	0.08323
3499.86275	0.08356
3498.57698	0.08370
3497.29121	0.08376
3496.00544	0.08396
3494.71967	0.08447
3493.43390	0.08524
3492.14813	0.08607
3490.86236	0.08671
3489.57660	0.08710
3488.29083	0.08733
3487.00506	0.08757
3485.71929	0.08790
3484.43352	0.08836
3483.14775	0.08895
3481.86198	0.08964
3480.57621	0.09028
3479.29045	0.09068
3478.00468	0.09082
3476.71891	0.09087
3475.43314	0.09097
3474.14737	0.09108
3472.86160	0.09111
3471.57583	0.09111
3470.29006	0.09124
3469.00429	0.09155
3467.71853	0.09199
3466.43276	0.09245
3465.14699	0.09291
3463.86122	0.09340
3462.57545	0.09391
3461.28968	0.09439
3460.00391	0.09477
3458.71814	0.09508
3457.43238	0.09547
3456.14661	0.09593
3454.86084	0.09631
3453.57507	0.09647
3452.28930	0.09647
3451.00353	0.09646
3449.71776	0.09657
3448.43199	0.09688
3447.14622	0.09740
3445.86046	0.09808
3444.57469	0.09874
3443.28892	0.09925
3442.00315	0.09957
3440.71738	0.09971
3439.43161	0.09972
3438.14584	0.09966
3436.86007	0.09966
3435.57431	0.09988
3434.28854	0.10034
3433.00277	0.10095
3431.71700	0.10152
3430.43123	0.10186
3429.14546	0.10200
3427.85969	0.10208
3426.57392	0.10223
3425.28815	0.10242
3424.00239	0.10258
3422.71662	0.10282
3421.43085	0.10329
3420.14508	0.10392
3418.85931	0.10442
3417.57354	0.10463
3416.28777	0.10477
3415.00200	0.10521
3413.71624	0.10600
3412.43047	0.10682
3411.14470	0.10732
3409.85893	0.10744
3408.57316	0.10739
3407.28739	0.10743
3406.00162	0.10770
3404.71585	0.10818
3403.43008	0.10868
3402.14432	0.10896
3400.85855	0.10886
3399.57278	0.10854
3398.28701	0.10826
3397.00124	0.10819
3395.71547	0.10836
3394.42970	0.10875
3393.14393	0.10934
3391.85817	0.11005
3390.57240	0.11072
3389.28663	0.11117
3388.00086	0.11128
3386.71509	0.11117
3385.42932	0.11112
3384.14355	0.11141
3382.85778	0.11210
3381.57201	0.11297
3380.28625	0.11372
3379.00048	0.11417
3377.71471	0.11432
3376.42894	0.11432
3375.14317	0.11443
3373.85740	0.11482
3372.57163	0.11547
3371.28586	0.11622
3370.00010	0.11697
3368.71433	0.11782
3367.42856	0.11896
3366.14279	0.12042
3364.85702	0.12188
3363.57125	0.12295
3362.28548	0.12350
3360.99971	0.12377
3359.71394	0.12415
3358.42818	0.12476
3357.14241	0.12546
3355.85664	0.12610
3354.57087	0.12670
3353.28510	0.12741
3351.99933	0.12823
3350.71356	0.12899
3349.42779	0.12955
3348.14202	0.12994
3346.85626	0.13035
3345.57049	0.13094
3344.28472	0.13170
3342.99895	0.13250
3341.71318	0.13323
3340.42741	0.13384
3339.14164	0.13440
3337.85587	0.13497
3336.57011	0.13563
3335.28434	0.13641
3333.99857	0.13732
3332.71280	0.13833
3331.42703	0.13928
3330.14126	0.14003
3328.85549	0.14053
3327.56972	0.14084
3326.28395	0.14103
3324.99819	0.14112
3323.71242	0.14114
3322.42665	0.14120
3321.14088	0.14144
3319.85511	0.14193
3318.56934	0.14262
3317.28357	0.14335
3315.99780	0.14396
3314.71204	0.14440
3313.42627	0.14472
3312.14050	0.14503
3310.85473	0.14539
3309.56896	0.14585
3308.28319	0.14645
3306.99742	0.14708
3305.71165	0.14756
3304.42588	0.14772
3303.14012	0.14760
3301.85435	0.14739
3300.56858	0.14726
3299.28281	0.14727
3297.99704	0.14742
3296.71127	0.14763
3295.42550	0.14782
3294.13973	0.14790
3292.85397	0.14792
3291.56820	0.14801
3290.28243	0.14823
3288.99666	0.14852
3287.71089	0.14876
3286.42512	0.14883
3285.13935	0.14860
3283.85358	0.14807
3282.56781	0.14737
3281.28205	0.14674
3279.99628	0.14634
3278.71051	0.14616
3277.42474	0.14610
3276.13897	0.14603
3274.85320	0.14583
3273.56743	0.14545
3272.28166	0.14495
3270.99590	0.14449
3269.71013	0.14416
3268.42436	0.14395
3267.13859	0.14376
3265.85282	0.14347
3264.56705	0.14304
3263.28128	0.14249
3261.99551	0.14195
3260.70974	0.14146
3259.42398	0.14093
3258.13821	0.14025
3256.85244	0.13947
3255.56667	0.13885
3254.28090	0.13857
3252.99513	0.13860
3251.70936	0.13881
3250.42359	0.13910
3249.13783	0.13941
3247.85206	0.13957
3246.56629	0.13937
3245.28052	0.13881
3243.99475	0.13811
3242.70898	0.13749
3241.42321	0.13698
3240.13744	0.13653
3238.85167	0.13614
3237.56591	0.13583
3236.28014	0.13556
3234.99437	0.13523
3233.70860	0.13483
3232.42283	0.13444
3231.13706	0.13403
3229.85129	0.13353
3228.56552	0.13297
3227.27976	0.13244
3225.99399	0.13201
3224.70822	0.13171
3223.42245	0.13162
3222.13668	0.13177
3220.85091	0.13200
3219.56514	0.13209
3218.27937	0.13195
3216.99360	0.13174
3215.70784	0.13164
3214.42207	0.13163
3213.13630	0.13152
3211.85053	0.13112
3210.56476	0.13042
3209.27899	0.12964
3207.99322	0.12915
3206.70745	0.12920
3205.42169	0.12971
3204.13592	0.13030
3202.85015	0.13054
3201.56438	0.13025
3200.27861	0.12949
3198.99284	0.12848
3197.70707	0.12749
3196.42130	0.12682
3195.13553	0.12659
3193.84977	0.12670
3192.56400	0.12686
3191.27823	0.12681
3189.99246	0.12640
3188.70669	0.12572
3187.42092	0.12503
3186.13515	0.12456
3184.84938	0.12429
3183.56362	0.12400
3182.27785	0.12350
3180.99208	0.12289
3179.70631	0.12235
3178.42054	0.12192
3177.13477	0.12144
3175.84900	0.12080
3174.56323	0.12013
3173.27746	0.11965
3171.99170	0.11954
3170.70593	0.11970
3169.42016	0.11983
3168.13439	0.11952
3166.84862	0.11861
3165.56285	0.11729
3164.27708	0.11598
3162.99131	0.11507
3161.70555	0.11467
3160.41978	0.11461
3159.13401	0.11463
3157.84824	0.11449
3156.56247	0.11406
3155.27670	0.11338
3153.99093	0.11257
3152.70516	0.11178
3151.41939	0.11114
3150.13363	0.11071
3148.84786	0.11043
3147.56209	0.11016
3146.27632	0.10980
3144.99055	0.10925
3143.70478	0.10847
3142.41901	0.10747
3141.13324	0.10642
3139.84748	0.10555
3138.56171	0.10501
3137.27594	0.10480
3135.99017	0.10482
3134.70440	0.10501
3133.41863	0.10532
3132.13286	0.10556
3130.84709	0.10547
3129.56132	0.10496
3128.27556	0.10417
3126.98979	0.10337
3125.70402	0.10274
3124.41825	0.10234
3123.13248	0.10215
3121.84671	0.10210
3120.56094	0.10207
3119.27517	0.10196
3117.98940	0.10179
3116.70364	0.10163
3115.41787	0.10149
3114.13210	0.10134
3112.84633	0.10125
3111.56056	0.10132
3110.27479	0.10159
3108.98902	0.10197
3107.70325	0.10231
3106.41749	0.10256
3105.13172	0.10279
3103.84595	0.10306
3102.56018	0.10341
3101.27441	0.10378
3099.98864	0.10413
3098.70287	0.10439
3097.41710	0.10446
3096.13133	0.10433
3094.84557	0.10408
3093.55980	0.10387
3092.27403	0.10381
3090.98826	0.10386
3089.70249	0.10390
3088.41672	0.10390
3087.13095	0.10389
3085.84518	0.10396
3084.55942	0.10417
3083.27365	0.10452
3081.98788	0.10496
3080.70211	0.10535
3079.41634	0.10551
3078.13057	0.10542
3076.84480	0.10522
3075.55903	0.10510
3074.27326	0.10515
3072.98750	0.10526
3071.70173	0.10527
3070.41596	0.10513
3069.13019	0.10502
3067.84442	0.10519
3066.55865	0.10567
3065.27288	0.10617
3063.98711	0.10635
3062.70135	0.10611
3061.41558	0.10557
3060.12981	0.10490
3058.84404	0.10416
3057.55827	0.10341
3056.27250	0.10277
3054.98673	0.10239
3053.70096	0.10227
3052.41519	0.10224
3051.12943	0.10210
3049.84366	0.10171
3048.55789	0.10109
3047.27212	0.10038
3045.98635	0.09979
3044.70058	0.09944
3043.41481	0.09926
3042.12904	0.09905
3040.84328	0.09868
3039.55751	0.09817
3038.27174	0.09761
3036.98597	0.09708
3035.70020	0.09659
3034.41443	0.09615
3033.12866	0.09573
3031.84289	0.09533
3030.55712	0.09493
3029.27136	0.09453
3027.98559	0.09413
3026.69982	0.09374
3025.41405	0.09335
3024.12828	0.09295
3022.84251	0.09251
3021.55674	0.09196
3020.27097	0.09129
3018.98521	0.09058
3017.69944	0.08996
3016.41367	0.08956
3015.12790	0.08943
3013.84213	0.08951
3012.55636	0.08967
3011.27059	0.08976
3009.98482	0.08965
3008.69905	0.08935
3007.41329	0.08894
3006.12752	0.08851
3004.84175	0.08813
3003.55598	0.08786
3002.27021	0.08775
3000.98444	0.08785
2999.69867	0.08820
2998.41290	0.08874
2997.12714	0.08926
2995.84137	0.08958
2994.55560	0.08971
2993.26983	0.08974
2991.98406	0.08969
2990.69829	0.08962
2989.41252	0.08965
2988.12675	0.08995
2986.84098	0.09053
2985.55522	0.09118
2984.26945	0.09173
2982.98368	0.09212
2981.69791	0.09241
2980.41214	0.09267
2979.12637	0.09296
2977.84060	0.09333
2976.55483	0.09372
2975.26907	0.09402
2973.98330	0.09418
2972.69753	0.09425
2971.41176	0.09437
2970.12599	0.09467
2968.84022	0.09510
2967.55445	0.09558
2966.26868	0.09605
2964.98291	0.09652
2963.69715	0.09699
2962.41138	0.09739
2961.12561	0.09765
2959.83984	0.09787
2958.55407	0.09820
2957.26830	0.09866
2955.98253	0.09908
2954.69676	0.09928
2953.41100	0.09929
2952.12523	0.09929
2950.83946	0.09938
2949.55369	0.09951
2948.26792	0.09960
2946.98215	0.09969
2945.69638	0.09982
2944.41061	0.10003
2943.12484	0.10034
2941.83908	0.10074
2940.55331	0.10125
2939.26754	0.10186
2937.98177	0.10255
2936.69600	0.10324
2935.41023	0.10383
2934.12446	0.10427
2932.83869	0.10463
2931.55293	0.10501
2930.26716	0.10548
2928.98139	0.10603
2927.69562	0.10662
2926.40985	0.10727
2925.12408	0.10790
2923.83831	0.10837
2922.55254	0.10860
2921.26677	0.10865
2919.98101	0.10863
2918.69524	0.10848
2917.40947	0.10800
2916.12370	0.10700
2914.83793	0.10547
2913.55216	0.10365
2912.26639	0.10187
2910.98062	0.10031
2909.69486	0.09898
2908.40909	0.09777
2907.12332	0.09662
2905.83755	0.09554
2904.55178	0.09461
2903.26601	0.09387
2901.98024	0.09332
2900.69447	0.09287
2899.40870	0.09242
2898.12294	0.09195
2896.83717	0.09155
2895.55140	0.09124
2894.26563	0.09091
2892.97986	0.09050
2891.69409	0.09006
2890.40832	0.08966
2889.12255	0.08932
2887.83678	0.08900
2886.55102	0.08877
2885.26525	0.08867
2883.97948	0.08868
2882.69371	0.08874
2881.40794	0.08879
2880.12217	0.08883
2878.83640	0.08891
2877.55063	0.08905
2876.26487	0.08923
2874.97910	0.08938
2873.69333	0.08931
2872.40756	0.08890
2871.12179	0.08825
2869.83602	0.08758
2868.55025	0.08704
2867.26448	0.08664
2865.97871	0.08629
2864.69295	0.08596
2863.40718	0.08571
2862.12141	0.08564
2860.83564	0.08578
2859.54987	0.08612
2858.26410	0.08656
2856.97833	0.08708
2855.69256	0.08766
2854.40680	0.08831
2853.12103	0.08898
2851.83526	0.08952
2850.54949	0.08977
2849.26372	0.08951
2847.97795	0.08857
2846.69218	0.08694
2845.40641	0.08495
2844.12064	0.08307
2842.83488	0.08159
2841.54911	0.08056
2840.26334	0.07986
2838.97757	0.07934
2837.69180	0.07878
2836.40603	0.07807
2835.12026	0.07729
2833.83449	0.07671
2832.54873	0.07645
2831.26296	0.07634
2829.97719	0.07621
2828.69142	0.07599
2827.40565	0.07578
2826.11988	0.07557
2824.83411	0.07530
2823.54834	0.07497
2822.26257	0.07465
2820.97681	0.07435
2819.69104	0.07407
2818.40527	0.07380
2817.11950	0.07353
2815.83373	0.07331
2814.54796	0.07316
2813.26219	0.07312
2811.97642	0.07313
2810.69066	0.07315
2809.40489	0.07310
2808.11912	0.07295
2806.83335	0.07270
2805.54758	0.07245
2804.26181	0.07230
2802.97604	0.07222
2801.69027	0.07214
2800.40450	0.07203
2799.11874	0.07188
2797.83297	0.07159
2796.54720	0.07108
2795.26143	0.07041
2793.97566	0.06986
2792.68989	0.06965
2791.40412	0.06971
2790.11835	0.06977
2788.83259	0.06967
2787.54682	0.06942
2786.26105	0.06918
2784.97528	0.06913
2783.68951	0.06930
2782.40374	0.06957
2781.11797	0.06970
2779.83220	0.06955
2778.54643	0.06917
2777.26067	0.06873
2775.97490	0.06842
2774.68913	0.06826
2773.40336	0.06817
2772.11759	0.06804
2770.83182	0.06787
2769.54605	0.06772
2768.26028	0.06765
2766.97452	0.06761
2765.68875	0.06747
2764.40298	0.06720
2763.11721	0.06690
2761.83144	0.06671
2760.54567	0.06668
2759.25990	0.06675
2757.97413	0.06678
2756.68836	0.06665
2755.40260	0.06634
2754.11683	0.06600
2752.83106	0.06579
2751.54529	0.06574
2750.25952	0.06572
2748.97375	0.06558
2747.68798	0.06525
2746.40221	0.06485
2745.11645	0.06456
2743.83068	0.06447
2742.54491	0.06451
2741.25914	0.06455
2739.97337	0.06445
2738.68760	0.06422
2737.40183	0.06395
2736.11606	0.06375
2734.83029	0.06368
2733.54453	0.06373
2732.25876	0.06380
2730.97299	0.06381
2729.68722	0.06370
2728.40145	0.06346
2727.11568	0.06314
2725.82991	0.06282
2724.54414	0.06257
2723.25838	0.06236
2721.97261	0.06218
2720.68684	0.06202
2719.40107	0.06189
2718.11530	0.06177
2716.82953	0.06162
2715.54376	0.06146
2714.25799	0.06136
2712.97222	0.06133
2711.68646	0.06131
2710.40069	0.06120
2709.11492	0.06102
2707.82915	0.06085
2706.54338	0.06079
2705.25761	0.06083
2703.97184	0.06091
2702.68607	0.06093
2701.40031	0.06084
2700.11454	0.06065
2698.82877	0.06038
2697.54300	0.06011
2696.25723	0.05987
2694.97146	0.05971
2693.68569	0.05964
2692.39992	0.05968
2691.11415	0.05976
2689.82839	0.05977
2688.54262	0.05967
2687.25685	0.05953
2685.97108	0.05948
2684.68531	0.05954
2683.39954	0.05961
2682.11377	0.05961
2680.82800	0.05952
2679.54224	0.05943
2678.25647	0.05941
2676.97070	0.05944
2675.68493	0.05943
2674.39916	0.05933
2673.11339	0.05917
2671.82762	0.05900
2670.54185	0.05885
2669.25608	0.05873
2667.97032	0.05871
2666.68455	0.05876
2665.39878	0.05885
2664.11301	0.05898
2662.82724	0.05916
2661.54147	0.05934
2660.25570	0.05938
2658.96993	0.05922
2657.68417	0.05894
2656.39840	0.05864
2655.11263	0.05835
2653.82686	0.05806
2652.54109	0.05777
2651.25532	0.05749
2649.96955	0.05723
2648.68378	0.05701
2647.39801	0.05683
2646.11225	0.05671
2644.82648	0.05661
2643.54071	0.05651
2642.25494	0.05633
2640.96917	0.05600
2639.68340	0.05554
2638.39763	0.05501
2637.11186	0.05453
2635.82609	0.05419
2634.54033	0.05404
2633.25456	0.05406
2631.96879	0.05410
2630.68302	0.05404
2629.39725	0.05388
2628.11148	0.05371
2626.82571	0.05363
2625.53994	0.05359
2624.25418	0.05350
2622.96841	0.05325
2621.68264	0.05285
2620.39687	0.05239
2619.11110	0.05202
2617.82533	0.05182
2616.53956	0.05178
2615.25379	0.05177
2613.96802	0.05168
2612.68226	0.05151
2611.39649	0.05133
2610.11072	0.05113
2608.82495	0.05086
2607.53918	0.05051
2606.25341	0.05012
2604.96764	0.04980
2603.68187	0.04958
2602.39611	0.04952
2601.11034	0.04965
2599.82457	0.04988
2598.53880	0.04999
2597.25303	0.04986
2595.96726	0.04949
2594.68149	0.04904
2593.39572	0.04862
2592.10995	0.04836
2590.82419	0.04835
2589.53842	0.04852
2588.25265	0.04863
2586.96688	0.04853
2585.68111	0.04829
2584.39534	0.04811
2583.10957	0.04811
2581.82380	0.04823
2580.53804	0.04833
2579.25227	0.04833
2577.96650	0.04826
2576.68073	0.04815
2575.39496	0.04800
2574.10919	0.04770
2572.82342	0.04723
2571.53765	0.04680
2570.25188	0.04664
2568.96612	0.04679
2567.68035	0.04698
2566.39458	0.04698
2565.10881	0.04673
2563.82304	0.04637
2562.53727	0.04615
2561.25150	0.04618
2559.96573	0.04630
2558.67997	0.04620
2557.39420	0.04583
2556.10843	0.04548
2554.82266	0.04547
2553.53689	0.04569
2552.25112	0.04574
2550.96535	0.04539
2549.67958	0.04490
2548.39381	0.04465
2547.10805	0.04476
2545.82228	0.04506
2544.53651	0.04527
2543.25074	0.04520
2541.96497	0.04481
2540.67920	0.04425
2539.39343	0.04372
2538.10766	0.04336
2536.82190	0.04323
2535.53613	0.04332
2534.25036	0.04352
2532.96459	0.04364
2531.67882	0.04350
2530.39305	0.04315
2529.10728	0.04283
2527.82151	0.04271
2526.53574	0.04280
2525.24998	0.04296
2523.96421	0.04303
2522.67844	0.04297
2521.39267	0.04282
2520.10690	0.04266
2518.82113	0.04260
2517.53536	0.04271
2516.24959	0.04304
2514.96383	0.04356
2513.67806	0.04406
2512.39229	0.04423
2511.10652	0.04394
2509.82075	0.04330
2508.53498	0.04261
2507.24921	0.04209
2505.96344	0.04179
2504.67767	0.04162
2503.39191	0.04155
2502.10614	0.04157
2500.82037	0.04168
2499.53460	0.04186
2498.24883	0.04205
2496.96306	0.04214
2495.67729	0.04203
2494.39152	0.04175
2493.10576	0.04145
2491.81999	0.04125
2490.53422	0.04116
2489.24845	0.04108
2487.96268	0.04094
2486.67691	0.04077
2485.39114	0.04062
2484.10537	0.04053
2482.81960	0.04042
2481.53384	0.04023
2480.24807	0.04004
2478.96230	0.04000
2477.67653	0.04021
2476.39076	0.04059
2475.10499	0.04088
2473.81922	0.04090
2472.53345	0.04076
2471.24769	0.04068
2469.96192	0.04075
2468.67615	0.04082
2467.39038	0.04073
2466.10461	0.04055
2464.81884	0.04048
2463.53307	0.04057
2462.24730	0.04068
2460.96153	0.04059
2459.67577	0.04029
2458.39000	0.03997
2457.10423	0.03983
2455.81846	0.03991
2454.53269	0.04011
2453.24692	0.04028
2451.96115	0.04029
2450.67538	0.04013
2449.38962	0.03991
2448.10385	0.03977
2446.81808	0.03975
2445.53231	0.03975
2444.24654	0.03965
2442.96077	0.03950
2441.67500	0.03950
2440.38923	0.03971
2439.10346	0.03998
2437.81770	0.04006
2436.53193	0.03989
2435.24616	0.03969
2433.96039	0.03967
2432.67462	0.03979
2431.38885	0.03984
2430.10308	0.03972
2428.81731	0.03950
2427.53155	0.03933
2426.24578	0.03920
2424.96001	0.03908
2423.67424	0.03897
2422.38847	0.03891
2421.10270	0.03895
2419.81693	0.03907
2418.53116	0.03915
2417.24539	0.03913
2415.95963	0.03899
2414.67386	0.03882
2413.38809	0.03869
2412.10232	0.03869
2410.81655	0.03880
2409.53078	0.03890
2408.24501	0.03882
2406.95924	0.03854
2405.67347	0.03825
2404.38771	0.03815
2403.10194	0.03827
2401.81617	0.03847
2400.53040	0.03864
2399.24463	0.03869
2397.95886	0.03861
2396.67309	0.03839
2395.38732	0.03809
2394.10156	0.03783
2392.81579	0.03766
2391.53002	0.03761
2390.24425	0.03768
2388.95848	0.03784
2387.67271	0.03803
2386.38694	0.03816
2385.10117	0.03827
2383.81540	0.03845
2382.52964	0.03870
2381.24387	0.03890
2379.95810	0.03895
2378.67233	0.03889
2377.38656	0.03878
2376.10079	0.03867
2374.81502	0.03856
2373.52925	0.03848
2372.24349	0.03850
2370.95772	0.03865
2369.67195	0.03887
2368.38618	0.03913
2367.10041	0.03938
2365.81464	0.03958
2364.52887	0.03972
2363.24310	0.03982
2361.95733	0.03989
2360.67157	0.03990
2359.38580	0.03981
2358.10003	0.03964
2356.81426	0.03948
2355.52849	0.03943
2354.24272	0.03943
2352.95695	0.03936
2351.67118	0.03918
2350.38542	0.03898
2349.09965	0.03894
2347.81388	0.03909
2346.52811	0.03927
2345.24234	0.03929
2343.95657	0.03917
2342.67080	0.03904
2341.38503	0.03904
2340.09926	0.03916
2338.81350	0.03925
2337.52773	0.03925
2336.24196	0.03920
2334.95619	0.03918
2333.67042	0.03922
2332.38465	0.03919
2331.09888	0.03901
2329.81311	0.03878
2328.52735	0.03875
2327.24158	0.03903
2325.95581	0.03944
2324.67004	0.03969
2323.38427	0.03962
2322.09850	0.03935
2320.81273	0.03907
2319.52696	0.03889
2318.24119	0.03878
2316.95543	0.03868
2315.66966	0.03855
2314.38389	0.03829
2313.09812	0.03786
2311.81235	0.03729
2310.52658	0.03671
2309.24081	0.03631
2307.95504	0.03618
2306.66928	0.03625
2305.38351	0.03638
2304.09774	0.03640
2302.81197	0.03624
2301.52620	0.03590
2300.24043	0.03550
2298.95466	0.03516
2297.66889	0.03495
2296.38312	0.03483
2295.09736	0.03475
2293.81159	0.03475
2292.52582	0.03487
2291.24005	0.03502
2289.95428	0.03496
2288.66851	0.03460
2287.38274	0.03408
2286.09697	0.03362
2284.81121	0.03327
2283.52544	0.03297
2282.23967	0.03272
2280.95390	0.03257
2279.66813	0.03259
2278.38236	0.03273
2277.09659	0.03292
2275.81082	0.03309
2274.52505	0.03319
2273.23929	0.03312
2271.95352	0.03280
2270.66775	0.03214
2269.38198	0.03125
2268.09621	0.03036
2266.81044	0.02973
2265.52467	0.02945
2264.23890	0.02941
2262.95314	0.02952
2261.66737	0.02978
2260.38160	0.03020
2259.09583	0.03065
2257.81006	0.03089
2256.52429	0.03075
2255.23852	0.03020
2253.95275	0.02946
2252.66698	0.02883
2251.38122	0.02857
2250.09545	0.02875
2248.80968	0.02922
2247.52391	0.02963
2246.23814	0.02990
2244.95237	0.02991
2243.66660	0.02953
2242.38083	0.02881
2241.09507	0.02807
2239.80930	0.02774
2238.52353	0.02801
2237.23776	0.02861
2235.95199	0.02900
2234.66622	0.02883
2233.38045	0.02829
2232.09468	0.02782
2230.80891	0.02765
2229.52315	0.02765
2228.23738	0.02758
2226.95161	0.02745
2225.66584	0.02730
2224.38007	0.02713
2223.09430	0.02694
2221.80853	0.02681
2220.52276	0.02681
2219.23700	0.02680
2217.95123	0.02658
2216.66546	0.02609
2215.37969	0.02547
2214.09392	0.02490
2212.80815	0.02455
2211.52238	0.02459
2210.23661	0.02502
2208.95084	0.02559
2207.66508	0.02597
2206.37931	0.02607
2205.09354	0.02608
2203.80777	0.02621
2202.52200	0.02630
2201.23623	0.02600
2199.95046	0.02518
2198.66469	0.02416
2197.37893	0.02343
2196.09316	0.02320
2194.80739	0.02332
2193.52162	0.02348
2192.23585	0.02341
2190.95008	0.02299
2189.66431	0.02230
2188.37854	0.02162
2187.09277	0.02116
2185.80701	0.02086
2184.52124	0.02049
2183.23547	0.02018
2181.94970	0.02050
2180.66393	0.02189
2179.37816	0.02400
2178.09239	0.02580
2176.80662	0.02627
2175.52085	0.02514
2174.23509	0.02303
2172.94932	0.02102
2171.66355	0.01985
2170.37778	0.01942
2169.09201	0.01911
2167.80624	0.01848
2166.52047	0.01763
2165.23470	0.01688
2163.94894	0.01644
2162.66317	0.01626
2161.37740	0.01625
2160.09163	0.01640
2158.80586	0.01682
2157.52009	0.01743
2156.23432	0.01795
2154.94855	0.01832
2153.66278	0.01886
2152.37702	0.01978
2151.09125	0.02077
2149.80548	0.02132
2148.51971	0.02138
2147.23394	0.02136
2145.94817	0.02156
2144.66240	0.02189
2143.37663	0.02207
2142.09087	0.02183
2140.80510	0.02111
2139.51933	0.02029
2138.23356	0.02001
2136.94779	0.02063
2135.66202	0.02179
2134.37625	0.02277
2133.09048	0.02318
2131.80471	0.02318
2130.51895	0.02314
2129.23318	0.02321
2127.94741	0.02335
2126.66164	0.02354
2125.37587	0.02390
2124.09010	0.02445
2122.80433	0.02504
2121.51856	0.02555
2120.23280	0.02595
2118.94703	0.02624
2117.66126	0.02641
2116.37549	0.02647
2115.08972	0.02645
2113.80395	0.02630
2112.51818	0.02594
2111.23241	0.02543
2109.94664	0.02508
2108.66088	0.02524
2107.37511	0.02602
2106.08934	0.02704
2104.80357	0.02770
2103.51780	0.02758
2102.23203	0.02681
2100.94626	0.02586
2099.66049	0.02518
2098.37473	0.02464
2097.08896	0.02410
2095.80319	0.02363
2094.51742	0.02342
2093.23165	0.02367
2091.94588	0.02422
2090.66011	0.02467
2089.37434	0.02471
2088.08857	0.02440
2086.80281	0.02405
2085.51704	0.02385
2084.23127	0.02381
2082.94550	0.02387
2081.65973	0.02402
2080.37396	0.02423
2079.08819	0.02432
2077.80242	0.02413
2076.51666	0.02365
2075.23089	0.02309
2073.94512	0.02276
2072.65935	0.02277
2071.37358	0.02286
2070.08781	0.02271
2068.80204	0.02227
2067.51627	0.02191
2066.23050	0.02211
2064.94474	0.02289
2063.65897	0.02370
2062.37320	0.02384
2061.08743	0.02310
2059.80166	0.02189
2058.51589	0.02085
2057.23012	0.02031
2055.94435	0.02015
2054.65859	0.01997
2053.37282	0.01955
2052.08705	0.01905
2050.80128	0.01874
2049.51551	0.01870
2048.22974	0.01876
2046.94397	0.01876
2045.65820	0.01874
2044.37243	0.01885
2043.08667	0.01909
2041.80090	0.01922
2040.51513	0.01898
2039.22936	0.01827
2037.94359	0.01732
2036.65782	0.01650
2035.37205	0.01620
2034.08628	0.01661
2032.80052	0.01751
2031.51475	0.01825
2030.22898	0.01830
2028.94321	0.01770
2027.65744	0.01710
2026.37167	0.01722
2025.08590	0.01824
2023.80013	0.01962
2022.51436	0.02039
2021.22860	0.01990
2019.94283	0.01838
2018.65706	0.01673
2017.37129	0.01573
2016.08552	0.01554
2014.79975	0.01598
2013.51398	0.01682
2012.22821	0.01778
2010.94245	0.01848
2009.65668	0.01862
2008.37091	0.01822
2007.08514	0.01752
2005.79937	0.01693
2004.51360	0.01689
2003.22783	0.01754
2001.94206	0.01859
2000.65629	0.01939
1999.37053	0.01953
1998.08476	0.01918
1996.79899	0.01886
1995.51322	0.01886
1994.22745	0.01903
1992.94168	0.01906
1991.65591	0.01887
1990.37014	0.01860
1989.08438	0.01844
1987.79861	0.01853
1986.51284	0.01888
1985.22707	0.01922
1983.94130	0.01923
1982.65553	0.01874
1981.36976	0.01790
1980.08399	0.01693
1978.79822	0.01589
1977.51246	0.01480
1976.22669	0.01392
1974.94092	0.01376
1973.65515	0.01463
1972.36938	0.01621
1971.08361	0.01771
1969.79784	0.01841
1968.51207	0.01821
1967.22631	0.01763
1965.94054	0.01732
1964.65477	0.01751
1963.36900	0.01794
1962.08323	0.01818
1960.79746	0.01803
1959.51169	0.01760
1958.22592	0.01725
1956.94015	0.01725
1955.65439	0.01759
1954.36862	0.01800
1953.08285	0.01822
1951.79708	0.01827
1950.51131	0.01835
1949.22554	0.01854
1947.93977	0.01877
1946.65400	0.01901
1945.36823	0.01936
1944.08247	0.01982
1942.79670	0.02015
1941.51093	0.02009
1940.22516	0.01967
1938.93939	0.01926
1937.65362	0.01925
1936.36785	0.01964
1935.08208	0.02009
1933.79632	0.02022
1932.51055	0.01996
1931.22478	0.01952
1929.93901	0.01917
1928.65324	0.01909
1927.36747	0.01931
1926.08170	0.01970
1924.79593	0.01999
1923.51016	0.02006
1922.22440	0.02001
1920.93863	0.02009
1919.65286	0.02033
1918.36709	0.02058
1917.08132	0.02067
1915.79555	0.02065
1914.50978	0.02066
1913.22401	0.02080
1911.93825	0.02102
1910.65248	0.02117
1909.36671	0.02114
1908.08094	0.02092
1906.79517	0.02062
1905.50940	0.02043
1904.22363	0.02050
1902.93786	0.02082
1901.65209	0.02116
1900.36633	0.02127
1899.08056	0.02108
1897.79479	0.02074
1896.50902	0.02053
1895.22325	0.02055
1893.93748	0.02069
1892.65171	0.02076
1891.36594	0.02066
1890.08018	0.02048
1888.79441	0.02036
1887.50864	0.02036
1886.22287	0.02048
1884.93710	0.02063
1883.65133	0.02071
1882.36556	0.02063
1881.07979	0.02042
1879.79402	0.02024
1878.50826	0.02023
1877.22249	0.02044
1875.93672	0.02073
1874.65095	0.02095
1873.36518	0.02102
1872.07941	0.02097
1870.79364	0.02086
1869.50787	0.02078
1868.22211	0.02078
1866.93634	0.02084
1865.65057	0.02082
1864.36480	0.02064
1863.07903	0.02034
1861.79326	0.02008
1860.50749	0.01998
1859.22172	0.02002
1857.93595	0.02008
1856.65019	0.02012
1855.36442	0.02024
1854.07865	0.02042
1852.79288	0.02054
1851.50711	0.02045
1850.22134	0.02018
1848.93557	0.01991
1847.64980	0.01978
1846.36404	0.01982
1845.07827	0.01998
1843.79250	0.02022
1842.50673	0.02048
1841.22096	0.02062
1839.93519	0.02058
1838.64942	0.02040
1837.36365	0.02011
1836.07788	0.01982
1834.79212	0.01964
1833.50635	0.01968
1832.22058	0.01990
1830.93481	0.02018
1829.64904	0.02042
1828.36327	0.02053
1827.07750	0.02049
1825.79173	0.02037
1824.50597	0.02026
1823.22020	0.02019
1821.93443	0.02008
1820.64866	0.01991
1819.36289	0.01973
1818.07712	0.01963
1816.79135	0.01966
1815.50558	0.01976
1814.21981	0.01982
1812.93405	0.01977
1811.64828	0.01960
1810.36251	0.01944
1809.07674	0.01940
1807.79097	0.01949
1806.50520	0.01962
1805.21943	0.01967
1803.93366	0.01960
1802.64790	0.01946
1801.36213	0.01930
1800.07636	0.01919
1798.79059	0.01919
1797.50482	0.01930
1796.21905	0.01946
1794.93328	0.01955
1793.64751	0.01949
1792.36174	0.01935
1791.07598	0.01924
1789.79021	0.01914
1788.50444	0.01898
1787.21867	0.01879
1785.93290	0.01864
1784.64713	0.01862
1783.36136	0.01869
1782.07559	0.01871
1780.78983	0.01863
1779.50406	0.01849
1778.21829	0.01838
1776.93252	0.01834
1775.64675	0.01833
1774.36098	0.01829
1773.07521	0.01825
1771.78944	0.01828
1770.50367	0.01837
1769.21791	0.01842
1767.93214	0.01842
1766.64637	0.01844
1765.36060	0.01845
1764.07483	0.01839
1762.78906	0.01826
1761.50329	0.01813
1760.21752	0.01805
1758.93176	0.01801
1757.64599	0.01800
1756.36022	0.01808
1755.07445	0.01825
1753.78868	0.01843
1752.50291	0.01857
1751.21714	0.01870
1749.93137	0.01882
1748.64560	0.01891
1747.35984	0.01897
1746.07407	0.01906
1744.78830	0.01920
1743.50253	0.01938
1742.21676	0.01954
1740.93099	0.01969
1739.64522	0.01993
1738.35945	0.02032
1737.07369	0.02072
1735.78792	0.02097
1734.50215	0.02113
1733.21638	0.02139
1731.93061	0.02178
1730.64484	0.02213
1729.35907	0.02234
1728.07330	0.02248
1726.78753	0.02267
1725.50177	0.02298
1724.21600	0.02345
1722.93023	0.02401
1721.64446	0.02458
1720.35869	0.02510
1719.07292	0.02560
1717.78715	0.02623
1716.50138	0.02702
1715.21561	0.02787
1713.92985	0.02871
1712.64408	0.02959
1711.35831	0.03059
1710.07254	0.03173
1708.78677	0.03297
1707.50100	0.03428
1706.21523	0.03565
1704.92946	0.03711
1703.64370	0.03862
1702.35793	0.04007
1701.07216	0.04156
1699.78639	0.04330
1698.50062	0.04525
1697.21485	0.04720
1695.92908	0.04914
1694.64331	0.05118
1693.35754	0.05322
1692.07178	0.05506
1690.78601	0.05681
1689.50024	0.05870
1688.21447	0.06078
1686.92870	0.06298
1685.64293	0.06523
1684.35716	0.06759
1683.07139	0.07007
1681.78563	0.07253
1680.49986	0.07500
1679.21409	0.07765
1677.92832	0.08053
1676.64255	0.08359
1675.35678	0.08677
1674.07101	0.09008
1672.78524	0.09345
1671.49947	0.09685
1670.21371	0.10031
1668.92794	0.10384
1667.64217	0.10734
1666.35640	0.11067
1665.07063	0.11384
1663.78486	0.11696
1662.49909	0.12011
1661.21332	0.12324
1659.92756	0.12621
1658.64179	0.12896
1657.35602	0.13151
1656.07025	0.13384
1654.78448	0.13594
1653.49871	0.13795
1652.21294	0.13997
1650.92717	0.14186
1649.64140	0.14338
1648.35564	0.14460
1647.06987	0.14579
1645.78410	0.14709
1644.49833	0.14842
1643.21256	0.14964
1641.92679	0.15076
1640.64102	0.15190
1639.35525	0.15310
1638.06949	0.15426
1636.78372	0.15530
1635.49795	0.15623
1634.21218	0.15711
1632.92641	0.15787
1631.64064	0.15839
1630.35487	0.15860
1629.06910	0.15851
1627.78333	0.15810
1626.49757	0.15734
1625.21180	0.15615
1623.92603	0.15457
1622.64026	0.15266
1621.35449	0.15049
1620.06872	0.14801
1618.78295	0.14519
1617.49718	0.14216
1616.21142	0.13911
1614.92565	0.13611
1613.63988	0.13303
1612.35411	0.12983
1611.06834	0.12657
1609.78257	0.12334
1608.49680	0.12015
1607.21103	0.11698
1605.92526	0.11383
1604.63950	0.11071
1603.35373	0.10769
1602.06796	0.10483
1600.78219	0.10216
1599.49642	0.09966
1598.21065	0.09731
1596.92488	0.09513
1595.63911	0.09312
1594.35335	0.09127
1593.06758	0.08957
1591.78181	0.08803
1590.49604	0.08668
1589.21027	0.08557
1587.92450	0.08470
1586.63873	0.08403
1585.35296	0.08355
1584.06719	0.08322
1582.78143	0.08302
1581.49566	0.08299
1580.20989	0.08317
1578.92412	0.08356
1577.63835	0.08415
1576.35258	0.08503
1575.06681	0.08624
1573.78104	0.08765
1572.49528	0.08905
1571.20951	0.09050
1569.92374	0.09216
1568.63797	0.09411
1567.35220	0.09624
1566.06643	0.09841
1564.78066	0.10061
1563.49489	0.10285
1562.20912	0.10508
1560.92336	0.10723
1559.63759	0.10938
1558.35182	0.11161
1557.06605	0.11381
1555.78028	0.11579
1554.49451	0.11755
1553.20874	0.11923
1551.92297	0.12083
1550.63721	0.12227
1549.35144	0.12353
1548.06567	0.12463
1546.77990	0.12557
1545.49413	0.12638
1544.20836	0.12713
1542.92259	0.12778
1541.63682	0.12826
1540.35105	0.12859
1539.06529	0.12884
1537.77952	0.12900
1536.49375	0.12895
1535.20798	0.12865
1533.92221	0.12825
1532.63644	0.12789
1531.35067	0.12753
1530.06490	0.12706
1528.77914	0.12646
1527.49337	0.12579
1526.20760	0.12511
1524.92183	0.12443
1523.63606	0.12371
1522.35029	0.12293
1521.06452	0.12216
1519.77875	0.12139
1518.49298	0.12048
1517.20722	0.11937
1515.92145	0.11810
1514.63568	0.11669
1513.34991	0.11516
1512.06414	0.11354
1510.77837	0.11187
1509.49260	0.11010
1508.20683	0.10815
1506.92107	0.10612
1505.63530	0.10412
1504.34953	0.10215
1503.06376	0.10010
1501.77799	0.09799
1500.49222	0.09591
1499.20645	0.09388
1497.92068	0.09185
1496.63491	0.08979
1495.34915	0.08776
1494.06338	0.08579
1492.77761	0.08383
1491.49184	0.08189
1490.20607	0.08005
1488.92030	0.07840
1487.63453	0.07696
1486.34876	0.07573
1485.06299	0.07467
1483.77723	0.07377
1482.49146	0.07305
1481.20569	0.07255
1479.91992	0.07232
1478.63415	0.07232
1477.34838	0.07254
1476.06261	0.07298
1474.77684	0.07362
1473.49108	0.07445
1472.20531	0.07546
1470.91954	0.07659
1469.63377	0.07772
1468.34800	0.07880
1467.06223	0.07988
1465.77646	0.08104
1464.49069	0.08233
1463.20492	0.08371
1461.91916	0.08509
1460.63339	0.08642
1459.34762	0.08770
1458.06185	0.08898
1456.77608	0.09035
1455.49031	0.09175
1454.20454	0.09300
1452.91877	0.09396
1451.63301	0.09465
1450.34724	0.09510
1449.06147	0.09534
1447.77570	0.09539
1446.48993	0.09529
1445.20416	0.09502
1443.91839	0.09459
1442.63262	0.09405
1441.34685	0.09345
1440.06109	0.09279
1438.77532	0.09198
1437.48955	0.09100
1436.20378	0.08992
1434.91801	0.08878
1433.63224	0.08758
1432.34647	0.08637
1431.06070	0.08522
1429.77494	0.08421
1428.48917	0.08334
1427.20340	0.08259
1425.91763	0.08194
1424.63186	0.08141
1423.34609	0.08101
1422.06032	0.08069
1420.77455	0.08044
1419.48878	0.08028
1418.20302	0.08024
1416.91725	0.08026
1415.63148	0.08027
1414.34571	0.08031
1413.05994	0.08043
1411.77417	0.08061
1410.48840	0.08081
1409.20263	0.08099
1407.91687	0.08116
1406.63110	0.08128
1405.34533	0.08136
1404.05956	0.08141
1402.77379	0.08144
1401.48802	0.08140
1400.20225	0.08125
1398.91648	0.08097
1397.63071	0.08059
1396.34495	0.08015
1395.05918	0.07977
1393.77341	0.07950
1392.48764	0.07934
1391.20187	0.07918
1389.91610	0.07896
1388.63033	0.07871
1387.34456	0.07846
1386.05880	0.07822
1384.77303	0.07796
1383.48726	0.07765
1382.20149	0.07734
1380.91572	0.07709
1379.62995	0.07687
1378.34418	0.07663
1377.05841	0.07631
1375.77264	0.07588
1374.48688	0.07538
1373.20111	0.07484
1371.91534	0.07428
1370.62957	0.07368
1369.34380	0.07301
1368.05803	0.07229
1366.77226	0.07154
1365.48649	0.07077
1364.20073	0.07003
1362.91496	0.06934
1361.62919	0.06874
1360.34342	0.06822
1359.05765	0.06780
1357.77188	0.06749
1356.48611	0.06730
1355.20034	0.06727
1353.91457	0.06743
1352.62881	0.06778
1351.34304	0.06828
1350.05727	0.06888
1348.77150	0.06953
1347.48573	0.07023
1346.19996	0.07099
1344.91419	0.07181
1343.62842	0.07264
1342.34266	0.07342
1341.05689	0.07409
1339.77112	0.07463
1338.48535	0.07506
1337.19958	0.07536
1335.91381	0.07551
1334.62804	0.07549
1333.34227	0.07526
1332.05650	0.07486
1330.77074	0.07433
1329.48497	0.07374
1328.19920	0.07310
1326.91343	0.07244
1325.62766	0.07182
1324.34189	0.07127
1323.05612	0.07080
1321.77035	0.07042
1320.48459	0.07009
1319.19882	0.06981
1317.91305	0.06956
1316.62728	0.06932
1315.34151	0.06907
1314.05574	0.06878
1312.76997	0.06846
1311.48420	0.06811
1310.19843	0.06774
1308.91267	0.06737
1307.62690	0.06702
1306.34113	0.06673
1305.05536	0.06651
1303.76959	0.06635
1302.48382	0.06621
1301.19805	0.06608
1299.91228	0.06595
1298.62652	0.06581
1297.34075	0.06566
1296.05498	0.06555
1294.76921	0.06554
1293.48344	0.06565
1292.19767	0.06589
1290.91190	0.06620
1289.62613	0.06659
1288.34036	0.06703
1287.05460	0.06750
1285.76883	0.06798
1284.48306	0.06843
1283.19729	0.06882
1281.91152	0.06914
1280.62575	0.06937
1279.33998	0.06950
1278.05421	0.06957
1276.76845	0.06960
1275.48268	0.06962
1274.19691	0.06963
1272.91114	0.06964
1271.62537	0.06969
1270.33960	0.06980
1269.05383	0.06996
1267.76806	0.07017
1266.48229	0.07039
1265.19653	0.07063
1263.91076	0.07092
1262.62499	0.07127
1261.33922	0.07170
1260.05345	0.07219
1258.76768	0.07271
1257.48191	0.07324
1256.19614	0.07381
1254.91037	0.07444
1253.62461	0.07511
1252.33884	0.07581
1251.05307	0.07655
1249.76730	0.07734
1248.48153	0.07822
1247.19576	0.07920
1245.90999	0.08024
1244.62422	0.08131
1243.33846	0.08235
1242.05269	0.08330
1240.76692	0.08411
1239.48115	0.08475
1238.19538	0.08524
1236.90961	0.08562
1235.62384	0.08592
1234.33807	0.08613
1233.05230	0.08621
1231.76654	0.08611
1230.48077	0.08581
1229.19500	0.08531
1227.90923	0.08462
1226.62346	0.08375
1225.33769	0.08271
1224.05192	0.08156
1222.76615	0.08041
1221.48039	0.07931
1220.19462	0.07827
1218.90885	0.07725
1217.62308	0.07625
1216.33731	0.07533
1215.05154	0.07460
1213.76577	0.07415
1212.48000	0.07396
1211.19423	0.07396
1209.90847	0.07407
1208.62270	0.07426
1207.33693	0.07451
1206.05116	0.07477
1204.76539	0.07500
1203.47962	0.07514
1202.19385	0.07512
1200.90808	0.07491
1199.62232	0.07448
1198.33655	0.07386
1197.05078	0.07308
1195.76501	0.07219
1194.47924	0.07126
1193.19347	0.07035
1191.90770	0.06948
1190.62193	0.06864
1189.33616	0.06783
1188.05040	0.06706
1186.76463	0.06636
1185.47886	0.06574
1184.19309	0.06517
1182.90732	0.06463
1181.62155	0.06412
1180.33578	0.06368
1179.05001	0.06334
1177.76425	0.06306
1176.47848	0.06276
1175.19271	0.06241
1173.90694	0.06205
1172.62117	0.06178
1171.33540	0.06164
1170.04963	0.06160
1168.76386	0.06161
1167.47809	0.06166
1166.19233	0.06176
1164.90656	0.06187
1163.62079	0.06196
1162.33502	0.06199
1161.04925	0.06194
1159.76348	0.06181
1158.47771	0.06159
1157.19194	0.06125
1155.90618	0.06078
1154.62041	0.06020
1153.33464	0.05957
1152.04887	0.05895
1150.76310	0.05835
1149.47733	0.05775
1148.19156	0.05712
1146.90579	0.05650
1145.62002	0.05595
1144.33426	0.05551
1143.04849	0.05512
1141.76272	0.05470
1140.47695	0.05420
1139.19118	0.05365
1137.90541	0.05311
1136.61964	0.05262
1135.33387	0.05222
1134.04811	0.05196
1132.76234	0.05181
1131.47657	0.05172
1130.19080	0.05162
1128.90503	0.05150
1127.61926	0.05140
1126.33349	0.05134
1125.04772	0.05129
1123.76195	0.05118
1122.47619	0.05100
1121.19042	0.05081
1119.90465	0.05065
1118.61888	0.05052
1117.33311	0.05045
1116.04734	0.05046
1114.76157	0.05055
1113.47580	0.05067
1112.19004	0.05078
1110.90427	0.05087
1109.61850	0.05094
1108.33273	0.05101
1107.04696	0.05109
1105.76119	0.05119
1104.47542	0.05133
1103.18965	0.05150
1101.90388	0.05170
1100.61812	0.05189
1099.33235	0.05207
1098.04658	0.05225
1096.76081	0.05244
1095.47504	0.05266
1094.18927	0.05294
1092.90350	0.05328
1091.61773	0.05366
1090.33197	0.05408
1089.04620	0.05458
1087.76043	0.05524
1086.47466	0.05607
1085.18889	0.05695
1083.90312	0.05772
1082.61735	0.05825
1081.33158	0.05854
1080.04581	0.05860
1078.76005	0.05847
1077.47428	0.05817
1076.18851	0.05775
1074.90274	0.05732
1073.61697	0.05696
1072.33120	0.05667
1071.04543	0.05642
1069.75966	0.05619
1068.47390	0.05603
1067.18813	0.05593
1065.90236	0.05584
1064.61659	0.05576
1063.33082	0.05567
1062.04505	0.05555
1060.75928	0.05539
1059.47351	0.05517
1058.18774	0.05494
1056.90198	0.05469
1055.61621	0.05442
1054.33044	0.05413
1053.04467	0.05382
1051.75890	0.05349
1050.47313	0.05311
1049.18736	0.05275
1047.90159	0.05247
1046.61583	0.05231
1045.33006	0.05223
1044.04429	0.05218
1042.75852	0.05211
1041.47275	0.05209
1040.18698	0.05213
1038.90121	0.05226
1037.61544	0.05244
1036.32967	0.05267
1035.04391	0.05296
1033.75814	0.05331
1032.47237	0.05369
1031.18660	0.05400
1029.90083	0.05413
1028.61506	0.05402
1027.32929	0.05368
1026.04352	0.05315
1024.75775	0.05249
1023.47199	0.05178
1022.18622	0.05110
1020.90045	0.05055
1019.61468	0.05013
1018.32891	0.04981
1017.04314	0.04957
1015.75737	0.04935
1014.47160	0.04913
1013.18584	0.04886
1011.90007	0.04853
1010.61430	0.04812
1009.32853	0.04764
1008.04276	0.04712
1006.75699	0.04660
1005.47122	0.04611
1004.18545	0.04564
1002.89968	0.04522
1001.61392	0.04482
1000.32815	0.04440
999.04238	0.04395
997.75661	0.04350
996.47084	0.04312
995.18507	0.04282
993.89930	0.04258
992.61353	0.04231
991.32777	0.04200
990.04200	0.04163
988.75623	0.04130
987.47046	0.04105
986.18469	0.04092
984.89892	0.04082
983.61315	0.04069
982.32738	0.04055
981.04161	0.04052
979.75585	0.04069
978.47008	0.04098
977.18431	0.04127
975.89854	0.04146
974.61277	0.04154
973.32700	0.04154
972.04123	0.04145
970.75546	0.04125
969.46970	0.04096
968.18393	0.04065
966.89816	0.04042
965.61239	0.04026
964.32662	0.04014
963.04085	0.04001
961.75508	0.03985
960.46931	0.03965
959.18354	0.03943
957.89778	0.03925
956.61201	0.03915
955.32624	0.03915
954.04047	0.03920
952.75470	0.03918
951.46893	0.03906
950.18316	0.03890
948.89739	0.03879
947.61163	0.03876
946.32586	0.03879
945.04009	0.03885
943.75432	0.03896
942.46855	0.03909
941.18278	0.03915
939.89701	0.03907
938.61124	0.03893
937.32547	0.03883
936.03971	0.03878
934.75394	0.03875
933.46817	0.03868
932.18240	0.03855
930.89663	0.03838
929.61086	0.03819
928.32509	0.03801
927.03932	0.03788
925.75356	0.03784
924.46779	0.03787
923.18202	0.03791
921.89625	0.03789
920.61048	0.03777
919.32471	0.03757
918.03894	0.03733
916.75317	0.03710
915.46740	0.03689
914.18164	0.03669
912.89587	0.03649
911.61010	0.03627
910.32433	0.03605
909.03856	0.03586
907.75279	0.03576
906.46702	0.03569
905.18125	0.03561
903.89549	0.03547
902.60972	0.03530
901.32395	0.03512
900.03818	0.03498
898.75241	0.03488
897.46664	0.03480
896.18087	0.03470
894.89510	0.03458
893.60933	0.03448
892.32357	0.03441
891.03780	0.03435
889.75203	0.03428
888.46626	0.03420
887.18049	0.03417
885.89472	0.03418
884.60895	0.03420
883.32318	0.03420
882.03742	0.03412
880.75165	0.03398
879.46588	0.03385
878.18011	0.03386
876.89434	0.03409
875.60857	0.03441
874.32280	0.03463
873.03703	0.03462
871.75126	0.03448
870.46550	0.03439
869.17973	0.03441
867.89396	0.03445
866.60819	0.03440
865.32242	0.03421
864.03665	0.03396
862.75088	0.03377
861.46511	0.03370
860.17935	0.03371
858.89358	0.03374
857.60781	0.03376
856.32204	0.03376
855.03627	0.03377
853.75050	0.03381
852.46473	0.03387
851.17896	0.03391
849.89319	0.03388
848.60743	0.03378
847.32166	0.03361
846.03589	0.03341
844.75012	0.03323
843.46435	0.03309
842.17858	0.03299
840.89281	0.03286
839.60704	0.03267
838.32128	0.03248
837.03551	0.03236
835.74974	0.03236
834.46397	0.03245
833.17820	0.03252
831.89243	0.03253
830.60666	0.03249
829.32089	0.03247
828.03512	0.03247
826.74936	0.03248
825.46359	0.03247
824.17782	0.03245
822.89205	0.03248
821.60628	0.03257
820.32051	0.03271
819.03474	0.03282
817.74897	0.03286
816.46321	0.03285
815.17744	0.03285
813.89167	0.03289
812.60590	0.03297
811.32013	0.03309
810.03436	0.03326
808.74859	0.03346
807.46282	0.03368
806.17705	0.03387
804.89129	0.03400
803.60552	0.03407
802.31975	0.03408
801.03398	0.03409
799.74821	0.03410
798.46244	0.03416
797.17667	0.03427
795.89090	0.03444
794.60513	0.03461
793.31937	0.03475
792.03360	0.03488
790.74783	0.03503
789.46206	0.03517
788.17629	0.03527
786.89052	0.03536
785.60475	0.03546
784.31898	0.03557
783.03322	0.03563
781.74745	0.03559
780.46168	0.03549
779.17591	0.03540
777.89014	0.03541
776.60437	0.03550
775.31860	0.03565
774.03283	0.03586
772.74706	0.03611
771.46130	0.03635
770.17553	0.03654
768.88976	0.03663
767.60399	0.03666
766.31822	0.03671
765.03245	0.03685
763.74668	0.03707
762.46091	0.03734
761.17515	0.03757
759.88938	0.03774
758.60361	0.03787
757.31784	0.03798
756.03207	0.03810
754.74630	0.03822
753.46053	0.03834
752.17476	0.03845
750.88899	0.03860
749.60323	0.03880
748.31746	0.03902
747.03169	0.03919
745.74592	0.03927
744.46015	0.03929
743.17438	0.03933
741.88861	0.03938
740.60284	0.03941
739.31708	0.03941
738.03131	0.03945
736.74554	0.03964
735.45977	0.04000
734.17400	0.04042
732.88823	0.04079
731.60246	0.04109
730.31669	0.04133
729.03092	0.04156
727.74516	0.04176
726.45939	0.04194
725.17362	0.04212
723.88785	0.04231
722.60208	0.04261
721.31631	0.04295
720.03054	0.04327
718.74477	0.04354
717.45901	0.04375
716.17324	0.04387
714.88747	0.04392
713.60170	0.04392
712.31593	0.04395
711.03016	0.04405
709.74439	0.04424
708.45862	0.04448
707.17285	0.04479
705.88709	0.04514
704.60132	0.04549
703.31555	0.04578
702.02978	0.04599
700.74401	0.04615
699.45824	0.04630
698.17247	0.04643
696.88670	0.04653
695.60094	0.04661
694.31517	0.04667
693.02940	0.04672
691.74363	0.04680
690.45786	0.04691
689.17209	0.04705
687.88632	0.04718
686.60055	0.04730
685.31478	0.04742
684.02902	0.04754
682.74325	0.04766
681.45748	0.04779
680.17171	0.04793
678.88594	0.04810
677.60017	0.04828
676.31440	0.04845
675.02863	0.04860
673.74287	0.04872
672.45710	0.04882
671.17133	0.04892
669.88556	0.04906
668.59979	0.04923
667.31402	0.04940
666.02825	0.04953
664.74248	0.04962
663.45671	0.04968
662.17095	0.04970
660.88518	0.04970
659.59941	0.04974
658.31364	0.04984
657.02787	0.05002
655.74210	0.05020
654.45633	0.05035
653.17056	0.05043
651.88480	0.05049
650.59903	0.05058
649.31326	0.05069
648.02749	0.05075
646.74172	0.05070
645.45595	0.05060
644.17018	0.05056
642.88441	0.05060
641.59864	0.05067
640.31288	0.05068
639.02711	0.05060
637.74134	0.05053
636.45557	0.05055
635.16980	0.05067
633.88403	0.05080
632.59826	0.05085
631.31249	0.05078
630.02673	0.05071
628.74096	0.05071
627.45519	0.05053
626.16942	0.05044
624.88365	0.05013
623.59788	0.04946
622.31211	0.04887
621.02634	0.04901
619.74057	0.05006
618.45481	0.05162
617.16904	0.05312
615.88327	0.05404
614.59750	0.05409
613.31173	0.05334
612.02596	0.05198
610.74019	0.05027
609.45442	0.04886
608.16866	0.04860
606.88289	0.04957
605.59712	0.05086
604.31135	0.05154
603.02558	0.05151
601.73981	0.05136
600.45404	0.05152
599.16827	0.05194
597.88250	0.05234
596.59674	0.05259
595.31097	0.05266
594.02520	0.05256
592.73943	0.05229
591.45366	0.05197
590.16789	0.05176
588.88212	0.05174
587.59635	0.05186
586.31059	0.05199
585.02482	0.05208
583.73905	0.05215
582.45328	0.05222
581.16751	0.05228
579.88174	0.05226
578.59597	0.05211
577.31020	0.05189
576.02443	0.05173
574.73867	0.05172
573.45290	0.05182
572.16713	0.05193
570.88136	0.05201
569.59559	0.05212
568.30982	0.05232
567.02405	0.05255
565.73828	0.05276
564.45251	0.05292
563.16675	0.05307
561.88098	0.05317
560.59521	0.05315
559.30944	0.05298
558.02367	0.05279
556.73790	0.05273
555.45213	0.05285
554.16636	0.05307
552.88060	0.05328
551.59483	0.05340
550.30906	0.05340
549.02329	0.05331
547.73752	0.05314
546.45175	0.05296
545.16598	0.05282
543.88021	0.05273
542.59444	0.05262
541.30868	0.05245
540.02291	0.05225
538.73714	0.05208
537.45137	0.05199
536.16560	0.05199
534.87983	0.05201
533.59406	0.05201
532.30829	0.05198
531.02253	0.05194
529.73676	0.05194
528.45099	0.05204
527.16522	0.05225
525.87945	0.05247
524.59368	0.05255
523.30791	0.05242
522.02214	0.05217
520.73637	0.05194
519.45061	0.05175
518.16484	0.05154
516.87907	0.05126
515.59330	0.05096
514.30753	0.05069
513.02176	0.05051
511.73599	0.05042
510.45022	0.05036
509.16446	0.05026
507.87869	0.05009
506.59292	0.04987
505.30715	0.04965
504.02138	0.04940
502.73561	0.04911
501.44984	0.04880
500.16407	0.04857
498.87830	0.04848
497.59254	0.04852
496.30677	0.04855
495.02100	0.04845
493.73523	0.04817
492.44946	0.04779
491.16369	0.04741
489.87792	0.04715
488.59215	0.04702
487.30639	0.04697
486.02062	0.04693
484.73485	0.04687
483.44908	0.04682
482.16331	0.04679
480.87754	0.04675
479.59177	0.04662
478.30600	0.04639
477.02023	0.04612
475.73447	0.04590
474.44870	0.04578
473.16293	0.04570
471.87716	0.04554
470.59139	0.04526
469.30562	0.04493
468.01985	0.04470
466.73408	0.04467
465.44832	0.04478
464.16255	0.04485
462.87678	0.04472
461.59101	0.04442
460.30524	0.04405
459.01947	0.04374
457.73370	0.04350
456.44793	0.04332
455.16216	0.04317
453.87640	0.04305
452.59063	0.04293
451.30486	0.04277
450.01909	0.04253
448.73332	0.04220
447.44755	0.04186
446.16178	0.04159
444.87601	0.04141
443.59025	0.04127
442.30448	0.04109
441.01871	0.04088
439.73294	0.04066
438.44717	0.04046
437.16140	0.04024
435.87563	0.04002
434.58986	0.03981
433.30409	0.03966
432.01833	0.03956
430.73256	0.03948
429.44679	0.03938
428.16102	0.03921
426.87525	0.03900
425.58948	0.03876
424.30371	0.03854
423.01794	0.03834
421.73218	0.03816
420.44641	0.03797
419.16064	0.03777
417.87487	0.03759
416.58910	0.03741
415.30333	0.03723
414.01756	0.03706
412.73179	0.03694
411.44602	0.03686
410.16026	0.03675
408.87449	0.03659
407.58872	0.03639
406.30295	0.03618
405.01718	0.03600
403.73141	0.03585
402.44564	0.03574
401.15987	0.03567
399.87411	0.03561
