3996.16951	0.07094
3994.24086	0.07100
3992.31221	0.07145
3990.38355	0.07166
3988.45490	0.07188
3986.52625	0.07241
3984.59759	0.07258
3982.66894	0.07220
3980.74029	0.07188
3978.81163	0.07175
3976.88298	0.07138
3974.95433	0.07078
3973.02567	0.07033
3971.09702	0.06994
3969.16837	0.06959
3967.23972	0.06991
3965.31106	0.07092
3963.38241	0.07177
3961.45376	0.07187
3959.52510	0.07123
3957.59645	0.07025
3955.66780	0.06957
3953.73914	0.06978
3951.81049	0.07043
3949.88184	0.07061
3947.95318	0.07034
3946.02453	0.07004
3944.09588	0.06999
3942.16722	0.07030
3940.23857	0.07059
3938.30992	0.07030
3936.38126	0.06952
3934.45261	0.06914
3932.52396	0.06946
3930.59530	0.06980
3928.66665	0.06960
3926.73800	0.06886
3924.80934	0.06795
3922.88069	0.06738
3920.95204	0.06742
3919.02338	0.06782
3917.09473	0.06825
3915.16608	0.06854
3913.23742	0.06896
3911.30877	0.06940
3909.38012	0.06920
3907.45146	0.06852
3905.52281	0.06835
3903.59416	0.06883
3901.66550	0.06911
3899.73685	0.06860
3897.80820	0.06774
3895.87955	0.06721
3893.95089	0.06704
3892.02224	0.06708
3890.09359	0.06724
3888.16493	0.06757
3886.23628	0.06779
3884.30763	0.06731
3882.37897	0.06677
3880.45032	0.06669
3878.52167	0.06656
3876.59301	0.06640
3874.66436	0.06646
3872.73571	0.06665
3870.80705	0.06694
3868.87840	0.06704
3866.94975	0.06710
3865.02109	0.06725
3863.09244	0.06701
3861.16379	0.06635
3859.23513	0.06580
3857.30648	0.06607
3855.37783	0.06680
3853.44917	0.06683
3851.52052	0.06641
3849.59187	0.06651
3847.66321	0.06665
3845.73456	0.06654
3843.80591	0.06640
3841.87725	0.06599
3839.94860	0.06541
3838.01995	0.06497
3836.09129	0.06447
3834.16264	0.06413
3832.23399	0.06414
3830.30534	0.06425
3828.37668	0.06420
3826.44803	0.06393
3824.51938	0.06380
3822.59072	0.06414
3820.66207	0.06429
3818.73342	0.06419
3816.80476	0.06440
3814.87611	0.06436
3812.94746	0.06421
3811.01880	0.06415
3809.09015	0.06392
3807.16150	0.06358
3805.23284	0.06277
3803.30419	0.06212
3801.37554	0.06209
3799.44688	0.06220
3797.51823	0.06257
3795.58958	0.06292
3793.66092	0.06291
3791.73227	0.06278
3789.80362	0.06266
3787.87496	0.06258
3785.94631	0.06256
3784.01766	0.06236
3782.08900	0.06198
3780.16035	0.06206
3778.23170	0.06252
3776.30304	0.06245
3774.37439	0.06166
3772.44574	0.06116
3770.51708	0.06132
3768.58843	0.06136
3766.65978	0.06107
3764.73112	0.06053
3762.80247	0.05993
3760.87382	0.05974
3758.94517	0.06006
3757.01651	0.06058
3755.08786	0.06080
3753.15921	0.06064
3751.23055	0.06031
3749.30190	0.06024
3747.37325	0.06047
3745.44459	0.06066
3743.51594	0.06011
3741.58729	0.05975
3739.65863	0.06023
3737.72998	0.06040
3735.80133	0.05984
3733.87267	0.05925
3731.94402	0.05919
3730.01537	0.05937
3728.08671	0.05961
3726.15806	0.05952
3724.22941	0.05911
3722.30075	0.05887
3720.37210	0.05872
3718.44345	0.05834
3716.51479	0.05784
3714.58614	0.05765
3712.65749	0.05771
3710.72883	0.05789
3708.80018	0.05846
3706.87153	0.05907
3704.94287	0.05907
3703.01422	0.05853
3701.08557	0.05782
3699.15691	0.05683
3697.22826	0.05588
3695.29961	0.05581
3693.37095	0.05657
3691.44230	0.05746
3689.51365	0.05800
3687.58500	0.05770
3685.65634	0.05695
3683.72769	0.05646
3681.79904	0.05632
3679.87038	0.05671
3677.94173	0.05752
3676.01308	0.05815
3674.08442	0.05786
3672.15577	0.05752
3670.22712	0.05747
3668.29846	0.05705
3666.36981	0.05669
3664.44116	0.05688
3662.51250	0.05752
3660.58385	0.05832
3658.65520	0.05897
3656.72654	0.05901
3654.79789	0.05847
3652.86924	0.05846
3650.94058	0.05905
3649.01193	0.05928
3647.08328	0.05913
3645.15462	0.05909
3643.22597	0.05929
3641.29732	0.05979
3639.36866	0.06051
3637.44001	0.06115
3635.51136	0.06147
3633.58270	0.06127
3631.65405	0.06098
3629.72540	0.06132
3627.79674	0.06177
3625.86809	0.06214
3623.93944	0.06248
3622.01079	0.06282
3620.08213	0.06340
3618.15348	0.06398
3616.22483	0.06424
3614.29617	0.06466
3612.36752	0.06554
3610.43887	0.06616
3608.51021	0.06593
3606.58156	0.06549
3604.65291	0.06588
3602.72425	0.06677
3600.79560	0.06740
3598.86695	0.06789
3596.93829	0.06824
3595.00964	0.06840
3593.08099	0.06885
3591.15233	0.06966
3589.22368	0.07047
3587.29503	0.07117
3585.36637	0.07190
3583.43772	0.07257
3581.50907	0.07299
3579.58041	0.07359
3577.65176	0.07462
3575.72311	0.07538
3573.79445	0.07559
3571.86580	0.07589
3569.93715	0.07635
3568.00849	0.07664
3566.07984	0.07717
3564.15119	0.07828
3562.22253	0.07945
3560.29388	0.08028
3558.36523	0.08088
3556.43657	0.08147
3554.50792	0.08215
3552.57927	0.08267
3550.65062	0.08300
3548.72196	0.08337
3546.79331	0.08383
3544.86466	0.08466
3542.93600	0.08598
3541.00735	0.08690
3539.07870	0.08717
3537.15004	0.08778
3535.22139	0.08873
3533.29274	0.08908
3531.36408	0.08908
3529.43543	0.08960
3527.50678	0.09045
3525.57812	0.09111
3523.64947	0.09176
3521.72082	0.09264
3519.79216	0.09349
3517.86351	0.09424
3515.93486	0.09490
3514.00620	0.09538
3512.07755	0.09595
3510.14890	0.09684
3508.22024	0.09767
3506.29159	0.09821
3504.36294	0.09862
3502.43428	0.09887
3500.50563	0.09898
3498.57698	0.09923
3496.64832	0.09984
3494.71967	0.10057
3492.79102	0.10095
3490.86236	0.10107
3488.93371	0.10144
3487.00506	0.10211
3485.07641	0.10289
3483.14775	0.10361
3481.21910	0.10406
3479.29045	0.10415
3477.36179	0.10422
3475.43314	0.10476
3473.50449	0.10568
3471.57583	0.10655
3469.64718	0.10721
3467.71853	0.10774
3465.78987	0.10821
3463.86122	0.10858
3461.93257	0.10865
3460.00391	0.10853
3458.07526	0.10881
3456.14661	0.10951
3454.21795	0.11004
3452.28930	0.11031
3450.36065	0.11072
3448.43199	0.11142
3446.50334	0.11231
3444.57469	0.11319
3442.64603	0.11401
3440.71738	0.11486
3438.78873	0.11579
3436.86007	0.11646
3434.93142	0.11662
3433.00277	0.11669
3431.07411	0.11724
3429.14546	0.11816
3427.21681	0.11902
3425.28815	0.11969
3423.35950	0.12020
3421.43085	0.12056
3419.50219	0.12075
3417.57354	0.12074
3415.64489	0.12076
3413.71624	0.12100
3411.78758	0.12167
3409.85893	0.12303
3407.93028	0.12459
3406.00162	0.12538
3404.07297	0.12519
3402.14432	0.12489
3400.21566	0.12526
3398.28701	0.12602
3396.35836	0.12669
3394.42970	0.12728
3392.50105	0.12784
3390.57240	0.12850
3388.64374	0.12950
3386.71509	0.13054
3384.78644	0.13115
3382.85778	0.13172
3380.92913	0.13271
3379.00048	0.13378
3377.07182	0.13456
3375.14317	0.13521
3373.21452	0.13582
3371.28586	0.13634
3369.35721	0.13683
3367.42856	0.13761
3365.49990	0.13887
3363.57125	0.14045
3361.64260	0.14210
3359.71394	0.14354
3357.78529	0.14466
3355.85664	0.14563
3353.92798	0.14658
3351.99933	0.14778
3350.07068	0.14933
3348.14202	0.15105
3346.21337	0.15263
3344.28472	0.15391
3342.35607	0.15499
3340.42741	0.15595
3338.49876	0.15691
3336.57011	0.15797
3334.64145	0.15902
3332.71280	0.16008
3330.78415	0.16136
3328.85549	0.16263
3326.92684	0.16350
3324.99819	0.16418
3323.06953	0.16506
3321.14088	0.16598
3319.21223	0.16658
3317.28357	0.16687
3315.35492	0.16709
3313.42627	0.16748
3311.49761	0.16821
3309.56896	0.16902
3307.64031	0.16947
3305.71165	0.16968
3303.78300	0.16986
3301.85435	0.16996
3299.92569	0.17016
3297.99704	0.17051
3296.06839	0.17083
3294.13973	0.17094
3292.21108	0.17061
3290.28243	0.17014
3288.35377	0.17025
3286.42512	0.17096
3284.49647	0.17153
3282.56781	0.17154
3280.63916	0.17113
3278.71051	0.17049
3276.78186	0.16977
3274.85320	0.16927
3272.92455	0.16913
3270.99590	0.16903
3269.06724	0.16854
3267.13859	0.16763
3265.20994	0.16666
3263.28128	0.16577
3261.35263	0.16498
3259.42398	0.16429
3257.49532	0.16337
3255.56667	0.16224
3253.63802	0.16151
3251.70936	0.16131
3249.78071	0.16121
3247.85206	0.16097
3245.92340	0.16061
3243.99475	0.16013
3242.06610	0.15949
3240.13744	0.15874
3238.20879	0.15800
3236.28014	0.15741
3234.35148	0.15691
3232.42283	0.15622
3230.49418	0.15548
3228.56552	0.15515
3226.63687	0.15519
3224.70822	0.15506
3222.77956	0.15448
3220.85091	0.15395
3218.92226	0.15386
3216.99360	0.15382
3215.06495	0.15343
3213.13630	0.15299
3211.20764	0.15262
3209.27899	0.15196
3207.35034	0.15105
3205.42169	0.15048
3203.49303	0.15039
3201.56438	0.15006
3199.63573	0.14920
3197.70707	0.14835
3195.77842	0.14781
3193.84977	0.14741
3191.92111	0.14700
3189.99246	0.14644
3188.06381	0.14575
3186.13515	0.14507
3184.20650	0.14438
3182.27785	0.14353
3180.34919	0.14252
3178.42054	0.14142
3176.49189	0.14051
3174.56323	0.13999
3172.63458	0.13950
3170.70593	0.13876
3168.77727	0.13810
3166.84862	0.13773
3164.91997	0.13712
3162.99131	0.13594
3161.06266	0.13461
3159.13401	0.13360
3157.20535	0.13287
3155.27670	0.13219
3153.34805	0.13153
3151.41939	0.13091
3149.49074	0.13015
3147.56209	0.12918
3145.63343	0.12824
3143.70478	0.12754
3141.77613	0.12704
3139.84748	0.12656
3137.91882	0.12594
3135.99017	0.12525
3134.06152	0.12470
3132.13286	0.12422
3130.20421	0.12360
3128.27556	0.12307
3126.34690	0.12286
3124.41825	0.12269
3122.48960	0.12236
3120.56094	0.12227
3118.63229	0.12261
3116.70364	0.12283
3114.77498	0.12243
3112.84633	0.12181
3110.91768	0.12160
3108.98902	0.12175
3107.06037	0.12182
3105.13172	0.12179
3103.20306	0.12195
3101.27441	0.12223
3099.34576	0.12239
3097.41710	0.12247
3095.48845	0.12262
3093.55980	0.12306
3091.63114	0.12371
3089.70249	0.12426
3087.77384	0.12457
3085.84518	0.12482
3083.91653	0.12501
3081.98788	0.12512
3080.05922	0.12535
3078.13057	0.12569
3076.20192	0.12587
3074.27326	0.12592
3072.34461	0.12590
3070.41596	0.12585
3068.48731	0.12582
3066.55865	0.12554
3064.63000	0.12491
3062.70135	0.12430
3060.77269	0.12395
3058.84404	0.12378
3056.91539	0.12355
3054.98673	0.12314
3053.05808	0.12249
3051.12943	0.12173
3049.20077	0.12107
3047.27212	0.12046
3045.34347	0.11972
3043.41481	0.11875
3041.48616	0.11785
3039.55751	0.11727
3037.62885	0.11672
3035.70020	0.11602
3033.77155	0.11535
3031.84289	0.11474
3029.91424	0.11404
3027.98559	0.11330
3026.05693	0.11267
3024.12828	0.11207
3022.19963	0.11127
3020.27097	0.11041
3018.34232	0.10990
3016.41367	0.10973
3014.48501	0.10949
3012.55636	0.10898
3010.62771	0.10846
3008.69905	0.10824
3006.77040	0.10832
3004.84175	0.10835
3002.91309	0.10821
3000.98444	0.10800
2999.05579	0.10791
2997.12714	0.10823
2995.19848	0.10880
2993.26983	0.10914
2991.34118	0.10934
2989.41252	0.10967
2987.48387	0.11017
2985.55522	0.11078
2983.62656	0.11130
2981.69791	0.11173
2979.76926	0.11228
2977.84060	0.11295
2975.91195	0.11364
2973.98330	0.11428
2972.05464	0.11469
2970.12599	0.11492
2968.19734	0.11520
2966.26868	0.11559
2964.34003	0.11626
2962.41138	0.11717
2960.48272	0.11797
2958.55407	0.11860
2956.62542	0.11906
2954.69676	0.11932
2952.76811	0.11943
2950.83946	0.11945
2948.91080	0.11949
2946.98215	0.11959
2945.05350	0.11983
2943.12484	0.12043
2941.19619	0.12135
2939.26754	0.12246
2937.33888	0.12368
2935.41023	0.12479
2933.48158	0.12565
2931.55293	0.12639
2929.62427	0.12706
2927.69562	0.12768
2925.76697	0.12822
2923.83831	0.12837
2921.90966	0.12800
2919.98101	0.12736
2918.05235	0.12659
2916.12370	0.12547
2914.19505	0.12361
2912.26639	0.12100
2910.33774	0.11829
2908.40909	0.11620
2906.48043	0.11488
2904.55178	0.11403
2902.62313	0.11328
2900.69447	0.11238
2898.76582	0.11146
2896.83717	0.11078
2894.90851	0.11020
2892.97986	0.10960
2891.05121	0.10910
2889.12255	0.10877
2887.19390	0.10855
2885.26525	0.10843
2883.33659	0.10825
2881.40794	0.10791
2879.47929	0.10782
2877.55063	0.10807
2875.62198	0.10814
2873.69333	0.10802
2871.76467	0.10803
2869.83602	0.10803
2867.90737	0.10767
2865.97871	0.10697
2864.05006	0.10627
2862.12141	0.10584
2860.19276	0.10579
2858.26410	0.10588
2856.33545	0.10603
2854.40680	0.10649
2852.47814	0.10697
2850.54949	0.10669
2848.62084	0.10532
2846.69218	0.10339
2844.76353	0.10155
2842.83488	0.09998
2840.90622	0.09854
2838.97757	0.09727
2837.04892	0.09630
2835.12026	0.09557
2833.19161	0.09499
2831.26296	0.09460
2829.33430	0.09438
2827.40565	0.09401
2825.47700	0.09335
2823.54834	0.09259
2821.61969	0.09196
2819.69104	0.09159
2817.76238	0.09142
2815.83373	0.09125
2813.90508	0.09097
2811.97642	0.09074
2810.04777	0.09071
2808.11912	0.09063
2806.19046	0.09022
2804.26181	0.08969
2802.33316	0.08930
2800.40450	0.08905
2798.47585	0.08875
2796.54720	0.08836
2794.61855	0.08804
2792.68989	0.08777
2790.76124	0.08754
2788.83259	0.08737
2786.90393	0.08707
2784.97528	0.08655
2783.04663	0.08598
2781.11797	0.08552
2779.18932	0.08513
2777.26067	0.08480
2775.33201	0.08468
2773.40336	0.08472
2771.47471	0.08467
2769.54605	0.08435
2767.61740	0.08388
2765.68875	0.08353
2763.76009	0.08317
2761.83144	0.08266
2759.90279	0.08227
2757.97413	0.08217
2756.04548	0.08219
2754.11683	0.08206
2752.18817	0.08185
2750.25952	0.08174
2748.33087	0.08168
2746.40221	0.08149
2744.47356	0.08116
2742.54491	0.08078
2740.61625	0.08046
2738.68760	0.08022
2736.75895	0.08001
2734.83029	0.07979
2732.90164	0.07957
2730.97299	0.07929
2729.04433	0.07892
2727.11568	0.07854
2725.18703	0.07820
2723.25838	0.07782
2721.32972	0.07742
2719.40107	0.07721
2717.47242	0.07709
2715.54376	0.07693
2713.61511	0.07691
2711.68646	0.07696
2709.75780	0.07677
2707.82915	0.07645
2705.90050	0.07622
2703.97184	0.07598
2702.04319	0.07576
2700.11454	0.07565
2698.18588	0.07557
2696.25723	0.07547
2694.32858	0.07525
2692.39992	0.07490
2690.47127	0.07466
2688.54262	0.07470
2686.61396	0.07486
2684.68531	0.07479
2682.75666	0.07443
2680.82800	0.07407
2678.89935	0.07392
2676.97070	0.07379
2675.04204	0.07350
2673.11339	0.07323
2671.18474	0.07321
2669.25608	0.07320
2667.32743	0.07306
2665.39878	0.07289
2663.47012	0.07271
2661.54147	0.07240
2659.61282	0.07208
2657.68417	0.07193
2655.75551	0.07190
2653.82686	0.07178
2651.89821	0.07151
2649.96955	0.07115
2648.04090	0.07073
2646.11225	0.07032
2644.18359	0.06988
2642.25494	0.06942
2640.32629	0.06900
2638.39763	0.06849
2636.46898	0.06787
2634.54033	0.06741
2632.61167	0.06719
2630.68302	0.06689
2628.75437	0.06645
2626.82571	0.06619
2624.89706	0.06616
2622.96841	0.06597
2621.03975	0.06539
2619.11110	0.06453
2617.18245	0.06366
2615.25379	0.06300
2613.32514	0.06258
2611.39649	0.06237
2609.46783	0.06244
2607.53918	0.06258
2605.61053	0.06239
2603.68187	0.06185
2601.75322	0.06119
2599.82457	0.06077
2597.89591	0.06063
2595.96726	0.06033
2594.03861	0.05978
2592.10995	0.05926
2590.18130	0.05894
2588.25265	0.05876
2586.32400	0.05869
2584.39534	0.05868
2582.46669	0.05843
2580.53804	0.05797
2578.60938	0.05777
2576.68073	0.05774
2574.75208	0.05745
2572.82342	0.05698
2570.89477	0.05657
2568.96612	0.05633
2567.03746	0.05635
2565.10881	0.05655
2563.18016	0.05657
2561.25150	0.05612
2559.32285	0.05545
2557.39420	0.05491
2555.46554	0.05463
2553.53689	0.05469
2551.60824	0.05498
2549.67958	0.05500
2547.75093	0.05464
2545.82228	0.05416
2543.89362	0.05369
2541.96497	0.05328
2540.03632	0.05300
2538.10766	0.05306
2536.17901	0.05330
2534.25036	0.05322
2532.32170	0.05302
2530.39305	0.05299
2528.46440	0.05267
2526.53574	0.05197
2524.60709	0.05159
2522.67844	0.05170
2520.74978	0.05178
2518.82113	0.05167
2516.89248	0.05154
2514.96383	0.05139
2513.03517	0.05139
2511.10652	0.05150
2509.17787	0.05152
2507.24921	0.05146
2505.32056	0.05132
2503.39191	0.05127
2501.46325	0.05132
2499.53460	0.05103
2497.60595	0.05049
2495.67729	0.05036
2493.74864	0.05080
2491.81999	0.05116
2489.89133	0.05084
2487.96268	0.05021
2486.03403	0.04977
2484.10537	0.04958
2482.17672	0.04969
2480.24807	0.04972
2478.31941	0.04936
2476.39076	0.04890
2474.46211	0.04870
2472.53345	0.04895
2470.60480	0.04941
2468.67615	0.04963
2466.74749	0.04939
2464.81884	0.04892
2462.89019	0.04874
2460.96153	0.04891
2459.03288	0.04895
2457.10423	0.04872
2455.17557	0.04854
2453.24692	0.04848
2451.31827	0.04837
2449.38962	0.04816
2447.46096	0.04798
2445.53231	0.04794
2443.60366	0.04789
2441.67500	0.04763
2439.74635	0.04738
2437.81770	0.04734
2435.88904	0.04715
2433.96039	0.04680
2432.03174	0.04681
2430.10308	0.04729
2428.17443	0.04776
2426.24578	0.04792
2424.31712	0.04771
2422.38847	0.04730
2420.45982	0.04700
2418.53116	0.04694
2416.60251	0.04698
2414.67386	0.04690
2412.74520	0.04672
2410.81655	0.04670
2408.88790	0.04674
2406.95924	0.04669
2405.03059	0.04679
2403.10194	0.04702
2401.17328	0.04720
2399.24463	0.04720
2397.31598	0.04715
2395.38732	0.04705
2393.45867	0.04713
2391.53002	0.04745
2389.60136	0.04773
2387.67271	0.04772
2385.74406	0.04754
2383.81540	0.04742
2381.88675	0.04733
2379.95810	0.04725
2378.02945	0.04728
2376.10079	0.04759
2374.17214	0.04806
2372.24349	0.04818
2370.31483	0.04752
2368.38618	0.04837
2366.45753	0.04841
2364.52887	0.04885
2362.60022	0.04862
2360.67157	0.04949
2358.74291	0.04828
2356.81426	0.04932
2354.88561	0.04905
2352.95695	0.04873
2351.02830	0.04910
2349.09965	0.04894
2347.17099	0.04917
2345.24234	0.04954
2343.31369	0.04968
2341.38503	0.04887
2339.45638	0.04823
2337.52773	0.04862
2335.59907	0.04930
2333.67042	0.04927
2331.74177	0.04893
2329.81311	0.04870
2327.88446	0.04875
2325.95581	0.04899
2324.02715	0.04908
2322.09850	0.04873
2320.16985	0.04814
2318.24119	0.04728
2316.31254	0.04627
2314.38389	0.04542
2312.45524	0.04484
2310.52658	0.04452
2308.59793	0.04437
2306.66928	0.04413
2304.74062	0.04360
2302.81197	0.04315
2300.88332	0.04302
2298.95466	0.04295
2297.02601	0.04258
2295.09736	0.04203
2293.16870	0.04133
2291.24005	0.04070
2289.31140	0.04042
2287.38274	0.04035
2285.45409	0.04019
2283.52544	0.03986
2281.59678	0.03913
2279.66813	0.03801
2277.73948	0.03701
2275.81082	0.03630
2273.88217	0.03572
2271.95352	0.03528
2270.02486	0.03509
2268.09621	0.03518
2266.16756	0.03510
2264.23890	0.03443
2262.31025	0.03350
2260.38160	0.03260
2258.45294	0.03181
2256.52429	0.03156
2254.59564	0.03197
2252.66698	0.03234
2250.73833	0.03214
2248.80968	0.03163
2246.88102	0.03086
2244.95237	0.03038
2243.02372	0.03004
2241.09507	0.02957
2239.16641	0.02894
2237.23776	0.02816
2235.30911	0.02757
2233.38045	0.02751
2231.45180	0.02788
2229.52315	0.02847
2227.59449	0.02855
2225.66584	0.02756
2223.73719	0.02628
2221.80853	0.02547
2219.87988	0.02503
2217.95123	0.02485
2216.02257	0.02477
2214.09392	0.02471
2212.16527	0.02473
2210.23661	0.02466
2208.30796	0.02436
2206.37931	0.02387
2204.45065	0.02326
2202.52200	0.02280
2200.59335	0.02285
2198.66469	0.02323
2196.73604	0.02359
2194.80739	0.02381
2192.87873	0.02382
2190.95008	0.02343
2189.02143	0.02216
2187.09277	0.02062
2185.16412	0.02007
2183.23547	0.02012
2181.30681	0.01994
2179.37816	0.01969
2177.44951	0.01949
2175.52085	0.01967
2173.59220	0.02008
2171.66355	0.01978
2169.73490	0.01912
2167.80624	0.01876
2165.87759	0.01788
2163.94894	0.01631
2162.02028	0.01501
2160.09163	0.01412
2158.16298	0.01351
2156.23432	0.01363
2154.30567	0.01466
2152.37702	0.01605
2150.44836	0.01715
2148.51971	0.01791
2146.59106	0.01842
2144.66240	0.01875
2142.73375	0.01913
2140.80510	0.01987
2138.87644	0.02058
2136.94779	0.02077
2135.01914	0.02095
2133.09048	0.02184
2131.16183	0.02317
2129.23318	0.02427
2127.30452	0.02485
2125.37587	0.02535
2123.44722	0.02625
2121.51856	0.02696
2119.58991	0.02706
2117.66126	0.02707
2115.73260	0.02700
2113.80395	0.02659
2111.87530	0.02638
2109.94664	0.02664
2108.01799	0.02676
2106.08934	0.02637
2104.16069	0.02591
2102.23203	0.02582
2100.30338	0.02596
2098.37473	0.02603
2096.44607	0.02594
2094.51742	0.02571
2092.58877	0.02537
2090.66011	0.02509
2088.73146	0.02506
2086.80281	0.02518
2084.87415	0.02506
2082.94550	0.02449
2081.01685	0.02393
2079.08819	0.02399
2077.15954	0.02438
2075.23089	0.02437
2073.30223	0.02409
2071.37358	0.02382
2069.44493	0.02348
2067.51627	0.02312
2065.58762	0.02269
2063.65897	0.02196
2061.73031	0.02087
2059.80166	0.01997
2057.87301	0.01995
2055.94435	0.02047
2054.01570	0.02082
2052.08705	0.02066
2050.15839	0.01970
2048.22974	0.01810
2046.30109	0.01674
2044.37243	0.01607
2042.44378	0.01568
2040.51513	0.01525
2038.58647	0.01478
2036.65782	0.01415
2034.72917	0.01394
2032.80052	0.01461
2030.87186	0.01506
2028.94321	0.01449
2027.01456	0.01384
2025.08590	0.01370
2023.15725	0.01366
2021.22860	0.01365
2019.29994	0.01394
2017.37129	0.01440
2015.44264	0.01465
2013.51398	0.01473
2011.58533	0.01504
2009.65668	0.01509
2007.72802	0.01428
2005.79937	0.01349
2003.87072	0.01372
2001.94206	0.01478
2000.01341	0.01581
1998.08476	0.01606
1996.15610	0.01569
1994.22745	0.01526
1992.29880	0.01506
1990.37014	0.01518
1988.44149	0.01558
1986.51284	0.01599
1984.58418	0.01614
1982.65553	0.01591
1980.72688	0.01508
1978.79822	0.01355
1976.86957	0.01219
1974.94092	0.01230
1973.01226	0.01358
1971.08361	0.01462
1969.15496	0.01507
1967.22631	0.01543
1965.29765	0.01584
1963.36900	0.01607
1961.44035	0.01582
1959.51169	0.01553
1957.58304	0.01580
1955.65439	0.01635
1953.72573	0.01668
1951.79708	0.01681
1949.86843	0.01703
1947.93977	0.01749
1946.01112	0.01798
1944.08247	0.01825
1942.15381	0.01842
1940.22516	0.01878
1938.29651	0.01939
1936.36785	0.01992
1934.43920	0.02008
1932.51055	0.01990
1930.58189	0.01975
1928.65324	0.01991
1926.72459	0.02022
1924.79593	0.02048
1922.86728	0.02078
1920.93863	0.02104
1919.00997	0.02105
1917.08132	0.02099
1915.15267	0.02105
1913.22401	0.02116
1911.29536	0.02136
1909.36671	0.02176
1907.43805	0.02200
1905.50940	0.02192
1903.58075	0.02190
1901.65209	0.02204
1899.72344	0.02213
1897.79479	0.02209
1895.86614	0.02208
1893.93748	0.02224
1892.00883	0.02252
1890.08018	0.02275
1888.15152	0.02277
1886.22287	0.02261
1884.29422	0.02250
1882.36556	0.02254
1880.43691	0.02256
1878.50826	0.02243
1876.57960	0.02230
1874.65095	0.02235
1872.72230	0.02255
1870.79364	0.02284
1868.86499	0.02303
1866.93634	0.02298
1865.00768	0.02285
1863.07903	0.02277
1861.15038	0.02273
1859.22172	0.02255
1857.29307	0.02226
1855.36442	0.02209
1853.43576	0.02219
1851.50711	0.02241
1849.57846	0.02247
1847.64980	0.02238
1845.72115	0.02255
1843.79250	0.02291
1841.86384	0.02305
1839.93519	0.02305
1838.00654	0.02299
1836.07788	0.02287
1834.14923	0.02277
1832.22058	0.02269
1830.29192	0.02266
1828.36327	0.02270
1826.43462	0.02278
1824.50597	0.02288
1822.57731	0.02291
1820.64866	0.02274
1818.72001	0.02249
1816.79135	0.02241
1814.86270	0.02253
1812.93405	0.02276
1811.00539	0.02292
1809.07674	0.02287
1807.14809	0.02276
1805.21943	0.02279
1803.29078	0.02285
1801.36213	0.02275
1799.43347	0.02260
1797.50482	0.02260
1795.57617	0.02269
1793.64751	0.02277
1791.71886	0.02274
1789.79021	0.02258
1787.86155	0.02247
1785.93290	0.02240
1784.00425	0.02224
1782.07559	0.02206
1780.14694	0.02203
1778.21829	0.02206
1776.28963	0.02206
1774.36098	0.02211
1772.43233	0.02214
1770.50367	0.02198
1768.57502	0.02184
1766.64637	0.02171
1764.71771	0.02153
1762.78906	0.02141
1760.86041	0.02142
1758.93176	0.02158
1757.00310	0.02176
1755.07445	0.02178
1753.14580	0.02187
1751.21714	0.02212
1749.28849	0.02232
1747.35984	0.02247
1745.43118	0.02268
1743.50253	0.02306
1741.57388	0.02356
1739.64522	0.02399
1737.71657	0.02431
1735.78792	0.02489
1733.85926	0.02560
1731.93061	0.02601
1730.00196	0.02641
1728.07330	0.02699
1726.14465	0.02762
1724.21600	0.02829
1722.28734	0.02907
1720.35869	0.03006
1718.43004	0.03122
1716.50138	0.03238
1714.57273	0.03363
1712.64408	0.03516
1710.71542	0.03694
1708.78677	0.03889
1706.85812	0.04102
1704.92946	0.04330
1703.00081	0.04582
1701.07216	0.04886
1699.14350	0.05205
1697.21485	0.05549
1695.28620	0.05922
1693.35754	0.06292
1691.42889	0.06672
1689.50024	0.07053
1687.57159	0.07446
1685.64293	0.07896
1683.71428	0.08375
1681.78563	0.08852
1679.85697	0.09360
1677.92832	0.09913
1675.99967	0.10512
1674.07101	0.11125
1672.14236	0.11754
1670.21371	0.12412
1668.28505	0.13071
1666.35640	0.13708
1664.42775	0.14333
1662.49909	0.14934
1660.57044	0.15491
1658.64179	0.15993
1656.71313	0.16434
1654.78448	0.16848
1652.85583	0.17230
1650.92717	0.17529
1648.99852	0.17789
1647.06987	0.18043
1645.14121	0.18268
1643.21256	0.18464
1641.28391	0.18646
1639.35525	0.18815
1637.42660	0.18982
1635.49795	0.19136
1633.56929	0.19234
1631.64064	0.19258
1629.71199	0.19188
1627.78333	0.19010
1625.85468	0.18732
1623.92603	0.18357
1621.99738	0.17875
1620.06872	0.17318
1618.14007	0.16738
1616.21142	0.16136
1614.28276	0.15503
1612.35411	0.14870
1610.42546	0.14243
1608.49680	0.13624
1606.56815	0.13022
1604.63950	0.12445
1602.71084	0.11913
1600.78219	0.11437
1598.85354	0.11014
1596.92488	0.10641
1594.99623	0.10324
1593.06758	0.10058
1591.13892	0.09837
1589.21027	0.09660
1587.28162	0.09524
1585.35296	0.09429
1583.42431	0.09390
1581.49566	0.09413
1579.56700	0.09489
1577.63835	0.09628
1575.70970	0.09818
1573.78104	0.10037
1571.85239	0.10302
1569.92374	0.10617
1567.99508	0.10968
1566.06643	0.11352
1564.13778	0.11747
1562.20912	0.12145
1560.28047	0.12571
1558.35182	0.12989
1556.42316	0.13361
1554.49451	0.13699
1552.56586	0.13999
1550.63721	0.14267
1548.70855	0.14502
1546.77990	0.14693
1544.85125	0.14838
1542.92259	0.14945
1540.99394	0.15030
1539.06529	0.15077
1537.13663	0.15065
1535.20798	0.15023
1533.27933	0.14964
1531.35067	0.14879
1529.42202	0.14776
1527.49337	0.14654
1525.56471	0.14515
1523.63606	0.14369
1521.70741	0.14219
1519.77875	0.14042
1517.85010	0.13844
1515.92145	0.13616
1513.99279	0.13347
1512.06414	0.13041
1510.13549	0.12703
1508.20683	0.12357
1506.27818	0.11996
1504.34953	0.11600
1502.42087	0.11202
1500.49222	0.10818
1498.56357	0.10440
1496.63491	0.10062
1494.70626	0.09685
1492.77761	0.09331
1490.84895	0.09018
1488.92030	0.08734
1486.99165	0.08490
1485.06299	0.08304
1483.13434	0.08181
1481.20569	0.08115
1479.27704	0.08099
1477.34838	0.08134
1475.41973	0.08221
1473.49108	0.08369
1471.56242	0.08557
1469.63377	0.08760
1467.70512	0.08977
1465.77646	0.09203
1463.84781	0.09429
1461.91916	0.09655
1459.99050	0.09894
1458.06185	0.10160
1456.13320	0.10417
1454.20454	0.10619
1452.27589	0.10763
1450.34724	0.10847
1448.41858	0.10878
1446.48993	0.10861
1444.56128	0.10807
1442.63262	0.10722
1440.70397	0.10605
1438.77532	0.10457
1436.84666	0.10279
1434.91801	0.10068
1432.98936	0.09851
1431.06070	0.09651
1429.13205	0.09468
1427.20340	0.09315
1425.27474	0.09199
1423.34609	0.09113
1421.41744	0.09055
1419.48878	0.09025
1417.56013	0.09009
1415.63148	0.09013
1413.70283	0.09039
1411.77417	0.09070
1409.84552	0.09100
1407.91687	0.09125
1405.98821	0.09139
1404.05956	0.09138
1402.13091	0.09116
1400.20225	0.09081
1398.27360	0.09029
1396.34495	0.08964
1394.41629	0.08891
1392.48764	0.08816
1390.55899	0.08751
1388.63033	0.08702
1386.70168	0.08654
1384.77303	0.08604
1382.84437	0.08557
1380.91572	0.08511
1378.98707	0.08465
1377.05841	0.08406
1375.12976	0.08323
1373.20111	0.08225
1371.27245	0.08124
1369.34380	0.08016
1367.41515	0.07889
1365.48649	0.07752
1363.55784	0.07630
1361.62919	0.07535
1359.70053	0.07468
1357.77188	0.07431
1355.84323	0.07424
1353.91457	0.07450
1351.98592	0.07514
1350.05727	0.07611
1348.12861	0.07727
1346.19996	0.07855
1344.27131	0.07993
1342.34266	0.08127
1340.41400	0.08239
1338.48535	0.08312
1336.55670	0.08347
1334.62804	0.08349
1332.69939	0.08314
1330.77074	0.08242
1328.84208	0.08146
1326.91343	0.08040
1324.98478	0.07932
1323.05612	0.07834
1321.12747	0.07764
1319.19882	0.07718
1317.27016	0.07675
1315.34151	0.07627
1313.41286	0.07577
1311.48420	0.07528
1309.55555	0.07479
1307.62690	0.07431
1305.69824	0.07387
1303.76959	0.07352
1301.84094	0.07323
1299.91228	0.07299
1297.98363	0.07280
1296.05498	0.07274
1294.12632	0.07294
1292.19767	0.07342
1290.26902	0.07406
1288.34036	0.07475
1286.41171	0.07544
1284.48306	0.07615
1282.55440	0.07689
1280.62575	0.07754
1278.69710	0.07793
1276.76845	0.07801
1274.83979	0.07794
1272.91114	0.07790
1270.98249	0.07795
1269.05383	0.07813
1267.12518	0.07851
1265.19653	0.07909
1263.26787	0.07979
1261.33922	0.08054
1259.41057	0.08136
1257.48191	0.08231
1255.55326	0.08339
1253.62461	0.08465
1251.69595	0.08612
1249.76730	0.08774
1247.83865	0.08937
1245.90999	0.09095
1243.98134	0.09252
1242.05269	0.09405
1240.12403	0.09541
1238.19538	0.09644
1236.26673	0.09710
1234.33807	0.09737
1232.40942	0.09720
1230.48077	0.09657
1228.55211	0.09550
1226.62346	0.09405
1224.69481	0.09230
1222.76615	0.09036
1220.83750	0.08838
1218.90885	0.08653
1216.98019	0.08501
1215.05154	0.08394
1213.12289	0.08330
1211.19423	0.08304
1209.26558	0.08310
1207.33693	0.08337
1205.40828	0.08375
1203.47962	0.08407
1201.55097	0.08404
1199.62232	0.08347
1197.69366	0.08250
1195.76501	0.08117
1193.83636	0.07962
1191.90770	0.07808
1189.97905	0.07665
1188.05040	0.07534
1186.12174	0.07422
1184.19309	0.07330
1182.26444	0.07253
1180.33578	0.07187
1178.40713	0.07129
1176.47848	0.07092
1174.54982	0.07080
1172.62117	0.07079
1170.69252	0.07081
1168.76386	0.07091
1166.83521	0.07112
1164.90656	0.07130
1162.97790	0.07138
1161.04925	0.07132
1159.12060	0.07106
1157.19194	0.07065
1155.26329	0.07008
1153.33464	0.06934
1151.40598	0.06856
1149.47733	0.06775
1147.54868	0.06690
1145.62002	0.06611
1143.69137	0.06538
1141.76272	0.06466
1139.83406	0.06407
1137.90541	0.06370
1135.97676	0.06339
1134.04811	0.06302
1132.11945	0.06262
1130.19080	0.06234
1128.26215	0.06225
1126.33349	0.06213
1124.40484	0.06188
1122.47619	0.06168
1120.54753	0.06164
1118.61888	0.06169
1116.69023	0.06170
1114.76157	0.06164
1112.83292	0.06162
1110.90427	0.06174
1108.97561	0.06197
1107.04696	0.06213
1105.11831	0.06224
1103.18965	0.06253
1101.26100	0.06297
1099.33235	0.06335
1097.40369	0.06371
1095.47504	0.06428
1093.54639	0.06502
1091.61773	0.06583
1089.68908	0.06681
1087.76043	0.06797
1085.83177	0.06918
1083.90312	0.07035
1081.97447	0.07136
1080.04581	0.07195
1078.11716	0.07197
1076.18851	0.07154
1074.25985	0.07099
1072.33120	0.07049
1070.40255	0.07002
1068.47390	0.06960
1066.54524	0.06936
1064.61659	0.06926
1062.68794	0.06906
1060.75928	0.06868
1058.83063	0.06820
1056.90198	0.06758
1054.97332	0.06686
1053.04467	0.06611
1051.11602	0.06537
1049.18736	0.06468
1047.25871	0.06408
1045.33006	0.06363
1043.40140	0.06332
1041.47275	0.06311
1039.54410	0.06303
1037.61544	0.06319
1035.68679	0.06357
1033.75814	0.06404
1031.82948	0.06439
1029.90083	0.06437
1027.97218	0.06393
1026.04352	0.06320
1024.11487	0.06221
1022.18622	0.06111
1020.25756	0.06022
1018.32891	0.05964
1016.40026	0.05923
1014.47160	0.05878
1012.54295	0.05811
1010.61430	0.05720
1008.68564	0.05634
1006.75699	0.05568
1004.82834	0.05498
1002.89968	0.05414
1000.97103	0.05329
999.04238	0.05248
997.11373	0.05169
995.18507	0.05096
993.25642	0.05031
991.32777	0.04970
989.39911	0.04912
987.47046	0.04866
985.54181	0.04826
983.61315	0.04793
981.68450	0.04780
979.75585	0.04793
977.82719	0.04816
975.89854	0.04830
973.96989	0.04831
972.04123	0.04823
970.11258	0.04800
968.18393	0.04758
966.25527	0.04718
964.32662	0.04700
962.39797	0.04691
960.46931	0.04662
958.54066	0.04620
956.61201	0.04591
954.68335	0.04590
952.75470	0.04591
950.82605	0.04577
948.89739	0.04569
946.96874	0.04581
945.04009	0.04599
943.11143	0.04612
941.18278	0.04622
939.25413	0.04630
937.32547	0.04633
935.39682	0.04625
933.46817	0.04608
931.53952	0.04585
929.61086	0.04559
927.68221	0.04536
925.75356	0.04516
923.82490	0.04500
921.89625	0.04483
919.96760	0.04462
918.03894	0.04436
916.11029	0.04392
914.18164	0.04318
912.25298	0.04247
910.32433	0.04208
908.39568	0.04183
906.46702	0.04158
904.53837	0.04144
902.60972	0.04125
900.68106	0.04089
898.75241	0.04055
896.82376	0.04033
894.89510	0.04010
892.96645	0.03988
891.03780	0.03974
889.10914	0.03972
887.18049	0.03977
885.25184	0.03980
883.32318	0.03989
881.39453	0.04010
879.46588	0.04030
877.53722	0.04042
875.60857	0.04054
873.67992	0.04064
871.75126	0.04062
869.82261	0.04050
867.89396	0.04032
865.96530	0.04011
864.03665	0.03988
862.10800	0.03963
860.17935	0.03944
858.25069	0.03932
856.32204	0.03925
854.39339	0.03923
852.46473	0.03914
850.53608	0.03879
848.60743	0.03823
846.67877	0.03769
844.75012	0.03732
842.82147	0.03708
840.89281	0.03687
838.96416	0.03670
837.03551	0.03661
835.10685	0.03647
833.17820	0.03628
831.24955	0.03619
829.32089	0.03626
827.39224	0.03631
825.46359	0.03621
823.53493	0.03612
821.60628	0.03619
819.67763	0.03643
817.74897	0.03663
815.82032	0.03669
813.89167	0.03679
811.96301	0.03704
810.03436	0.03721
808.10571	0.03722
806.17705	0.03722
804.24840	0.03727
802.31975	0.03734
800.39109	0.03743
798.46244	0.03758
796.53379	0.03775
794.60513	0.03781
792.67648	0.03790
790.74783	0.03820
788.81918	0.03860
786.89052	0.03895
784.96187	0.03923
783.03322	0.03944
781.10456	0.03964
779.17591	0.03974
777.24726	0.03971
775.31860	0.03974
773.38995	0.03998
771.46130	0.04023
769.53264	0.04037
767.60399	0.04054
765.67534	0.04078
763.74668	0.04099
761.81803	0.04115
759.88938	0.04134
757.96072	0.04162
756.03207	0.04191
754.10342	0.04209
752.17476	0.04227
750.24611	0.04257
748.31746	0.04292
746.38880	0.04324
744.46015	0.04348
742.53150	0.04368
740.60284	0.04394
738.67419	0.04421
736.74554	0.04445
734.81688	0.04469
732.88823	0.04502
730.95958	0.04544
729.03092	0.04591
727.10227	0.04640
725.17362	0.04684
723.24497	0.04702
721.31631	0.04736
719.38766	0.04775
717.45901	0.04818
715.53035	0.04857
713.60170	0.04883
711.67305	0.04899
709.74439	0.04925
707.81574	0.04967
705.88709	0.05009
703.95843	0.05043
702.02978	0.05070
700.10113	0.05093
698.17247	0.05114
696.24382	0.05134
694.31517	0.05151
692.38651	0.05166
690.45786	0.05182
688.52921	0.05198
686.60055	0.05210
684.67190	0.05222
682.74325	0.05240
680.81459	0.05263
678.88594	0.05287
676.95729	0.05304
675.02863	0.05320
673.09998	0.05341
671.17133	0.05364
669.24267	0.05387
667.31402	0.05414
665.38537	0.05446
663.45671	0.05470
661.52806	0.05482
659.59941	0.05490
657.67075	0.05505
655.74210	0.05522
653.81345	0.05540
651.88480	0.05557
649.95614	0.05577
648.02749	0.05587
646.09884	0.05582
644.17018	0.05575
642.24153	0.05576
640.31288	0.05584
638.38422	0.05597
636.45557	0.05609
634.52692	0.05612
632.59826	0.05612
630.66961	0.05600
628.74096	0.05547
626.81230	0.05569
624.88365	0.05564
622.95500	0.05585
621.02634	0.05723
619.09769	0.05830
617.16904	0.05811
615.24038	0.05707
613.31173	0.05521
611.38308	0.05342
609.45442	0.05377
607.52577	0.05575
605.59712	0.05672
603.66846	0.05642
601.73981	0.05609
599.81116	0.05618
597.88250	0.05643
595.95385	0.05658
594.02520	0.05670
592.09654	0.05693
590.16789	0.05725
588.23924	0.05746
586.31059	0.05744
584.38193	0.05731
582.45328	0.05724
580.52463	0.05735
578.59597	0.05762
576.66732	0.05793
574.73867	0.05828
572.81001	0.05865
570.88136	0.05882
568.95271	0.05882
567.02405	0.05885
565.09540	0.05900
563.16675	0.05916
561.23809	0.05917
559.30944	0.05908
557.38079	0.05912
555.45213	0.05920
553.52348	0.05910
551.59483	0.05885
549.66617	0.05864
547.73752	0.05853
545.80887	0.05851
543.88021	0.05857
541.95156	0.05863
540.02291	0.05860
538.09425	0.05862
536.16560	0.05884
534.23695	0.05924
532.30829	0.05958
530.37964	0.05967
528.45099	0.05964
526.52233	0.05952
524.59368	0.05928
522.66503	0.05899
520.73637	0.05868
518.80772	0.05831
516.87907	0.05793
514.95042	0.05761
513.02176	0.05731
511.09311	0.05700
509.16446	0.05668
507.23580	0.05636
505.30715	0.05603
503.37850	0.05564
501.44984	0.05511
499.52119	0.05446
497.59254	0.05378
495.66388	0.05321
493.73523	0.05287
491.80658	0.05259
489.87792	0.05218
487.94927	0.05175
486.02062	0.05134
484.09196	0.05088
482.16331	0.05050
480.23466	0.05025
478.30600	0.04996
476.37735	0.04959
474.44870	0.04922
472.52004	0.04880
470.59139	0.04836
468.66274	0.04805
466.73408	0.04782
464.80543	0.04755
462.87678	0.04722
460.94812	0.04683
459.01947	0.04633
457.09082	0.04583
455.16216	0.04539
453.23351	0.04493
451.30486	0.04442
449.37620	0.04397
447.44755	0.04360
445.51890	0.04328
443.59025	0.04293
441.66159	0.04255
439.73294	0.04215
437.80429	0.04182
435.87563	0.04161
433.94698	0.04149
432.01833	0.04128
430.08967	0.04091
428.16102	0.04054
426.23237	0.04025
424.30371	0.03998
422.37506	0.03967
420.44641	0.03934
418.51775	0.03902
416.58910	0.03878
414.66045	0.03858
412.73179	0.03834
410.80314	0.03812
408.87449	0.03787
406.94583	0.03757
405.01718	0.03739
403.08853	0.03731
401.15987	0.03715
399.23122	0.03693
