3996.16951	0.05983
3994.24086	0.05956
3992.31221	0.06021
3990.38355	0.06090
3988.45490	0.06093
3986.52625	0.06083
3984.59759	0.06091
3982.66894	0.06079
3980.74029	0.06023
3978.81163	0.05975
3976.88298	0.05969
3974.95433	0.05972
3973.02567	0.05961
3971.09702	0.05946
3969.16837	0.05932
3967.23972	0.05948
3965.31106	0.05990
3963.38241	0.06002
3961.45376	0.05985
3959.52510	0.05964
3957.59645	0.05925
3955.66780	0.05893
3953.73914	0.05925
3951.81049	0.05995
3949.88184	0.06022
3947.95318	0.05987
3946.02453	0.05938
3944.09588	0.05927
3942.16722	0.05961
3940.23857	0.05977
3938.30992	0.05930
3936.38126	0.05866
3934.45261	0.05838
3932.52396	0.05835
3930.59530	0.05833
3928.66665	0.05822
3926.73800	0.05795
3924.80934	0.05781
3922.88069	0.05792
3920.95204	0.05804
3919.02338	0.05817
3917.09473	0.05831
3915.16608	0.05839
3913.23742	0.05854
3911.30877	0.05855
3909.38012	0.05807
3907.45146	0.05735
3905.52281	0.05704
3903.59416	0.05743
3901.66550	0.05798
3899.73685	0.05782
3897.80820	0.05712
3895.87955	0.05673
3893.95089	0.05657
3892.02224	0.05640
3890.09359	0.05668
3888.16493	0.05729
3886.23628	0.05753
3884.30763	0.05720
3882.37897	0.05672
3880.45032	0.05644
3878.52167	0.05619
3876.59301	0.05584
3874.66436	0.05570
3872.73571	0.05589
3870.80705	0.05622
3868.87840	0.05651
3866.94975	0.05658
3865.02109	0.05654
3863.09244	0.05655
3861.16379	0.05612
3859.23513	0.05534
3857.30648	0.05507
3855.37783	0.05505
3853.44917	0.05470
3851.52052	0.05442
3849.59187	0.05451
3847.66321	0.05473
3845.73456	0.05494
3843.80591	0.05496
3841.87725	0.05462
3839.94860	0.05399
3838.01995	0.05350
3836.09129	0.05353
3834.16264	0.05375
3832.23399	0.05369
3830.30534	0.05363
3828.37668	0.05394
3826.44803	0.05411
3824.51938	0.05372
3822.59072	0.05340
3820.66207	0.05358
3818.73342	0.05386
3816.80476	0.05385
3814.87611	0.05375
3812.94746	0.05408
3811.01880	0.05445
3809.09015	0.05422
3807.16150	0.05372
3805.23284	0.05337
3803.30419	0.05310
3801.37554	0.05312
3799.44688	0.05334
3797.51823	0.05327
3795.58958	0.05295
3793.66092	0.05276
3791.73227	0.05274
3789.80362	0.05264
3787.87496	0.05249
3785.94631	0.05240
3784.01766	0.05225
3782.08900	0.05211
3780.16035	0.05197
3778.23170	0.05180
3776.30304	0.05184
3774.37439	0.05189
3772.44574	0.05186
3770.51708	0.05198
3768.58843	0.05207
3766.65978	0.05212
3764.73112	0.05230
3762.80247	0.05207
3760.87382	0.05118
3758.94517	0.05065
3757.01651	0.05118
3755.08786	0.05200
3753.15921	0.05221
3751.23055	0.05183
3749.30190	0.05142
3747.37325	0.05111
3745.44459	0.05065
3743.51594	0.05032
3741.58729	0.05051
3739.65863	0.05068
3737.72998	0.05044
3735.80133	0.05027
3733.87267	0.05038
3731.94402	0.05041
3730.01537	0.05032
3728.08671	0.05029
3726.15806	0.05018
3724.22941	0.04967
3722.30075	0.04886
3720.37210	0.04839
3718.44345	0.04863
3716.51479	0.04915
3714.58614	0.04912
3712.65749	0.04847
3710.72883	0.04813
3708.80018	0.04852
3706.87153	0.04913
3704.94287	0.04920
3703.01422	0.04875
3701.08557	0.04842
3699.15691	0.04815
3697.22826	0.04785
3695.29961	0.04813
3693.37095	0.04868
3691.44230	0.04874
3689.51365	0.04846
3687.58500	0.04840
3685.65634	0.04846
3683.72769	0.04811
3681.79904	0.04750
3679.87038	0.04747
3677.94173	0.04808
3676.01308	0.04859
3674.08442	0.04882
3672.15577	0.04928
3670.22712	0.04989
3668.29846	0.04978
3666.36981	0.04889
3664.44116	0.04843
3662.51250	0.04890
3660.58385	0.04940
3658.65520	0.04932
3656.72654	0.04923
3654.79789	0.04978
3652.86924	0.05057
3650.94058	0.05090
3649.01193	0.05097
3647.08328	0.05129
3645.15462	0.05182
3643.22597	0.05237
3641.29732	0.05300
3639.36866	0.05375
3637.44001	0.05433
3635.51136	0.05444
3633.58270	0.05439
3631.65405	0.05473
3629.72540	0.05538
3627.79674	0.05585
3625.86809	0.05598
3623.93944	0.05608
3622.01079	0.05665
3620.08213	0.05779
3618.15348	0.05875
3616.22483	0.05901
3614.29617	0.05926
3612.36752	0.05986
3610.43887	0.06029
3608.51021	0.06057
3606.58156	0.06111
3604.65291	0.06190
3602.72425	0.06266
3600.79560	0.06314
3598.86695	0.06351
3596.93829	0.06396
3595.00964	0.06444
3593.08099	0.06506
3591.15233	0.06593
3589.22368	0.06670
3587.29503	0.06713
3585.36637	0.06755
3583.43772	0.06816
3581.50907	0.06885
3579.58041	0.06946
3577.65176	0.07014
3575.72311	0.07112
3573.79445	0.07223
3571.86580	0.07312
3569.93715	0.07355
3568.00849	0.07380
3566.07984	0.07464
3564.15119	0.07611
3562.22253	0.07728
3560.29388	0.07794
3558.36523	0.07861
3556.43657	0.07945
3554.50792	0.08032
3552.57927	0.08120
3550.65062	0.08201
3548.72196	0.08257
3546.79331	0.08282
3544.86466	0.08328
3542.93600	0.08453
3541.00735	0.08593
3539.07870	0.08667
3537.15004	0.08715
3535.22139	0.08778
3533.29274	0.08840
3531.36408	0.08906
3529.43543	0.08980
3527.50678	0.09044
3525.57812	0.09121
3523.64947	0.09214
3521.72082	0.09289
3519.79216	0.09340
3517.86351	0.09397
3515.93486	0.09483
3514.00620	0.09577
3512.07755	0.09667
3510.14890	0.09762
3508.22024	0.09827
3506.29159	0.09831
3504.36294	0.09840
3502.43428	0.09902
3500.50563	0.09975
3498.57698	0.10030
3496.64832	0.10090
3494.71967	0.10172
3492.79102	0.10242
3490.86236	0.10273
3488.93371	0.10304
3487.00506	0.10383
3485.07641	0.10494
3483.14775	0.10583
3481.21910	0.10612
3479.29045	0.10596
3477.36179	0.10600
3475.43314	0.10674
3473.50449	0.10816
3471.57583	0.10975
3469.64718	0.11084
3467.71853	0.11149
3465.78987	0.11207
3463.86122	0.11244
3461.93257	0.11256
3460.00391	0.11270
3458.07526	0.11307
3456.14661	0.11381
3454.21795	0.11473
3452.28930	0.11534
3450.36065	0.11582
3448.43199	0.11687
3446.50334	0.11841
3444.57469	0.11963
3442.64603	0.12017
3440.71738	0.12057
3438.78873	0.12119
3436.86007	0.12164
3434.93142	0.12179
3433.00277	0.12228
3431.07411	0.12326
3429.14546	0.12414
3427.21681	0.12470
3425.28815	0.12534
3423.35950	0.12609
3421.43085	0.12685
3419.50219	0.12760
3417.57354	0.12819
3415.64489	0.12855
3413.71624	0.12879
3411.78758	0.12930
3409.85893	0.13045
3407.93028	0.13171
3406.00162	0.13239
3404.07297	0.13282
3402.14432	0.13341
3400.21566	0.13414
3398.28701	0.13485
3396.35836	0.13541
3394.42970	0.13585
3392.50105	0.13628
3390.57240	0.13673
3388.64374	0.13746
3386.71509	0.13871
3384.78644	0.14004
3382.85778	0.14095
3380.92913	0.14172
3379.00048	0.14268
3377.07182	0.14382
3375.14317	0.14489
3373.21452	0.14568
3371.28586	0.14633
3369.35721	0.14699
3367.42856	0.14775
3365.49990	0.14876
3363.57125	0.15003
3361.64260	0.15150
3359.71394	0.15307
3357.78529	0.15461
3355.85664	0.15592
3353.92798	0.15689
3351.99933	0.15774
3350.07068	0.15890
3348.14202	0.16055
3346.21337	0.16246
3344.28472	0.16432
3342.35607	0.16570
3340.42741	0.16645
3338.49876	0.16712
3336.57011	0.16800
3334.64145	0.16893
3332.71280	0.17010
3330.78415	0.17138
3328.85549	0.17204
3326.92684	0.17226
3324.99819	0.17300
3323.06953	0.17420
3321.14088	0.17499
3319.21223	0.17523
3317.28357	0.17557
3315.35492	0.17611
3313.42627	0.17651
3311.49761	0.17687
3309.56896	0.17724
3307.64031	0.17754
3305.71165	0.17791
3303.78300	0.17837
3301.85435	0.17867
3299.92569	0.17877
3297.99704	0.17875
3296.06839	0.17877
3294.13973	0.17879
3292.21108	0.17842
3290.28243	0.17783
3288.35377	0.17768
3286.42512	0.17808
3284.49647	0.17856
3282.56781	0.17867
3280.63916	0.17859
3278.71051	0.17878
3276.78186	0.17892
3274.85320	0.17848
3272.92455	0.17793
3270.99590	0.17757
3269.06724	0.17677
3267.13859	0.17556
3265.20994	0.17481
3263.28128	0.17451
3261.35263	0.17398
3259.42398	0.17307
3257.49532	0.17202
3255.56667	0.17097
3253.63802	0.17023
3251.70936	0.17004
3249.78071	0.17012
3247.85206	0.16992
3245.92340	0.16926
3243.99475	0.16851
3242.06610	0.16778
3240.13744	0.16693
3238.20879	0.16613
3236.28014	0.16563
3234.35148	0.16540
3232.42283	0.16528
3230.49418	0.16495
3228.56552	0.16445
3226.63687	0.16411
3224.70822	0.16362
3222.77956	0.16266
3220.85091	0.16171
3218.92226	0.16125
3216.99360	0.16095
3215.06495	0.16052
3213.13630	0.16020
3211.20764	0.15987
3209.27899	0.15927
3207.35034	0.15873
3205.42169	0.15851
3203.49303	0.15826
3201.56438	0.15779
3199.63573	0.15721
3197.70707	0.15652
3195.77842	0.15582
3193.84977	0.15523
3191.92111	0.15467
3189.99246	0.15401
3188.06381	0.15323
3186.13515	0.15245
3184.20650	0.15172
3182.27785	0.15089
3180.34919	0.14990
3178.42054	0.14889
3176.49189	0.14808
3174.56323	0.14749
3172.63458	0.14680
3170.70593	0.14587
3168.77727	0.14488
3166.84862	0.14395
3164.91997	0.14306
3162.99131	0.14206
3161.06266	0.14083
3159.13401	0.13967
3157.20535	0.13881
3155.27670	0.13809
3153.34805	0.13734
3151.41939	0.13639
3149.49074	0.13527
3147.56209	0.13419
3145.63343	0.13327
3143.70478	0.13246
3141.77613	0.13180
3139.84748	0.13120
3137.91882	0.13059
3135.99017	0.12998
3134.06152	0.12936
3132.13286	0.12880
3130.20421	0.12833
3128.27556	0.12777
3126.34690	0.12710
3124.41825	0.12645
3122.48960	0.12602
3120.56094	0.12612
3118.63229	0.12663
3116.70364	0.12673
3114.77498	0.12617
3112.84633	0.12562
3110.91768	0.12558
3108.98902	0.12570
3107.06037	0.12564
3105.13172	0.12575
3103.20306	0.12604
3101.27441	0.12607
3099.34576	0.12599
3097.41710	0.12624
3095.48845	0.12679
3093.55980	0.12742
3091.63114	0.12787
3089.70249	0.12803
3087.77384	0.12814
3085.84518	0.12844
3083.91653	0.12884
3081.98788	0.12921
3080.05922	0.12955
3078.13057	0.12970
3076.20192	0.12963
3074.27326	0.12951
3072.34461	0.12940
3070.41596	0.12930
3068.48731	0.12926
3066.55865	0.12897
3064.63000	0.12831
3062.70135	0.12775
3060.77269	0.12756
3058.84404	0.12750
3056.91539	0.12718
3054.98673	0.12653
3053.05808	0.12580
3051.12943	0.12516
3049.20077	0.12443
3047.27212	0.12346
3045.34347	0.12247
3043.41481	0.12180
3041.48616	0.12133
3039.55751	0.12073
3037.62885	0.11988
3035.70020	0.11897
3033.77155	0.11813
3031.84289	0.11717
3029.91424	0.11602
3027.98559	0.11499
3026.05693	0.11447
3024.12828	0.11428
3022.19963	0.11387
3020.27097	0.11317
3018.34232	0.11258
3016.41367	0.11226
3014.48501	0.11208
3012.55636	0.11194
3010.62771	0.11176
3008.69905	0.11141
3006.77040	0.11111
3004.84175	0.11107
3002.91309	0.11111
3000.98444	0.11105
2999.05579	0.11100
2997.12714	0.11112
2995.19848	0.11146
2993.26983	0.11176
2991.34118	0.11193
2989.41252	0.11220
2987.48387	0.11268
2985.55522	0.11322
2983.62656	0.11369
2981.69791	0.11414
2979.76926	0.11465
2977.84060	0.11531
2975.91195	0.11600
2973.98330	0.11658
2972.05464	0.11714
2970.12599	0.11789
2968.19734	0.11879
2966.26868	0.11960
2964.34003	0.12021
2962.41138	0.12074
2960.48272	0.12141
2958.55407	0.12221
2956.62542	0.12275
2954.69676	0.12287
2952.76811	0.12288
2950.83946	0.12306
2948.91080	0.12335
2946.98215	0.12359
2945.05350	0.12391
2943.12484	0.12454
2941.19619	0.12551
2939.26754	0.12694
2937.33888	0.12877
2935.41023	0.13051
2933.48158	0.13199
2931.55293	0.13342
2929.62427	0.13475
2927.69562	0.13590
2925.76697	0.13699
2923.83831	0.13787
2921.90966	0.13819
2919.98101	0.13780
2918.05235	0.13668
2916.12370	0.13474
2914.19505	0.13197
2912.26639	0.12871
2910.33774	0.12552
2908.40909	0.12285
2906.48043	0.12077
2904.55178	0.11922
2902.62313	0.11797
2900.69447	0.11674
2898.76582	0.11558
2896.83717	0.11460
2894.90851	0.11365
2892.97986	0.11275
2891.05121	0.11208
2889.12255	0.11165
2887.19390	0.11135
2885.26525	0.11119
2883.33659	0.11097
2881.40794	0.11045
2879.47929	0.11002
2877.55063	0.11011
2875.62198	0.11043
2873.69333	0.11053
2871.76467	0.11026
2869.83602	0.10978
2867.90737	0.10920
2865.97871	0.10852
2864.05006	0.10799
2862.12141	0.10806
2860.19276	0.10876
2858.26410	0.10965
2856.33545	0.11060
2854.40680	0.11159
2852.47814	0.11223
2850.54949	0.11201
2848.62084	0.11065
2846.69218	0.10819
2844.76353	0.10529
2842.83488	0.10265
2840.90622	0.10049
2838.97757	0.09880
2837.04892	0.09752
2835.12026	0.09652
2833.19161	0.09570
2831.26296	0.09504
2829.33430	0.09443
2827.40565	0.09360
2825.47700	0.09268
2823.54834	0.09206
2821.61969	0.09174
2819.69104	0.09155
2817.76238	0.09136
2815.83373	0.09104
2813.90508	0.09059
2811.97642	0.09017
2810.04777	0.08988
2808.11912	0.08955
2806.19046	0.08902
2804.26181	0.08850
2802.33316	0.08816
2800.40450	0.08786
2798.47585	0.08748
2796.54720	0.08711
2794.61855	0.08672
2792.68989	0.08627
2790.76124	0.08598
2788.83259	0.08586
2786.90393	0.08550
2784.97528	0.08489
2783.04663	0.08433
2781.11797	0.08392
2779.18932	0.08359
2777.26067	0.08335
2775.33201	0.08319
2773.40336	0.08299
2771.47471	0.08272
2769.54605	0.08244
2767.61740	0.08207
2765.68875	0.08165
2763.76009	0.08121
2761.83144	0.08069
2759.90279	0.08018
2757.97413	0.07982
2756.04548	0.07968
2754.11683	0.07968
2752.18817	0.07955
2750.25952	0.07920
2748.33087	0.07872
2746.40221	0.07835
2744.47356	0.07820
2742.54491	0.07811
2740.61625	0.07785
2738.68760	0.07755
2736.75895	0.07737
2734.83029	0.07721
2732.90164	0.07696
2730.97299	0.07660
2729.04433	0.07610
2727.11568	0.07563
2725.18703	0.07536
2723.25838	0.07509
2721.32972	0.07479
2719.40107	0.07454
2717.47242	0.07416
2715.54376	0.07371
2713.61511	0.07363
2711.68646	0.07386
2709.75780	0.07382
2707.82915	0.07342
2705.90050	0.07297
2703.97184	0.07268
2702.04319	0.07257
2700.11454	0.07251
2698.18588	0.07231
2696.25723	0.07199
2694.32858	0.07167
2692.39992	0.07144
2690.47127	0.07133
2688.54262	0.07129
2686.61396	0.07128
2684.68531	0.07119
2682.75666	0.07104
2680.82800	0.07092
2678.89935	0.07080
2676.97070	0.07059
2675.04204	0.07034
2673.11339	0.07012
2671.18474	0.06994
2669.25608	0.06977
2667.32743	0.06961
2665.39878	0.06952
2663.47012	0.06942
2661.54147	0.06927
2659.61282	0.06909
2657.68417	0.06887
2655.75551	0.06865
2653.82686	0.06836
2651.89821	0.06798
2649.96955	0.06753
2648.04090	0.06705
2646.11225	0.06655
2644.18359	0.06605
2642.25494	0.06574
2640.32629	0.06563
2638.39763	0.06531
2636.46898	0.06473
2634.54033	0.06425
2632.61167	0.06385
2630.68302	0.06326
2628.75437	0.06257
2626.82571	0.06220
2624.89706	0.06209
2622.96841	0.06191
2621.03975	0.06153
2619.11110	0.06086
2617.18245	0.06006
2615.25379	0.05944
2613.32514	0.05913
2611.39649	0.05907
2609.46783	0.05924
2607.53918	0.05931
2605.61053	0.05890
2603.68187	0.05822
2601.75322	0.05762
2599.82457	0.05709
2597.89591	0.05668
2595.96726	0.05656
2594.03861	0.05646
2592.10995	0.05602
2590.18130	0.05552
2588.25265	0.05529
2586.32400	0.05513
2584.39534	0.05488
2582.46669	0.05464
2580.53804	0.05445
2578.60938	0.05429
2576.68073	0.05406
2574.75208	0.05374
2572.82342	0.05343
2570.89477	0.05304
2568.96612	0.05251
2567.03746	0.05219
2565.10881	0.05227
2563.18016	0.05237
2561.25150	0.05200
2559.32285	0.05123
2557.39420	0.05059
2555.46554	0.05057
2553.53689	0.05106
2551.60824	0.05152
2549.67958	0.05158
2547.75093	0.05136
2545.82228	0.05083
2543.89362	0.05007
2541.96497	0.04955
2540.03632	0.04935
2538.10766	0.04929
2536.17901	0.04925
2534.25036	0.04902
2532.32170	0.04875
2530.39305	0.04860
2528.46440	0.04849
2526.53574	0.04833
2524.60709	0.04813
2522.67844	0.04811
2520.74978	0.04837
2518.82113	0.04848
2516.89248	0.04815
2514.96383	0.04767
2513.03517	0.04735
2511.10652	0.04724
2509.17787	0.04736
2507.24921	0.04761
2505.32056	0.04768
2503.39191	0.04749
2501.46325	0.04717
2499.53460	0.04679
2497.60595	0.04672
2495.67729	0.04702
2493.74864	0.04716
2491.81999	0.04675
2489.89133	0.04614
2487.96268	0.04586
2486.03403	0.04588
2484.10537	0.04602
2482.17672	0.04611
2480.24807	0.04588
2478.31941	0.04553
2476.39076	0.04533
2474.46211	0.04522
2472.53345	0.04516
2470.60480	0.04524
2468.67615	0.04538
2466.74749	0.04535
2464.81884	0.04518
2462.89019	0.04518
2460.96153	0.04539
2459.03288	0.04550
2457.10423	0.04536
2455.17557	0.04505
2453.24692	0.04466
2451.31827	0.04429
2449.38962	0.04403
2447.46096	0.04398
2445.53231	0.04410
2443.60366	0.04408
2441.67500	0.04383
2439.74635	0.04366
2437.81770	0.04356
2435.88904	0.04349
2433.96039	0.04361
2432.03174	0.04366
2430.10308	0.04342
2428.17443	0.04319
2426.24578	0.04312
2424.31712	0.04313
2422.38847	0.04315
2420.45982	0.04314
2418.53116	0.04327
2416.60251	0.04348
2414.67386	0.04346
2412.74520	0.04324
2410.81655	0.04310
2408.88790	0.04314
2406.95924	0.04323
2405.03059	0.04335
2403.10194	0.04347
2401.17328	0.04355
2399.24463	0.04343
2397.31598	0.04330
2395.38732	0.04333
2393.45867	0.04362
2391.53002	0.04402
2389.60136	0.04427
2387.67271	0.04427
2385.74406	0.04408
2383.81540	0.04390
2381.88675	0.04387
2379.95810	0.04396
2378.02945	0.04408
2376.10079	0.04417
2374.17214	0.04421
2372.24349	0.04421
2370.31483	0.04418
2368.38618	0.04423
2366.45753	0.04449
2364.52887	0.04487
2362.60022	0.04524
2360.67157	0.04540
2358.74291	0.04531
2356.81426	0.04530
2354.88561	0.04553
2352.95695	0.04571
2351.02830	0.04561
2349.09965	0.04541
2347.17099	0.04541
2345.24234	0.04557
2343.31369	0.04556
2341.38503	0.04535
2339.45638	0.04517
2337.52773	0.04508
2335.59907	0.04487
2333.67042	0.04455
2331.74177	0.04436
2329.81311	0.04442
2327.88446	0.04471
2325.95581	0.04513
2324.02715	0.04522
2322.09850	0.04479
2320.16985	0.04409
2318.24119	0.04336
2316.31254	0.04276
2314.38389	0.04239
2312.45524	0.04203
2310.52658	0.04151
2308.59793	0.04099
2306.66928	0.04055
2304.74062	0.04013
2302.81197	0.03976
2300.88332	0.03946
2298.95466	0.03912
2297.02601	0.03866
2295.09736	0.03818
2293.16870	0.03767
2291.24005	0.03705
2289.31140	0.03653
2287.38274	0.03637
2285.45409	0.03636
2283.52544	0.03595
2281.59678	0.03514
2279.66813	0.03458
2277.73948	0.03419
2275.81082	0.03345
2273.88217	0.03259
2271.95352	0.03200
2270.02486	0.03163
2268.09621	0.03128
2266.16756	0.03072
2264.23890	0.03008
2262.31025	0.02965
2260.38160	0.02933
2258.45294	0.02897
2256.52429	0.02871
2254.59564	0.02859
2252.66698	0.02846
2250.73833	0.02837
2248.80968	0.02832
2246.88102	0.02776
2244.95237	0.02714
2243.02372	0.02657
2241.09507	0.02632
2239.16641	0.02633
2237.23776	0.02606
2235.30911	0.02538
2233.38045	0.02463
2231.45180	0.02415
2229.52315	0.02421
2227.59449	0.02447
2225.66584	0.02443
2223.73719	0.02411
2221.80853	0.02363
2219.87988	0.02317
2217.95123	0.02310
2216.02257	0.02322
2214.09392	0.02297
2212.16527	0.02219
2210.23661	0.02151
2208.30796	0.02149
2206.37931	0.02137
2204.45065	0.02034
2202.52200	0.01943
2200.59335	0.01978
2198.66469	0.02069
2196.73604	0.02113
2194.80739	0.02103
2192.87873	0.02085
2190.95008	0.02055
2189.02143	0.01952
2187.09277	0.01823
2185.16412	0.01768
2183.23547	0.01742
2181.30681	0.01712
2179.37816	0.01748
2177.44951	0.01811
2175.52085	0.01813
2173.59220	0.01806
2171.66355	0.01849
2169.73490	0.01866
2167.80624	0.01740
2165.87759	0.01519
2163.94894	0.01365
2162.02028	0.01293
2160.09163	0.01202
2158.16298	0.01141
2156.23432	0.01233
2154.30567	0.01393
2152.37702	0.01478
2150.44836	0.01519
2148.51971	0.01574
2146.59106	0.01602
2144.66240	0.01576
2142.73375	0.01553
2140.80510	0.01597
2138.87644	0.01683
2136.94779	0.01727
2135.01914	0.01764
2133.09048	0.01878
2131.16183	0.02039
2129.23318	0.02176
2127.30452	0.02252
2125.37587	0.02279
2123.44722	0.02315
2121.51856	0.02364
2119.58991	0.02376
2117.66126	0.02382
2115.73260	0.02434
2113.80395	0.02463
2111.87530	0.02406
2109.94664	0.02327
2108.01799	0.02296
2106.08934	0.02289
2104.16069	0.02268
2102.23203	0.02250
2100.30338	0.02268
2098.37473	0.02302
2096.44607	0.02304
2094.51742	0.02280
2092.58877	0.02286
2090.66011	0.02317
2088.73146	0.02307
2086.80281	0.02245
2084.87415	0.02205
2082.94550	0.02200
2081.01685	0.02184
2079.08819	0.02156
2077.15954	0.02133
2075.23089	0.02103
2073.30223	0.02053
2071.37358	0.01989
2069.44493	0.01950
2067.51627	0.01943
2065.58762	0.01931
2063.65897	0.01909
2061.73031	0.01878
2059.80166	0.01818
2057.87301	0.01781
2055.94435	0.01812
2054.01570	0.01846
2052.08705	0.01805
2050.15839	0.01687
2048.22974	0.01549
2046.30109	0.01428
2044.37243	0.01338
2042.44378	0.01285
2040.51513	0.01263
2038.58647	0.01264
2036.65782	0.01225
2034.72917	0.01132
2032.80052	0.01086
2030.87186	0.01092
2028.94321	0.01062
2027.01456	0.01023
2025.08590	0.01059
2023.15725	0.01155
2021.22860	0.01211
2019.29994	0.01197
2017.37129	0.01196
2015.44264	0.01227
2013.51398	0.01197
2011.58533	0.01140
2009.65668	0.01170
2007.72802	0.01243
2005.79937	0.01262
2003.87072	0.01275
2001.94206	0.01358
2000.01341	0.01429
1998.08476	0.01406
1996.15610	0.01364
1994.22745	0.01368
1992.29880	0.01364
1990.37014	0.01360
1988.44149	0.01398
1986.51284	0.01440
1984.58418	0.01459
1982.65553	0.01453
1980.72688	0.01390
1978.79822	0.01253
1976.86957	0.01109
1974.94092	0.01066
1973.01226	0.01122
1971.08361	0.01175
1969.15496	0.01189
1967.22631	0.01226
1965.29765	0.01330
1963.36900	0.01443
1961.44035	0.01486
1959.51169	0.01467
1957.58304	0.01447
1955.65439	0.01453
1953.72573	0.01466
1951.79708	0.01474
1949.86843	0.01514
1947.93977	0.01595
1946.01112	0.01669
1944.08247	0.01702
1942.15381	0.01717
1940.22516	0.01744
1938.29651	0.01767
1936.36785	0.01775
1934.43920	0.01793
1932.51055	0.01813
1930.58189	0.01827
1928.65324	0.01872
1926.72459	0.01932
1924.79593	0.01943
1922.86728	0.01927
1920.93863	0.01940
1919.00997	0.01955
1917.08132	0.01936
1915.15267	0.01914
1913.22401	0.01917
1911.29536	0.01930
1909.36671	0.01950
1907.43805	0.01979
1905.50940	0.01999
1903.58075	0.02005
1901.65209	0.02005
1899.72344	0.02012
1897.79479	0.02030
1895.86614	0.02049
1893.93748	0.02065
1892.00883	0.02074
1890.08018	0.02076
1888.15152	0.02075
1886.22287	0.02067
1884.29422	0.02057
1882.36556	0.02048
1880.43691	0.02033
1878.50826	0.02030
1876.57960	0.02047
1874.65095	0.02063
1872.72230	0.02078
1870.79364	0.02111
1868.86499	0.02150
1866.93634	0.02160
1865.00768	0.02141
1863.07903	0.02122
1861.15038	0.02123
1859.22172	0.02128
1857.29307	0.02113
1855.36442	0.02096
1853.43576	0.02110
1851.50711	0.02146
1849.57846	0.02173
1847.64980	0.02179
1845.72115	0.02175
1843.79250	0.02179
1841.86384	0.02186
1839.93519	0.02181
1838.00654	0.02172
1836.07788	0.02170
1834.14923	0.02170
1832.22058	0.02166
1830.29192	0.02172
1828.36327	0.02193
1826.43462	0.02204
1824.50597	0.02200
1822.57731	0.02194
1820.64866	0.02185
1818.72001	0.02182
1816.79135	0.02204
1814.86270	0.02242
1812.93405	0.02263
1811.00539	0.02259
1809.07674	0.02252
1807.14809	0.02253
1805.21943	0.02253
1803.29078	0.02246
1801.36213	0.02236
1799.43347	0.02240
1797.50482	0.02257
1795.57617	0.02273
1793.64751	0.02284
1791.71886	0.02289
1789.79021	0.02279
1787.86155	0.02261
1785.93290	0.02252
1784.00425	0.02255
1782.07559	0.02256
1780.14694	0.02257
1778.21829	0.02260
1776.28963	0.02262
1774.36098	0.02263
1772.43233	0.02268
1770.50367	0.02271
1768.57502	0.02277
1766.64637	0.02287
1764.71771	0.02297
1762.78906	0.02310
1760.86041	0.02331
1758.93176	0.02358
1757.00310	0.02388
1755.07445	0.02425
1753.14580	0.02470
1751.21714	0.02525
1749.28849	0.02583
1747.35984	0.02635
1745.43118	0.02695
1743.50253	0.02777
1741.57388	0.02868
1739.64522	0.02957
1737.71657	0.03040
1735.78792	0.03127
1733.85926	0.03228
1731.93061	0.03332
1730.00196	0.03430
1728.07330	0.03529
1726.14465	0.03631
1724.21600	0.03739
1722.28734	0.03857
1720.35869	0.03979
1718.43004	0.04110
1716.50138	0.04268
1714.57273	0.04445
1712.64408	0.04623
1710.71542	0.04803
1708.78677	0.04981
1706.85812	0.05155
1704.92946	0.05337
1703.00081	0.05552
1701.07216	0.05809
1699.14350	0.06101
1697.21485	0.06416
1695.28620	0.06764
1693.35754	0.07148
1691.42889	0.07548
1689.50024	0.07956
1687.57159	0.08378
1685.64293	0.08828
1683.71428	0.09319
1681.78563	0.09849
1679.85697	0.10408
1677.92832	0.10999
1675.99967	0.11627
1674.07101	0.12283
1672.14236	0.12957
1670.21371	0.13646
1668.28505	0.14344
1666.35640	0.15028
1664.42775	0.15693
1662.49909	0.16334
1660.57044	0.16933
1658.64179	0.17469
1656.71313	0.17932
1654.78448	0.18334
1652.85583	0.18704
1650.92717	0.19030
1648.99852	0.19292
1647.06987	0.19521
1645.14121	0.19748
1643.21256	0.19958
1641.28391	0.20139
1639.35525	0.20293
1637.42660	0.20428
1635.49795	0.20548
1633.56929	0.20636
1631.64064	0.20662
1629.71199	0.20594
1627.78333	0.20418
1625.85468	0.20131
1623.92603	0.19736
1621.99738	0.19239
1620.06872	0.18660
1618.14007	0.18033
1616.21142	0.17377
1614.28276	0.16692
1612.35411	0.15976
1610.42546	0.15246
1608.49680	0.14530
1606.56815	0.13842
1604.63950	0.13188
1602.71084	0.12573
1600.78219	0.12000
1598.85354	0.11479
1596.92488	0.11018
1594.99623	0.10617
1593.06758	0.10277
1591.13892	0.10002
1589.21027	0.09779
1587.28162	0.09602
1585.35296	0.09481
1583.42431	0.09425
1581.49566	0.09436
1579.56700	0.09503
1577.63835	0.09626
1575.70970	0.09817
1573.78104	0.10069
1571.85239	0.10358
1569.92374	0.10690
1567.99508	0.11071
1566.06643	0.11484
1564.13778	0.11908
1562.20912	0.12330
1560.28047	0.12753
1558.35182	0.13186
1556.42316	0.13605
1554.49451	0.13973
1552.56586	0.14290
1550.63721	0.14574
1548.70855	0.14825
1546.77990	0.15020
1544.85125	0.15152
1542.92259	0.15236
1540.99394	0.15290
1539.06529	0.15318
1537.13663	0.15308
1535.20798	0.15251
1533.27933	0.15152
1531.35067	0.15023
1529.42202	0.14873
1527.49337	0.14703
1525.56471	0.14511
1523.63606	0.14296
1521.70741	0.14066
1519.77875	0.13825
1517.85010	0.13563
1515.92145	0.13260
1513.99279	0.12915
1512.06414	0.12537
1510.13549	0.12134
1508.20683	0.11707
1506.27818	0.11272
1504.34953	0.10846
1502.42087	0.10435
1500.49222	0.10035
1498.56357	0.09650
1496.63491	0.09283
1494.70626	0.08938
1492.77761	0.08619
1490.84895	0.08328
1488.92030	0.08080
1486.99165	0.07899
1485.06299	0.07791
1483.13434	0.07738
1481.20569	0.07733
1479.27704	0.07775
1477.34838	0.07870
1475.41973	0.08022
1473.49108	0.08236
1471.56242	0.08502
1469.63377	0.08790
1467.70512	0.09070
1465.77646	0.09329
1463.84781	0.09579
1461.91916	0.09819
1459.99050	0.10054
1458.06185	0.10295
1456.13320	0.10531
1454.20454	0.10726
1452.27589	0.10855
1450.34724	0.10918
1448.41858	0.10919
1446.48993	0.10866
1444.56128	0.10769
1442.63262	0.10640
1440.70397	0.10499
1438.77532	0.10345
1436.84666	0.10166
1434.91801	0.09964
1432.98936	0.09755
1431.06070	0.09554
1429.13205	0.09379
1427.20340	0.09235
1425.27474	0.09121
1423.34609	0.09036
1421.41744	0.08980
1419.48878	0.08957
1417.56013	0.08966
1415.63148	0.08992
1413.70283	0.09015
1411.77417	0.09032
1409.84552	0.09041
1407.91687	0.09032
1405.98821	0.08993
1404.05956	0.08923
1402.13091	0.08829
1400.20225	0.08717
1398.27360	0.08600
1396.34495	0.08489
1394.41629	0.08388
1392.48764	0.08299
1390.55899	0.08228
1388.63033	0.08177
1386.70168	0.08143
1384.77303	0.08117
1382.84437	0.08090
1380.91572	0.08063
1378.98707	0.08038
1377.05841	0.07996
1375.12976	0.07928
1373.20111	0.07851
1371.27245	0.07774
1369.34380	0.07686
1367.41515	0.07581
1365.48649	0.07471
1363.55784	0.07369
1361.62919	0.07288
1359.70053	0.07248
1357.77188	0.07249
1355.84323	0.07275
1353.91457	0.07325
1351.98592	0.07413
1350.05727	0.07534
1348.12861	0.07669
1346.19996	0.07810
1344.27131	0.07957
1342.34266	0.08101
1340.41400	0.08220
1338.48535	0.08297
1336.55670	0.08331
1334.62804	0.08319
1332.69939	0.08262
1330.77074	0.08174
1328.84208	0.08068
1326.91343	0.07951
1324.98478	0.07835
1323.05612	0.07736
1321.12747	0.07665
1319.19882	0.07615
1317.27016	0.07575
1315.34151	0.07538
1313.41286	0.07503
1311.48420	0.07469
1309.55555	0.07437
1307.62690	0.07406
1305.69824	0.07376
1303.76959	0.07356
1301.84094	0.07345
1299.91228	0.07341
1297.98363	0.07348
1296.05498	0.07367
1294.12632	0.07404
1292.19767	0.07470
1290.26902	0.07561
1288.34036	0.07656
1286.41171	0.07743
1284.48306	0.07826
1282.55440	0.07909
1280.62575	0.07974
1278.69710	0.08006
1276.76845	0.08013
1274.83979	0.08024
1272.91114	0.08047
1270.98249	0.08076
1269.05383	0.08114
1267.12518	0.08174
1265.19653	0.08250
1263.26787	0.08332
1261.33922	0.08419
1259.41057	0.08514
1257.48191	0.08620
1255.55326	0.08736
1253.62461	0.08871
1251.69595	0.09027
1249.76730	0.09196
1247.83865	0.09369
1245.90999	0.09539
1243.98134	0.09703
1242.05269	0.09863
1240.12403	0.10006
1238.19538	0.10113
1236.26673	0.10177
1234.33807	0.10204
1232.40942	0.10194
1230.48077	0.10138
1228.55211	0.10034
1226.62346	0.09892
1224.69481	0.09718
1222.76615	0.09521
1220.83750	0.09325
1218.90885	0.09150
1216.98019	0.09009
1215.05154	0.08913
1213.12289	0.08869
1211.19423	0.08870
1209.26558	0.08903
1207.33693	0.08956
1205.40828	0.09011
1203.47962	0.09041
1201.55097	0.09031
1199.62232	0.08984
1197.69366	0.08896
1195.76501	0.08778
1193.83636	0.08648
1191.90770	0.08529
1189.97905	0.08426
1188.05040	0.08337
1186.12174	0.08262
1184.19309	0.08199
1182.26444	0.08152
1180.33578	0.08127
1178.40713	0.08117
1176.47848	0.08123
1174.54982	0.08143
1172.62117	0.08171
1170.69252	0.08206
1168.76386	0.08260
1166.83521	0.08322
1164.90656	0.08371
1162.97790	0.08410
1161.04925	0.08439
1159.12060	0.08445
1157.19194	0.08429
1155.26329	0.08404
1153.33464	0.08362
1151.40598	0.08300
1149.47733	0.08239
1147.54868	0.08187
1145.62002	0.08136
1143.69137	0.08091
1141.76272	0.08056
1139.83406	0.08033
1137.90541	0.08026
1135.97676	0.08037
1134.04811	0.08060
1132.11945	0.08085
1130.19080	0.08108
1128.26215	0.08130
1126.33349	0.08154
1124.40484	0.08181
1122.47619	0.08210
1120.54753	0.08248
1118.61888	0.08293
1116.69023	0.08329
1114.76157	0.08363
1112.83292	0.08410
1110.90427	0.08470
1108.97561	0.08531
1107.04696	0.08588
1105.11831	0.08637
1103.18965	0.08684
1101.26100	0.08744
1099.33235	0.08821
1097.40369	0.08903
1095.47504	0.08990
1093.54639	0.09078
1091.61773	0.09170
1089.68908	0.09278
1087.76043	0.09411
1085.83177	0.09557
1083.90312	0.09693
1081.97447	0.09799
1080.04581	0.09858
1078.11716	0.09859
1076.18851	0.09819
1074.25985	0.09758
1072.33120	0.09684
1070.40255	0.09610
1068.47390	0.09551
1066.54524	0.09514
1064.61659	0.09483
1062.68794	0.09437
1060.75928	0.09368
1058.83063	0.09285
1056.90198	0.09196
1054.97332	0.09105
1053.04467	0.09012
1051.11602	0.08912
1049.18736	0.08806
1047.25871	0.08705
1045.33006	0.08614
1043.40140	0.08533
1041.47275	0.08468
1039.54410	0.08436
1037.61544	0.08444
1035.68679	0.08475
1033.75814	0.08501
1031.82948	0.08503
1029.90083	0.08466
1027.97218	0.08391
1026.04352	0.08291
1024.11487	0.08184
1022.18622	0.08084
1020.25756	0.07997
1018.32891	0.07930
1016.40026	0.07883
1014.47160	0.07836
1012.54295	0.07775
1010.61430	0.07700
1008.68564	0.07620
1006.75699	0.07549
1004.82834	0.07479
1002.89968	0.07399
1000.97103	0.07306
999.04238	0.07196
997.11373	0.07075
995.18507	0.06962
993.25642	0.06866
991.32777	0.06774
989.39911	0.06677
987.47046	0.06587
985.54181	0.06519
983.61315	0.06470
981.68450	0.06431
979.75585	0.06403
977.82719	0.06385
975.89854	0.06374
973.96989	0.06367
972.04123	0.06355
970.11258	0.06325
968.18393	0.06286
966.25527	0.06257
964.32662	0.06249
962.39797	0.06254
960.46931	0.06248
958.54066	0.06233
956.61201	0.06220
954.68335	0.06206
952.75470	0.06186
950.82605	0.06167
948.89739	0.06155
946.96874	0.06144
945.04009	0.06130
943.11143	0.06115
941.18278	0.06096
939.25413	0.06071
937.32547	0.06041
935.39682	0.06004
933.46817	0.05947
931.53952	0.05871
929.61086	0.05789
927.68221	0.05716
925.75356	0.05662
923.82490	0.05624
921.89625	0.05585
919.96760	0.05536
918.03894	0.05479
916.11029	0.05407
914.18164	0.05317
912.25298	0.05239
910.32433	0.05195
908.39568	0.05163
906.46702	0.05128
904.53837	0.05103
902.60972	0.05085
900.68106	0.05056
898.75241	0.05029
896.82376	0.05018
894.89510	0.05014
892.96645	0.05005
891.03780	0.04987
889.10914	0.04972
887.18049	0.04974
885.25184	0.04999
883.32318	0.05040
881.39453	0.05076
879.46588	0.05087
877.53722	0.05086
875.60857	0.05089
873.67992	0.05088
871.75126	0.05077
869.82261	0.05060
867.89396	0.05043
865.96530	0.05015
864.03665	0.04968
862.10800	0.04919
860.17935	0.04882
858.25069	0.04848
856.32204	0.04815
854.39339	0.04789
852.46473	0.04762
850.53608	0.04717
848.60743	0.04650
846.67877	0.04578
844.75012	0.04516
842.82147	0.04470
840.89281	0.04426
838.96416	0.04378
837.03551	0.04339
835.10685	0.04308
833.17820	0.04287
831.24955	0.04279
829.32089	0.04274
827.39224	0.04260
825.46359	0.04245
823.53493	0.04250
821.60628	0.04270
819.67763	0.04290
817.74897	0.04304
815.82032	0.04309
813.89167	0.04313
811.96301	0.04325
810.03436	0.04334
808.10571	0.04332
806.17705	0.04329
804.24840	0.04342
802.31975	0.04366
800.39109	0.04383
798.46244	0.04393
796.53379	0.04408
794.60513	0.04424
792.67648	0.04427
790.74783	0.04432
788.81918	0.04452
786.89052	0.04475
784.96187	0.04494
783.03322	0.04505
781.10456	0.04513
779.17591	0.04522
777.24726	0.04524
775.31860	0.04514
773.38995	0.04511
771.46130	0.04521
769.53264	0.04531
767.60399	0.04549
765.67534	0.04580
763.74668	0.04607
761.81803	0.04633
759.88938	0.04665
757.96072	0.04697
756.03207	0.04727
754.10342	0.04763
752.17476	0.04807
750.24611	0.04842
748.31746	0.04869
746.38880	0.04894
744.46015	0.04907
742.53150	0.04919
740.60284	0.04957
738.67419	0.05022
736.74554	0.05071
734.81688	0.05083
732.88823	0.05104
730.95958	0.05167
729.03092	0.05241
727.10227	0.05298
725.17362	0.05351
723.24497	0.05391
721.31631	0.05447
719.38766	0.05484
717.45901	0.05505
715.53035	0.05524
713.60170	0.05538
711.67305	0.05556
709.74439	0.05592
707.81574	0.05640
705.88709	0.05678
703.95843	0.05705
702.02978	0.05730
700.10113	0.05754
698.17247	0.05774
696.24382	0.05796
694.31517	0.05825
692.38651	0.05855
690.45786	0.05881
688.52921	0.05897
686.60055	0.05901
684.67190	0.05903
682.74325	0.05922
680.81459	0.05959
678.88594	0.05994
676.95729	0.06018
675.02863	0.06040
673.09998	0.06066
671.17133	0.06094
669.24267	0.06127
667.31402	0.06162
665.38537	0.06189
663.45671	0.06205
661.52806	0.06220
659.59941	0.06236
657.67075	0.06250
655.74210	0.06265
653.81345	0.06285
651.88480	0.06298
649.95614	0.06307
648.02749	0.06314
646.09884	0.06321
644.17018	0.06328
642.24153	0.06333
640.31288	0.06338
638.38422	0.06347
636.45557	0.06358
634.52692	0.06367
632.59826	0.06377
630.66961	0.06396
628.74096	0.06430
626.81230	0.06331
624.88365	0.06201
622.95500	0.06115
621.02634	0.06083
619.09769	0.06125
617.16904	0.06251
615.24038	0.06379
613.31173	0.06433
611.38308	0.06420
609.45442	0.06369
607.52577	0.06328
605.59712	0.06298
603.66846	0.06297
601.73981	0.06389
599.81116	0.06524
597.88250	0.06625
595.95385	0.06687
594.02520	0.06718
592.09654	0.06733
590.16789	0.06761
588.23924	0.06795
586.31059	0.06828
584.38193	0.06868
582.45328	0.06906
580.52463	0.06932
578.59597	0.06956
576.66732	0.06987
574.73867	0.07030
572.81001	0.07076
570.88136	0.07108
568.95271	0.07122
567.02405	0.07136
565.09540	0.07169
563.16675	0.07211
561.23809	0.07238
559.30944	0.07257
557.38079	0.07302
555.45213	0.07349
553.52348	0.07353
551.59483	0.07341
549.66617	0.07349
547.73752	0.07359
545.80887	0.07359
543.88021	0.07361
541.95156	0.07363
540.02291	0.07375
538.09425	0.07408
536.16560	0.07455
534.23695	0.07498
532.30829	0.07529
530.37964	0.07553
528.45099	0.07570
526.52233	0.07561
524.59368	0.07520
522.66503	0.07475
520.73637	0.07440
518.80772	0.07405
516.87907	0.07371
514.95042	0.07335
513.02176	0.07290
511.09311	0.07238
509.16446	0.07192
507.23580	0.07154
505.30715	0.07103
503.37850	0.07024
501.44984	0.06947
499.52119	0.06885
497.59254	0.06816
495.66388	0.06742
493.73523	0.06668
491.80658	0.06584
489.87792	0.06501
487.94927	0.06432
486.02062	0.06374
484.09196	0.06318
482.16331	0.06265
480.23466	0.06230
478.30600	0.06222
476.37735	0.06210
474.44870	0.06168
472.52004	0.06113
470.59139	0.06074
468.66274	0.06057
466.73408	0.06039
464.80543	0.06004
462.87678	0.05955
460.94812	0.05902
459.01947	0.05850
457.09082	0.05803
455.16216	0.05760
453.23351	0.05707
451.30486	0.05644
449.37620	0.05578
447.44755	0.05516
445.51890	0.05469
443.59025	0.05434
441.66159	0.05387
439.73294	0.05330
437.80429	0.05289
435.87563	0.05271
433.94698	0.05252
432.01833	0.05216
430.08967	0.05170
428.16102	0.05121
426.23237	0.05077
424.30371	0.05036
422.37506	0.04992
420.44641	0.04949
418.51775	0.04914
416.58910	0.04885
414.66045	0.04852
412.73179	0.04807
410.80314	0.04760
408.87449	0.04720
406.94583	0.04687
405.01718	0.04662
403.08853	0.04651
401.15987	0.04640
399.23122	0.04612
