3997.45528	0.06691
3996.16951	0.06709
3994.88374	0.06721
3993.59798	0.06726
3992.31221	0.06738
3991.02644	0.06776
3989.74067	0.06842
3988.45490	0.06910
3987.16913	0.06934
3985.88336	0.06886
3984.59759	0.06785
3983.31183	0.06696
3982.02606	0.06668
3980.74029	0.06695
3979.45452	0.06723
3978.16875	0.06715
3976.88298	0.06688
3975.59721	0.06688
3974.31144	0.06738
3973.02567	0.06810
3971.73991	0.06854
3970.45414	0.06850
3969.16837	0.06820
3967.88260	0.06803
3966.59683	0.06805
3965.31106	0.06805
3964.02529	0.06783
3962.73952	0.06746
3961.45376	0.06717
3960.16799	0.06704
3958.88222	0.06704
3957.59645	0.06707
3956.31068	0.06701
3955.02491	0.06678
3953.73914	0.06650
3952.45337	0.06642
3951.16760	0.06667
3949.88184	0.06695
3948.59607	0.06682
3947.31030	0.06620
3946.02453	0.06549
3944.73876	0.06514
3943.45299	0.06518
3942.16722	0.06531
3940.88145	0.06529
3939.59569	0.06519
3938.30992	0.06521
3937.02415	0.06547
3935.73838	0.06593
3934.45261	0.06642
3933.16684	0.06675
3931.88107	0.06676
3930.59530	0.06647
3929.30953	0.06603
3928.02377	0.06564
3926.73800	0.06537
3925.45223	0.06520
3924.16646	0.06509
3922.88069	0.06506
3921.59492	0.06513
3920.30915	0.06517
3919.02338	0.06488
3917.73762	0.06406
3916.45185	0.06301
3915.16608	0.06239
3913.88031	0.06262
3912.59454	0.06342
3911.30877	0.06419
3910.02300	0.06452
3908.73723	0.06438
3907.45146	0.06399
3906.16570	0.06366
3904.87993	0.06365
3903.59416	0.06402
3902.30839	0.06460
3901.02262	0.06509
3899.73685	0.06530
3898.45108	0.06502
3897.16531	0.06419
3895.87955	0.06302
3894.59378	0.06189
3893.30801	0.06114
3892.02224	0.06091
3890.73647	0.06126
3889.45070	0.06213
3888.16493	0.06317
3886.87916	0.06390
3885.59339	0.06399
3884.30763	0.06360
3883.02186	0.06319
3881.73609	0.06308
3880.45032	0.06323
3879.16455	0.06334
3877.87878	0.06324
3876.59301	0.06299
3875.30724	0.06281
3874.02148	0.06280
3872.73571	0.06289
3871.44994	0.06295
3870.16417	0.06296
3868.87840	0.06297
3867.59263	0.06307
3866.30686	0.06317
3865.02109	0.06315
3863.73532	0.06304
3862.44956	0.06295
3861.16379	0.06295
3859.87802	0.06297
3858.59225	0.06293
3857.30648	0.06289
3856.02071	0.06298
3854.73494	0.06316
3853.44917	0.06322
3852.16341	0.06299
3850.87764	0.06256
3849.59187	0.06215
3848.30610	0.06190
3847.02033	0.06175
3845.73456	0.06155
3844.44879	0.06130
3843.16302	0.06117
3841.87725	0.06133
3840.59149	0.06172
3839.30572	0.06206
3838.01995	0.06200
3836.73418	0.06142
3835.44841	0.06066
3834.16264	0.06023
3832.87687	0.06034
3831.59110	0.06070
3830.30534	0.06080
3829.01957	0.06041
3827.73380	0.05982
3826.44803	0.05949
3825.16226	0.05971
3823.87649	0.06040
3822.59072	0.06116
3821.30495	0.06165
3820.01918	0.06176
3818.73342	0.06163
3817.44765	0.06141
3816.16188	0.06113
3814.87611	0.06077
3813.59034	0.06035
3812.30457	0.05992
3811.01880	0.05958
3809.73303	0.05940
3808.44726	0.05931
3807.16150	0.05913
3805.87573	0.05887
3804.58996	0.05872
3803.30419	0.05888
3802.01842	0.05924
3800.73265	0.05951
3799.44688	0.05946
3798.16111	0.05912
3796.87535	0.05861
3795.58958	0.05817
3794.30381	0.05800
3793.01804	0.05817
3791.73227	0.05851
3790.44650	0.05879
3789.16073	0.05893
3787.87496	0.05904
3786.58919	0.05919
3785.30343	0.05930
3784.01766	0.05928
3782.73189	0.05922
3781.44612	0.05920
3780.16035	0.05915
3778.87458	0.05891
3777.58881	0.05846
3776.30304	0.05807
3775.01728	0.05800
3773.73151	0.05828
3772.44574	0.05867
3771.15997	0.05899
3769.87420	0.05912
3768.58843	0.05897
3767.30266	0.05855
3766.01689	0.05806
3764.73112	0.05772
3763.44536	0.05757
3762.15959	0.05748
3760.87382	0.05738
3759.58805	0.05727
3758.30228	0.05710
3757.01651	0.05680
3755.73074	0.05645
3754.44497	0.05628
3753.15921	0.05643
3751.87344	0.05680
3750.58767	0.05721
3749.30190	0.05767
3748.01613	0.05829
3746.73036	0.05906
3745.44459	0.05965
3744.15882	0.05974
3742.87305	0.05937
3741.58729	0.05890
3740.30152	0.05866
3739.01575	0.05864
3737.72998	0.05857
3736.44421	0.05811
3735.15844	0.05710
3733.87267	0.05574
3732.58690	0.05468
3731.30114	0.05459
3730.01537	0.05550
3728.72960	0.05673
3727.44383	0.05743
3726.15806	0.05733
3724.87229	0.05685
3723.58652	0.05654
3722.30075	0.05650
3721.01498	0.05647
3719.72922	0.05622
3718.44345	0.05579
3717.15768	0.05529
3715.87191	0.05480
3714.58614	0.05435
3713.30037	0.05398
3712.01460	0.05372
3710.72883	0.05356
3709.44307	0.05357
3708.15730	0.05384
3706.87153	0.05436
3705.58576	0.05495
3704.29999	0.05536
3703.01422	0.05556
3701.72845	0.05571
3700.44268	0.05587
3699.15691	0.05589
3697.87115	0.05568
3696.58538	0.05544
3695.29961	0.05532
3694.01384	0.05522
3692.72807	0.05500
3691.44230	0.05461
3690.15653	0.05419
3688.87076	0.05412
3687.58500	0.05447
3686.29923	0.05494
3685.01346	0.05526
3683.72769	0.05536
3682.44192	0.05535
3681.15615	0.05541
3679.87038	0.05566
3678.58461	0.05598
3677.29884	0.05616
3676.01308	0.05611
3674.72731	0.05596
3673.44154	0.05606
3672.15577	0.05656
3670.87000	0.05732
3669.58423	0.05802
3668.29846	0.05847
3667.01269	0.05866
3665.72693	0.05864
3664.44116	0.05841
3663.15539	0.05810
3661.86962	0.05797
3660.58385	0.05828
3659.29808	0.05885
3658.01231	0.05923
3656.72654	0.05911
3655.44077	0.05879
3654.15501	0.05885
3652.86924	0.05959
3651.58347	0.06072
3650.29770	0.06163
3649.01193	0.06200
3647.72616	0.06199
3646.44039	0.06204
3645.15462	0.06242
3643.86886	0.06311
3642.58309	0.06389
3641.29732	0.06457
3640.01155	0.06512
3638.72578	0.06566
3637.44001	0.06628
3636.15424	0.06694
3634.86847	0.06745
3633.58270	0.06763
3632.29694	0.06757
3631.01117	0.06760
3629.72540	0.06802
3628.43963	0.06885
3627.15386	0.06985
3625.86809	0.07071
3624.58232	0.07133
3623.29655	0.07171
3622.01079	0.07196
3620.72502	0.07222
3619.43925	0.07264
3618.15348	0.07318
3616.86771	0.07366
3615.58194	0.07391
3614.29617	0.07407
3613.01040	0.07456
3611.72463	0.07566
3610.43887	0.07722
3609.15310	0.07882
3607.86733	0.08020
3606.58156	0.08142
3605.29579	0.08256
3604.01002	0.08353
3602.72425	0.08419
3601.43848	0.08453
3600.15272	0.08470
3598.86695	0.08485
3597.58118	0.08520
3596.29541	0.08595
3595.00964	0.08699
3593.72387	0.08794
3592.43810	0.08864
3591.15233	0.08926
3589.86656	0.08996
3588.58080	0.09062
3587.29503	0.09106
3586.00926	0.09130
3584.72349	0.09168
3583.43772	0.09259
3582.15195	0.09408
3580.86618	0.09576
3579.58041	0.09724
3578.29464	0.09833
3577.00888	0.09908
3575.72311	0.09971
3574.43734	0.10041
3573.15157	0.10129
3571.86580	0.10225
3570.58003	0.10297
3569.29426	0.10320
3568.00849	0.10306
3566.72273	0.10299
3565.43696	0.10341
3564.15119	0.10436
3562.86542	0.10554
3561.57965	0.10658
3560.29388	0.10741
3559.00811	0.10826
3557.72234	0.10939
3556.43657	0.11082
3555.15081	0.11223
3553.86504	0.11333
3552.57927	0.11416
3551.29350	0.11509
3550.00773	0.11636
3548.72196	0.11777
3547.43619	0.11885
3546.15042	0.11938
3544.86466	0.11960
3543.57889	0.11989
3542.29312	0.12041
3541.00735	0.12118
3539.72158	0.12226
3538.43581	0.12374
3537.15004	0.12555
3535.86427	0.12735
3534.57850	0.12879
3533.29274	0.12976
3532.00697	0.13035
3530.72120	0.13081
3529.43543	0.13141
3528.14966	0.13227
3526.86389	0.13330
3525.57812	0.13427
3524.29235	0.13508
3523.00659	0.13580
3521.72082	0.13650
3520.43505	0.13718
3519.14928	0.13786
3517.86351	0.13864
3516.57774	0.13960
3515.29197	0.14068
3514.00620	0.14172
3512.72043	0.14259
3511.43467	0.14320
3510.14890	0.14352
3508.86313	0.14371
3507.57736	0.14412
3506.29159	0.14506
3505.00582	0.14660
3503.72005	0.14838
3502.43428	0.14995
3501.14852	0.15102
3499.86275	0.15163
3498.57698	0.15202
3497.29121	0.15238
3496.00544	0.15278
3494.71967	0.15325
3493.43390	0.15386
3492.14813	0.15461
3490.86236	0.15545
3489.57660	0.15627
3488.29083	0.15692
3487.00506	0.15737
3485.71929	0.15772
3484.43352	0.15828
3483.14775	0.15923
3481.86198	0.16044
3480.57621	0.16153
3479.29045	0.16227
3478.00468	0.16282
3476.71891	0.16342
3475.43314	0.16402
3474.14737	0.16435
3472.86160	0.16438
3471.57583	0.16448
3470.29006	0.16508
3469.00429	0.16626
3467.71853	0.16776
3466.43276	0.16917
3465.14699	0.17024
3463.86122	0.17101
3462.57545	0.17162
3461.28968	0.17220
3460.00391	0.17272
3458.71814	0.17318
3457.43238	0.17367
3456.14661	0.17424
3454.86084	0.17483
3453.57507	0.17546
3452.28930	0.17626
3451.00353	0.17738
3449.71776	0.17869
3448.43199	0.17989
3447.14622	0.18080
3445.86046	0.18139
3444.57469	0.18170
3443.28892	0.18182
3442.00315	0.18196
3440.71738	0.18236
3439.43161	0.18305
3438.14584	0.18392
3436.86007	0.18484
3435.57431	0.18573
3434.28854	0.18654
3433.00277	0.18727
3431.71700	0.18800
3430.43123	0.18877
3429.14546	0.18951
3427.85969	0.19007
3426.57392	0.19041
3425.28815	0.19065
3424.00239	0.19100
3422.71662	0.19160
3421.43085	0.19248
3420.14508	0.19355
3418.85931	0.19461
3417.57354	0.19550
3416.28777	0.19618
3415.00200	0.19685
3413.71624	0.19770
3412.43047	0.19879
3411.14470	0.19998
3409.85893	0.20105
3408.57316	0.20187
3407.28739	0.20248
3406.00162	0.20310
3404.71585	0.20401
3403.43008	0.20520
3402.14432	0.20637
3400.85855	0.20711
3399.57278	0.20735
3398.28701	0.20736
3397.00124	0.20748
3395.71547	0.20792
3394.42970	0.20868
3393.14393	0.20960
3391.85817	0.21046
3390.57240	0.21118
3389.28663	0.21186
3388.00086	0.21262
3386.71509	0.21358
3385.42932	0.21479
3384.14355	0.21622
3382.85778	0.21772
3381.57201	0.21915
3380.28625	0.22046
3379.00048	0.22169
3377.71471	0.22282
3376.42894	0.22379
3375.14317	0.22456
3373.85740	0.22527
3372.57163	0.22614
3371.28586	0.22724
3370.00010	0.22850
3368.71433	0.22988
3367.42856	0.23149
3366.14279	0.23347
3364.85702	0.23576
3363.57125	0.23816
3362.28548	0.24043
3360.99971	0.24248
3359.71394	0.24435
3358.42818	0.24605
3357.14241	0.24751
3355.85664	0.24875
3354.57087	0.24994
3353.28510	0.25131
3351.99933	0.25295
3350.71356	0.25488
3349.42779	0.25704
3348.14202	0.25927
3346.85626	0.26127
3345.57049	0.26279
3344.28472	0.26387
3342.99895	0.26483
3341.71318	0.26599
3340.42741	0.26736
3339.14164	0.26874
3337.85587	0.26994
3336.57011	0.27108
3335.28434	0.27250
3333.99857	0.27435
3332.71280	0.27634
3331.42703	0.27796
3330.14126	0.27892
3328.85549	0.27939
3327.56972	0.27985
3326.28395	0.28069
3324.99819	0.28193
3323.71242	0.28330
3322.42665	0.28453
3321.14088	0.28554
3319.85511	0.28635
3318.56934	0.28698
3317.28357	0.28740
3315.99780	0.28763
3314.71204	0.28777
3313.42627	0.28803
3312.14050	0.28854
3310.85473	0.28926
3309.56896	0.28996
3308.28319	0.29046
3306.99742	0.29076
3305.71165	0.29097
3304.42588	0.29117
3303.14012	0.29134
3301.85435	0.29150
3300.56858	0.29165
3299.28281	0.29169
3297.99704	0.29154
3296.71127	0.29122
3295.42550	0.29092
3294.13973	0.29078
3292.85397	0.29072
3291.56820	0.29048
3290.28243	0.28990
3288.99666	0.28913
3287.71089	0.28849
3286.42512	0.28810
3285.13935	0.28783
3283.85358	0.28751
3282.56781	0.28713
3281.28205	0.28670
3279.99628	0.28620
3278.71051	0.28559
3277.42474	0.28490
3276.13897	0.28416
3274.85320	0.28331
3273.56743	0.28226
3272.28166	0.28097
3270.99590	0.27957
3269.71013	0.27820
3268.42436	0.27691
3267.13859	0.27566
3265.85282	0.27444
3264.56705	0.27334
3263.28128	0.27244
3261.99551	0.27172
3260.70974	0.27101
3259.42398	0.27010
3258.13821	0.26889
3256.85244	0.26746
3255.56667	0.26604
3254.28090	0.26477
3252.99513	0.26359
3251.70936	0.26250
3250.42359	0.26160
3249.13783	0.26102
3247.85206	0.26061
3246.56629	0.25998
3245.28052	0.25889
3243.99475	0.25747
3242.70898	0.25608
3241.42321	0.25495
3240.13744	0.25409
3238.85167	0.25331
3237.56591	0.25248
3236.28014	0.25160
3234.99437	0.25076
3233.70860	0.25001
3232.42283	0.24926
3231.13706	0.24840
3229.85129	0.24741
3228.56552	0.24639
3227.27976	0.24540
3225.99399	0.24445
3224.70822	0.24357
3223.42245	0.24282
3222.13668	0.24222
3220.85091	0.24166
3219.56514	0.24101
3218.27937	0.24029
3216.99360	0.23957
3215.70784	0.23888
3214.42207	0.23818
3213.13630	0.23746
3211.85053	0.23679
3210.56476	0.23620
3209.27899	0.23568
3207.99322	0.23527
3206.70745	0.23505
3205.42169	0.23496
3204.13592	0.23474
3202.85015	0.23412
3201.56438	0.23307
3200.27861	0.23174
3198.99284	0.23024
3197.70707	0.22875
3196.42130	0.22750
3195.13553	0.22665
3193.84977	0.22608
3192.56400	0.22542
3191.27823	0.22439
3189.99246	0.22301
3188.70669	0.22160
3187.42092	0.22047
3186.13515	0.21961
3184.84938	0.21874
3183.56362	0.21759
3182.27785	0.21613
3180.99208	0.21462
3179.70631	0.21329
3178.42054	0.21216
3177.13477	0.21107
3175.84900	0.20989
3174.56323	0.20870
3173.27746	0.20765
3171.99170	0.20681
3170.70593	0.20610
3169.42016	0.20536
3168.13439	0.20444
3166.84862	0.20331
3165.56285	0.20211
3164.27708	0.20098
3162.99131	0.20002
3161.70555	0.19913
3160.41978	0.19814
3159.13401	0.19692
3157.84824	0.19544
3156.56247	0.19376
3155.27670	0.19201
3153.99093	0.19036
3152.70516	0.18896
3151.41939	0.18788
3150.13363	0.18703
3148.84786	0.18628
3147.56209	0.18551
3146.27632	0.18465
3144.99055	0.18369
3143.70478	0.18264
3142.41901	0.18154
3141.13324	0.18040
3139.84748	0.17927
3138.56171	0.17829
3137.27594	0.17756
3135.99017	0.17706
3134.70440	0.17672
3133.41863	0.17641
3132.13286	0.17603
3130.84709	0.17551
3129.56132	0.17484
3128.27556	0.17408
3126.98979	0.17326
3125.70402	0.17247
3124.41825	0.17182
3123.13248	0.17143
3121.84671	0.17132
3120.56094	0.17136
3119.27517	0.17136
3117.98940	0.17125
3116.70364	0.17105
3115.41787	0.17086
3114.13210	0.17074
3112.84633	0.17070
3111.56056	0.17081
3110.27479	0.17115
3108.98902	0.17168
3107.70325	0.17216
3106.41749	0.17233
3105.13172	0.17225
3103.84595	0.17221
3102.56018	0.17244
3101.27441	0.17289
3099.98864	0.17339
3098.70287	0.17391
3097.41710	0.17450
3096.13133	0.17510
3094.84557	0.17554
3093.55980	0.17572
3092.27403	0.17578
3090.98826	0.17595
3089.70249	0.17631
3088.41672	0.17678
3087.13095	0.17722
3085.84518	0.17755
3084.55942	0.17786
3083.27365	0.17826
3081.98788	0.17879
3080.70211	0.17934
3079.41634	0.17970
3078.13057	0.17976
3076.84480	0.17957
3075.55903	0.17935
3074.27326	0.17924
3072.98750	0.17923
3071.70173	0.17919
3070.41596	0.17908
3069.13019	0.17898
3067.84442	0.17895
3066.55865	0.17889
3065.27288	0.17861
3063.98711	0.17807
3062.70135	0.17736
3061.41558	0.17659
3060.12981	0.17577
3058.84404	0.17489
3057.55827	0.17398
3056.27250	0.17316
3054.98673	0.17250
3053.70096	0.17196
3052.41519	0.17143
3051.12943	0.17075
3049.84366	0.16978
3048.55789	0.16848
3047.27212	0.16696
3045.98635	0.16548
3044.70058	0.16427
3043.41481	0.16339
3042.12904	0.16276
3040.84328	0.16220
3039.55751	0.16150
3038.27174	0.16059
3036.98597	0.15960
3035.70020	0.15872
3034.41443	0.15796
3033.12866	0.15718
3031.84289	0.15617
3030.55712	0.15499
3029.27136	0.15382
3027.98559	0.15284
3026.69982	0.15209
3025.41405	0.15148
3024.12828	0.15087
3022.84251	0.15018
3021.55674	0.14946
3020.27097	0.14881
3018.98521	0.14831
3017.69944	0.14786
3016.41367	0.14733
3015.12790	0.14676
3013.84213	0.14631
3012.55636	0.14612
3011.27059	0.14611
3009.98482	0.14606
3008.69905	0.14583
3007.41329	0.14543
3006.12752	0.14504
3004.84175	0.14475
3003.55598	0.14461
3002.27021	0.14458
3000.98444	0.14467
2999.69867	0.14488
2998.41290	0.14521
2997.12714	0.14555
2995.84137	0.14583
2994.55560	0.14612
2993.26983	0.14651
2991.98406	0.14705
2990.69829	0.14770
2989.41252	0.14848
2988.12675	0.14947
2986.84098	0.15061
2985.55522	0.15179
2984.26945	0.15292
2982.98368	0.15403
2981.69791	0.15509
2980.41214	0.15598
2979.12637	0.15663
2977.84060	0.15718
2976.55483	0.15781
2975.26907	0.15856
2973.98330	0.15937
2972.69753	0.16018
2971.41176	0.16110
2970.12599	0.16231
2968.84022	0.16379
2967.55445	0.16538
2966.26868	0.16693
2964.98291	0.16839
2963.69715	0.16978
2962.41138	0.17108
2961.12561	0.17228
2959.83984	0.17342
2958.55407	0.17449
2957.26830	0.17532
2955.98253	0.17581
2954.69676	0.17596
2953.41100	0.17592
2952.12523	0.17577
2950.83946	0.17561
2949.55369	0.17560
2948.26792	0.17594
2946.98215	0.17670
2945.69638	0.17776
2944.41061	0.17899
2943.12484	0.18038
2941.83908	0.18199
2940.55331	0.18390
2939.26754	0.18616
2937.98177	0.18882
2936.69600	0.19175
2935.41023	0.19465
2934.12446	0.19733
2932.83869	0.19978
2931.55293	0.20209
2930.26716	0.20427
2928.98139	0.20627
2927.69562	0.20806
2926.40985	0.20969
2925.12408	0.21122
2923.83831	0.21257
2922.55254	0.21362
2921.26677	0.21420
2919.98101	0.21421
2918.69524	0.21349
2917.40947	0.21168
2916.12370	0.20840
2914.83793	0.20362
2913.55216	0.19792
2912.26639	0.19212
2910.98062	0.18688
2909.69486	0.18238
2908.40909	0.17855
2907.12332	0.17527
2905.83755	0.17245
2904.55178	0.16995
2903.26601	0.16764
2901.98024	0.16544
2900.69447	0.16330
2899.40870	0.16121
2898.12294	0.15925
2896.83717	0.15765
2895.55140	0.15654
2894.26563	0.15579
2892.97986	0.15513
2891.69409	0.15438
2890.40832	0.15355
2889.12255	0.15272
2887.83678	0.15192
2886.55102	0.15124
2885.26525	0.15074
2883.97948	0.15048
2882.69371	0.15045
2881.40794	0.15056
2880.12217	0.15071
2878.83640	0.15083
2877.55063	0.15092
2876.26487	0.15097
2874.97910	0.15095
2873.69333	0.15069
2872.40756	0.15007
2871.12179	0.14915
2869.83602	0.14814
2868.55025	0.14724
2867.26448	0.14653
2865.97871	0.14602
2864.69295	0.14582
2863.40718	0.14608
2862.12141	0.14685
2860.83564	0.14808
2859.54987	0.14970
2858.26410	0.15162
2856.97833	0.15369
2855.69256	0.15570
2854.40680	0.15748
2853.12103	0.15898
2851.83526	0.16011
2850.54949	0.16046
2849.26372	0.15933
2847.97795	0.15618
2846.69218	0.15122
2845.40641	0.14546
2844.12064	0.14012
2842.83488	0.13582
2841.54911	0.13251
2840.26334	0.12988
2838.97757	0.12769
2837.69180	0.12580
2836.40603	0.12407
2835.12026	0.12243
2833.83449	0.12098
2832.54873	0.11988
2831.26296	0.11912
2829.97719	0.11851
2828.69142	0.11789
2827.40565	0.11721
2826.11988	0.11649
2824.83411	0.11575
2823.54834	0.11504
2822.26257	0.11437
2820.97681	0.11365
2819.69104	0.11285
2818.40527	0.11204
2817.11950	0.11133
2815.83373	0.11075
2814.54796	0.11028
2813.26219	0.10988
2811.97642	0.10956
2810.69066	0.10931
2809.40489	0.10906
2808.11912	0.10877
2806.83335	0.10846
2805.54758	0.10814
2804.26181	0.10781
2802.97604	0.10743
2801.69027	0.10698
2800.40450	0.10651
2799.11874	0.10612
2797.83297	0.10583
2796.54720	0.10557
2795.26143	0.10521
2793.97566	0.10473
2792.68989	0.10418
2791.40412	0.10362
2790.11835	0.10308
2788.83259	0.10259
2787.54682	0.10216
2786.26105	0.10182
2784.97528	0.10158
2783.68951	0.10147
2782.40374	0.10147
2781.11797	0.10144
2779.83220	0.10121
2778.54643	0.10077
2777.26067	0.10028
2775.97490	0.09994
2774.68913	0.09980
2773.40336	0.09973
2772.11759	0.09955
2770.83182	0.09918
2769.54605	0.09868
2768.26028	0.09818
2766.97452	0.09773
2765.68875	0.09734
2764.40298	0.09698
2763.11721	0.09669
2761.83144	0.09650
2760.54567	0.09639
2759.25990	0.09631
2757.97413	0.09621
2756.68836	0.09602
2755.40260	0.09569
2754.11683	0.09523
2752.83106	0.09471
2751.54529	0.09423
2750.25952	0.09385
2748.97375	0.09355
2747.68798	0.09330
2746.40221	0.09309
2745.11645	0.09296
2743.83068	0.09291
2742.54491	0.09289
2741.25914	0.09281
2739.97337	0.09255
2738.68760	0.09207
2737.40183	0.09144
2736.11606	0.09083
2734.83029	0.09040
2733.54453	0.09021
2732.25876	0.09021
2730.97299	0.09022
2729.68722	0.09009
2728.40145	0.08979
2727.11568	0.08940
2725.82991	0.08904
2724.54414	0.08871
2723.25838	0.08836
2721.97261	0.08795
2720.68684	0.08752
2719.40107	0.08714
2718.11530	0.08683
2716.82953	0.08659
2715.54376	0.08642
2714.25799	0.08632
2712.97222	0.08630
2711.68646	0.08630
2710.40069	0.08627
2709.11492	0.08615
2707.82915	0.08594
2706.54338	0.08566
2705.25761	0.08539
2703.97184	0.08517
2702.68607	0.08499
2701.40031	0.08481
2700.11454	0.08461
2698.82877	0.08440
2697.54300	0.08419
2696.25723	0.08396
2694.97146	0.08373
2693.68569	0.08355
2692.39992	0.08347
2691.11415	0.08350
2689.82839	0.08360
2688.54262	0.08370
2687.25685	0.08372
2685.97108	0.08364
2684.68531	0.08346
2683.39954	0.08321
2682.11377	0.08295
2680.82800	0.08277
2679.54224	0.08276
2678.25647	0.08290
2676.97070	0.08309
2675.68493	0.08320
2674.39916	0.08318
2673.11339	0.08305
2671.82762	0.08289
2670.54185	0.08271
2669.25608	0.08254
2667.97032	0.08234
2666.68455	0.08213
2665.39878	0.08197
2664.11301	0.08195
2662.82724	0.08205
2661.54147	0.08218
2660.25570	0.08218
2658.96993	0.08203
2657.68417	0.08179
2656.39840	0.08158
2655.11263	0.08143
2653.82686	0.08127
2652.54109	0.08101
2651.25532	0.08066
2649.96955	0.08031
2648.68378	0.08000
2647.39801	0.07971
2646.11225	0.07939
2644.82648	0.07899
2643.54071	0.07852
2642.25494	0.07796
2640.96917	0.07739
2639.68340	0.07690
2638.39763	0.07652
2637.11186	0.07620
2635.82609	0.07592
2634.54033	0.07571
2633.25456	0.07560
2631.96879	0.07552
2630.68302	0.07537
2629.39725	0.07517
2628.11148	0.07502
2626.82571	0.07491
2625.53994	0.07468
2624.25418	0.07422
2622.96841	0.07361
2621.68264	0.07309
2620.39687	0.07281
2619.11110	0.07272
2617.82533	0.07267
2616.53956	0.07257
2615.25379	0.07246
2613.96802	0.07234
2612.68226	0.07219
2611.39649	0.07201
2610.11072	0.07176
2608.82495	0.07142
2607.53918	0.07095
2606.25341	0.07042
2604.96764	0.06994
2603.68187	0.06957
2602.39611	0.06935
2601.11034	0.06922
2599.82457	0.06909
2598.53880	0.06888
2597.25303	0.06862
2595.96726	0.06839
2594.68149	0.06817
2593.39572	0.06787
2592.10995	0.06753
2590.82419	0.06730
2589.53842	0.06722
2588.25265	0.06709
2586.96688	0.06669
2585.68111	0.06609
2584.39534	0.06559
2583.10957	0.06540
2581.82380	0.06547
2580.53804	0.06559
2579.25227	0.06556
2577.96650	0.06529
2576.68073	0.06490
2575.39496	0.06461
2574.10919	0.06456
2572.82342	0.06463
2571.53765	0.06463
2570.25188	0.06450
2568.96612	0.06431
2567.68035	0.06409
2566.39458	0.06385
2565.10881	0.06365
2563.82304	0.06360
2562.53727	0.06371
2561.25150	0.06380
2559.96573	0.06362
2558.67997	0.06299
2557.39420	0.06205
2556.10843	0.06123
2554.82266	0.06092
2553.53689	0.06113
2552.25112	0.06152
2550.96535	0.06173
2549.67958	0.06174
2548.39381	0.06167
2547.10805	0.06160
2545.82228	0.06145
2544.53651	0.06121
2543.25074	0.06090
2541.96497	0.06057
2540.67920	0.06025
2539.39343	0.05993
2538.10766	0.05959
2536.82190	0.05920
2535.53613	0.05885
2534.25036	0.05862
2532.96459	0.05845
2531.67882	0.05827
2530.39305	0.05807
2529.10728	0.05798
2527.82151	0.05806
2526.53574	0.05820
2525.24998	0.05826
2523.96421	0.05823
2522.67844	0.05819
2521.39267	0.05820
2520.10690	0.05825
2518.82113	0.05828
2517.53536	0.05829
2516.24959	0.05832
2514.96383	0.05833
2513.67806	0.05822
2512.39229	0.05793
2511.10652	0.05753
2509.82075	0.05716
2508.53498	0.05681
2507.24921	0.05644
2505.96344	0.05609
2504.67767	0.05582
2503.39191	0.05560
2502.10614	0.05537
2500.82037	0.05518
2499.53460	0.05517
2498.24883	0.05532
2496.96306	0.05537
2495.67729	0.05510
2494.39152	0.05461
2493.10576	0.05416
2491.81999	0.05390
2490.53422	0.05380
2489.24845	0.05384
2487.96268	0.05397
2486.67691	0.05406
2485.39114	0.05389
2484.10537	0.05345
2482.81960	0.05299
2481.53384	0.05278
2480.24807	0.05285
2478.96230	0.05297
2477.67653	0.05297
2476.39076	0.05292
2475.10499	0.05297
2473.81922	0.05320
2472.53345	0.05351
2471.24769	0.05377
2469.96192	0.05380
2468.67615	0.05353
2467.39038	0.05302
2466.10461	0.05249
2464.81884	0.05223
2463.53307	0.05232
2462.24730	0.05259
2460.96153	0.05279
2459.67577	0.05286
2458.39000	0.05289
2457.10423	0.05292
2455.81846	0.05281
2454.53269	0.05247
2453.24692	0.05205
2451.96115	0.05175
2450.67538	0.05162
2449.38962	0.05157
2448.10385	0.05153
2446.81808	0.05149
2445.53231	0.05138
2444.24654	0.05114
2442.96077	0.05083
2441.67500	0.05065
2440.38923	0.05074
2439.10346	0.05102
2437.81770	0.05128
2436.53193	0.05136
2435.24616	0.05131
2433.96039	0.05128
2432.67462	0.05126
2431.38885	0.05116
2430.10308	0.05093
2428.81731	0.05065
2427.53155	0.05041
2426.24578	0.05024
2424.96001	0.05016
2423.67424	0.05019
2422.38847	0.05034
2421.10270	0.05053
2419.81693	0.05065
2418.53116	0.05061
2417.24539	0.05043
2415.95963	0.05023
2414.67386	0.05015
2413.38809	0.05014
2412.10232	0.05013
2410.81655	0.05001
2409.53078	0.04977
2408.24501	0.04943
2406.95924	0.04910
2405.67347	0.04892
2404.38771	0.04894
2403.10194	0.04911
2401.81617	0.04935
2400.53040	0.04951
2399.24463	0.04931
2397.95886	0.04903
2396.67309	0.04873
2395.38732	0.04848
2394.10156	0.04838
2392.81579	0.04843
2391.53002	0.04864
2390.24425	0.04899
2388.95848	0.04938
2387.67271	0.04969
2386.38694	0.04981
2385.10117	0.04982
2383.81540	0.04988
2382.52964	0.05006
2381.24387	0.05022
2379.95810	0.05024
2378.67233	0.05012
2377.38656	0.05001
2376.10079	0.04997
2374.81502	0.04996
2373.52925	0.05001
2372.24349	0.05011
2370.95772	0.05030
2369.67195	0.05023
2368.38618	0.04996
2367.10041	0.04982
2365.81464	0.04999
2364.52887	0.04998
2363.24310	0.04985
2361.95733	0.04989
2360.67157	0.05026
2359.38580	0.05033
2358.10003	0.05011
2356.81426	0.04985
2355.52849	0.04973
2354.24272	0.04978
2352.95695	0.04987
2351.67118	0.05031
2350.38542	0.05096
2349.09965	0.05111
2347.81388	0.05054
2346.52811	0.05027
2345.24234	0.05038
2343.95657	0.05002
2342.67080	0.04904
2341.38503	0.04895
2340.09926	0.04988
2338.81350	0.04977
2337.52773	0.04852
2336.24196	0.04842
2334.95619	0.04932
2333.67042	0.04905
2332.38465	0.04787
2331.09888	0.04832
2329.81311	0.04877
2328.52735	0.04744
2327.24158	0.04770
2325.95581	0.04911
2324.67004	0.04910
2323.38427	0.04940
2322.09850	0.05031
2320.81273	0.04974
2319.52696	0.04953
2318.24119	0.04967
2316.95543	0.04895
2315.66966	0.04865
2314.38389	0.04855
2313.09812	0.04799
2311.81235	0.04773
2310.52658	0.04733
2309.24081	0.04698
2307.95504	0.04688
2306.66928	0.04650
2305.38351	0.04618
2304.09774	0.04593
2302.81197	0.04569
2301.52620	0.04548
2300.24043	0.04497
2298.95466	0.04432
2297.66889	0.04367
2296.38312	0.04315
2295.09736	0.04277
2293.81159	0.04247
2292.52582	0.04234
2291.24005	0.04237
2289.95428	0.04245
2288.66851	0.04236
2287.38274	0.04207
2286.09697	0.04171
2284.81121	0.04140
2283.52544	0.04121
2282.23967	0.04112
2280.95390	0.04112
2279.66813	0.04116
2278.38236	0.04118
2277.09659	0.04114
2275.81082	0.04103
2274.52505	0.04073
2273.23929	0.04021
2271.95352	0.03961
2270.66775	0.03909
2269.38198	0.03864
2268.09621	0.03812
2266.81044	0.03749
2265.52467	0.03686
2264.23890	0.03635
2262.95314	0.03609
2261.66737	0.03617
2260.38160	0.03653
2259.09583	0.03705
2257.81006	0.03752
2256.52429	0.03771
2255.23852	0.03745
2253.95275	0.03681
2252.66698	0.03599
2251.38122	0.03531
2250.09545	0.03518
2248.80968	0.03573
2247.52391	0.03602
2246.23814	0.03610
2244.95237	0.03584
2243.66660	0.03541
2242.38083	0.03514
2241.09507	0.03510
2239.80930	0.03527
2238.52353	0.03558
2237.23776	0.03584
2235.95199	0.03573
2234.66622	0.03516
2233.38045	0.03451
2232.09468	0.03421
2230.80891	0.03428
2229.52315	0.03432
2228.23738	0.03405
2226.95161	0.03356
2225.66584	0.03305
2224.38007	0.03258
2223.09430	0.03214
2221.80853	0.03175
2220.52276	0.03138
2219.23700	0.03092
2217.95123	0.03043
2216.66546	0.03016
2215.37969	0.03032
2214.09392	0.03079
2212.80815	0.03129
2211.52238	0.03168
2210.23661	0.03187
2208.95084	0.03180
2207.66508	0.03146
2206.37931	0.03108
2205.09354	0.03089
2203.80777	0.03077
2202.52200	0.03027
2201.23623	0.02908
2199.95046	0.02737
2198.66469	0.02576
2197.37893	0.02478
2196.09316	0.02459
2194.80739	0.02507
2193.52162	0.02609
2192.23585	0.02747
2190.95008	0.02872
2189.66431	0.02924
2188.37854	0.02883
2187.09277	0.02793
2185.80701	0.02711
2184.52124	0.02667
2183.23547	0.02657
2181.94970	0.02681
2180.66393	0.02734
2179.37816	0.02793
2178.09239	0.02818
2176.80662	0.02775
2175.52085	0.02659
2174.23509	0.02506
2172.94932	0.02382
2171.66355	0.02328
2170.37778	0.02321
2169.09201	0.02291
2167.80624	0.02201
2166.52047	0.02081
2165.23470	0.01987
2163.94894	0.01945
2162.66317	0.01936
2161.37740	0.01936
2160.09163	0.01944
2158.80586	0.01984
2157.52009	0.02073
2156.23432	0.02190
2154.94855	0.02299
2153.66278	0.02383
2152.37702	0.02447
2151.09125	0.02509
2149.80548	0.02590
2148.51971	0.02685
2147.23394	0.02747
2145.94817	0.02730
2144.66240	0.02652
2143.37663	0.02585
2142.09087	0.02574
2140.80510	0.02605
2139.51933	0.02640
2138.23356	0.02666
2136.94779	0.02685
2135.66202	0.02703
2134.37625	0.02726
2133.09048	0.02760
2131.80471	0.02812
2130.51895	0.02880
2129.23318	0.02954
2127.94741	0.03016
2126.66164	0.03058
2125.37587	0.03085
2124.09010	0.03107
2122.80433	0.03129
2121.51856	0.03152
2120.23280	0.03185
2118.94703	0.03229
2117.66126	0.03270
2116.37549	0.03290
2115.08972	0.03273
2113.80395	0.03218
2112.51818	0.03135
2111.23241	0.03051
2109.94664	0.02999
2108.66088	0.03006
2107.37511	0.03070
2106.08934	0.03157
2104.80357	0.03221
2103.51780	0.03246
2102.23203	0.03247
2100.94626	0.03241
2099.66049	0.03267
2098.37473	0.03217
2097.08896	0.03110
2095.80319	0.03014
2094.51742	0.02964
2093.23165	0.02961
2091.94588	0.02979
2090.66011	0.02996
2089.37434	0.03002
2088.08857	0.03003
2086.80281	0.03005
2085.51704	0.03000
2084.23127	0.02982
2082.94550	0.02962
2081.65973	0.02963
2080.37396	0.02992
2079.08819	0.03029
2077.80242	0.03039
2076.51666	0.03010
2075.23089	0.02959
2073.94512	0.02909
2072.65935	0.02872
2071.37358	0.02844
2070.08781	0.02815
2068.80204	0.02778
2067.51627	0.02731
2066.23050	0.02689
2064.94474	0.02668
2063.65897	0.02669
2062.37320	0.02671
2061.08743	0.02653
2059.80166	0.02623
2058.51589	0.02608
2057.23012	0.02621
2055.94435	0.02647
2054.65859	0.02666
2053.37282	0.02679
2052.08705	0.02693
2050.80128	0.02696
2049.51551	0.02656
2048.22974	0.02551
2046.94397	0.02402
2045.65820	0.02265
2044.37243	0.02199
2043.08667	0.02216
2041.80090	0.02269
2040.51513	0.02281
2039.22936	0.02215
2037.94359	0.02100
2036.65782	0.02005
2035.37205	0.01975
2034.08628	0.01992
2032.80052	0.02006
2031.51475	0.01985
2030.22898	0.01954
2028.94321	0.01957
2027.65744	0.02003
2026.37167	0.02071
2025.08590	0.02150
2023.80013	0.02252
2022.51436	0.02356
2021.22860	0.02405
2019.94283	0.02370
2018.65706	0.02297
2017.37129	0.02251
2016.08552	0.02244
2014.79975	0.02250
2013.51398	0.02254
2012.22821	0.02268
2010.94245	0.02285
2009.65668	0.02277
2008.37091	0.02218
2007.08514	0.02113
2005.79937	0.01998
2004.51360	0.01926
2003.22783	0.01921
2001.94206	0.01968
2000.65629	0.02023
1999.37053	0.02057
1998.08476	0.02066
1996.79899	0.02063
1995.51322	0.02067
1994.22745	0.02091
1992.94168	0.02131
1991.65591	0.02166
1990.37014	0.02174
1989.08438	0.02158
1987.79861	0.02129
1986.51284	0.02110
1985.22707	0.02126
1983.94130	0.02204
1982.65553	0.02339
1981.36976	0.02480
1980.08399	0.02559
1978.79822	0.02539
1977.51246	0.02448
1976.22669	0.02358
1974.94092	0.02324
1973.65515	0.02352
1972.36938	0.02402
1971.08361	0.02435
1969.79784	0.02436
1968.51207	0.02416
1967.22631	0.02389
1965.94054	0.02355
1964.65477	0.02307
1963.36900	0.02256
1962.08323	0.02224
1960.79746	0.02217
1959.51169	0.02205
1958.22592	0.02172
1956.94015	0.02144
1955.65439	0.02157
1954.36862	0.02211
1953.08285	0.02273
1951.79708	0.02318
1950.51131	0.02350
1949.22554	0.02374
1947.93977	0.02388
1946.65400	0.02386
1945.36823	0.02377
1944.08247	0.02375
1942.79670	0.02387
1941.51093	0.02408
1940.22516	0.02429
1938.93939	0.02454
1937.65362	0.02489
1936.36785	0.02529
1935.08208	0.02555
1933.79632	0.02549
1932.51055	0.02512
1931.22478	0.02467
1929.93901	0.02438
1928.65324	0.02441
1927.36747	0.02474
1926.08170	0.02516
1924.79593	0.02544
1923.51016	0.02553
1922.22440	0.02555
1920.93863	0.02565
1919.65286	0.02580
1918.36709	0.02588
1917.08132	0.02588
1915.79555	0.02588
1914.50978	0.02599
1913.22401	0.02619
1911.93825	0.02636
1910.65248	0.02638
1909.36671	0.02622
1908.08094	0.02600
1906.79517	0.02589
1905.50940	0.02602
1904.22363	0.02634
1902.93786	0.02666
1901.65209	0.02683
1900.36633	0.02681
1899.08056	0.02665
1897.79479	0.02645
1896.50902	0.02632
1895.22325	0.02637
1893.93748	0.02658
1892.65171	0.02684
1891.36594	0.02694
1890.08018	0.02684
1888.79441	0.02664
1887.50864	0.02651
1886.22287	0.02649
1884.93710	0.02649
1883.65133	0.02644
1882.36556	0.02630
1881.07979	0.02612
1879.79402	0.02600
1878.50826	0.02604
1877.22249	0.02623
1875.93672	0.02645
1874.65095	0.02659
1873.36518	0.02663
1872.07941	0.02662
1870.79364	0.02659
1869.50787	0.02655
1868.22211	0.02648
1866.93634	0.02635
1865.65057	0.02613
1864.36480	0.02587
1863.07903	0.02570
1861.79326	0.02570
1860.50749	0.02583
1859.22172	0.02589
1857.93595	0.02576
1856.65019	0.02549
1855.36442	0.02528
1854.07865	0.02524
1852.79288	0.02538
1851.50711	0.02556
1850.22134	0.02570
1848.93557	0.02577
1847.64980	0.02586
1846.36404	0.02599
1845.07827	0.02615
1843.79250	0.02624
1842.50673	0.02619
1841.22096	0.02606
1839.93519	0.02591
1838.64942	0.02576
1837.36365	0.02560
1836.07788	0.02548
1834.79212	0.02549
1833.50635	0.02570
1832.22058	0.02606
1830.93481	0.02643
1829.64904	0.02668
1828.36327	0.02674
1827.07750	0.02664
1825.79173	0.02650
1824.50597	0.02643
1823.22020	0.02647
1821.93443	0.02656
1820.64866	0.02661
1819.36289	0.02658
1818.07712	0.02646
1816.79135	0.02631
1815.50558	0.02620
1814.21981	0.02612
1812.93405	0.02603
1811.64828	0.02589
1810.36251	0.02573
1809.07674	0.02561
1807.79097	0.02554
1806.50520	0.02551
1805.21943	0.02551
1803.93366	0.02556
1802.64790	0.02566
1801.36213	0.02578
1800.07636	0.02588
1798.79059	0.02597
1797.50482	0.02610
1796.21905	0.02627
1794.93328	0.02644
1793.64751	0.02658
1792.36174	0.02666
1791.07598	0.02667
1789.79021	0.02658
1788.50444	0.02641
1787.21867	0.02625
1785.93290	0.02618
1784.64713	0.02621
1783.36136	0.02626
1782.07559	0.02627
1780.78983	0.02624
1779.50406	0.02619
1778.21829	0.02617
1776.93252	0.02619
1775.64675	0.02627
1774.36098	0.02641
1773.07521	0.02658
1771.78944	0.02677
1770.50367	0.02694
1769.21791	0.02710
1767.93214	0.02719
1766.64637	0.02723
1765.36060	0.02725
1764.07483	0.02732
1762.78906	0.02749
1761.50329	0.02776
1760.21752	0.02811
1758.93176	0.02850
1757.64599	0.02891
1756.36022	0.02937
1755.07445	0.02990
1753.78868	0.03052
1752.50291	0.03119
1751.21714	0.03186
1749.93137	0.03251
1748.64560	0.03319
1747.35984	0.03393
1746.07407	0.03473
1744.78830	0.03559
1743.50253	0.03650
1742.21676	0.03748
1740.93099	0.03852
1739.64522	0.03955
1738.35945	0.04057
1737.07369	0.04161
1735.78792	0.04267
1734.50215	0.04370
1733.21638	0.04468
1731.93061	0.04562
1730.64484	0.04658
1729.35907	0.04760
1728.07330	0.04871
1726.78753	0.04996
1725.50177	0.05141
1724.21600	0.05303
1722.93023	0.05476
1721.64446	0.05659
1720.35869	0.05861
1719.07292	0.06091
1717.78715	0.06343
1716.50138	0.06605
1715.21561	0.06864
1713.92985	0.07116
1712.64408	0.07366
1711.35831	0.07616
1710.07254	0.07865
1708.78677	0.08116
1707.50100	0.08370
1706.21523	0.08631
1704.92946	0.08900
1703.64370	0.09184
1702.35793	0.09493
1701.07216	0.09832
1699.78639	0.10194
1698.50062	0.10574
1697.21485	0.10971
1695.92908	0.11386
1694.64331	0.11816
1693.35754	0.12254
1692.07178	0.12699
1690.78601	0.13160
1689.50024	0.13644
1688.21447	0.14161
1686.92870	0.14721
1685.64293	0.15323
1684.35716	0.15951
1683.07139	0.16584
1681.78563	0.17222
1680.49986	0.17885
1679.21409	0.18589
1677.92832	0.19342
1676.64255	0.20141
1675.35678	0.20973
1674.07101	0.21826
1672.78524	0.22697
1671.49947	0.23587
1670.21371	0.24494
1668.92794	0.25404
1667.64217	0.26299
1666.35640	0.27174
1665.07063	0.28034
1663.78486	0.28881
1662.49909	0.29702
1661.21332	0.30476
1659.92756	0.31189
1658.64179	0.31840
1657.35602	0.32439
1656.07025	0.32996
1654.78448	0.33519
1653.49871	0.33998
1652.21294	0.34415
1650.92717	0.34763
1649.64140	0.35056
1648.35564	0.35318
1647.06987	0.35561
1645.78410	0.35787
1644.49833	0.35994
1643.21256	0.36186
1641.92679	0.36368
1640.64102	0.36542
1639.35525	0.36708
1638.06949	0.36865
1636.78372	0.37005
1635.49795	0.37111
1634.21218	0.37158
1632.92641	0.37128
1631.64064	0.37016
1630.35487	0.36815
1629.06910	0.36518
1627.78333	0.36113
1626.49757	0.35595
1625.21180	0.34964
1623.92603	0.34231
1622.64026	0.33411
1621.35449	0.32519
1620.06872	0.31574
1618.78295	0.30595
1617.49718	0.29595
1616.21142	0.28584
1614.92565	0.27575
1613.63988	0.26575
1612.35411	0.25593
1611.06834	0.24631
1609.78257	0.23695
1608.49680	0.22787
1607.21103	0.21915
1605.92526	0.21088
1604.63950	0.20311
1603.35373	0.19582
1602.06796	0.18900
1600.78219	0.18266
1599.49642	0.17687
1598.21065	0.17164
1596.92488	0.16693
1595.63911	0.16267
1594.35335	0.15882
1593.06758	0.15538
1591.78181	0.15243
1590.49604	0.14999
1589.21027	0.14806
1587.92450	0.14660
1586.63873	0.14559
1585.35296	0.14503
1584.06719	0.14489
1582.78143	0.14515
1581.49566	0.14584
1580.20989	0.14703
1578.92412	0.14881
1577.63835	0.15116
1576.35258	0.15402
1575.06681	0.15724
1573.78104	0.16077
1572.49528	0.16462
1571.20951	0.16885
1569.92374	0.17349
1568.63797	0.17851
1567.35220	0.18383
1566.06643	0.18939
1564.78066	0.19506
1563.49489	0.20080
1562.20912	0.20661
1560.92336	0.21251
1559.63759	0.21839
1558.35182	0.22402
1557.06605	0.22920
1555.78028	0.23392
1554.49451	0.23827
1553.20874	0.24228
1551.92297	0.24593
1550.63721	0.24919
1549.35144	0.25207
1548.06567	0.25457
1546.77990	0.25666
1545.49413	0.25834
1544.20836	0.25962
1542.92259	0.26052
1541.63682	0.26104
1540.35105	0.26117
1539.06529	0.26086
1537.77952	0.26012
1536.49375	0.25902
1535.20798	0.25764
1533.92221	0.25604
1532.63644	0.25425
1531.35067	0.25227
1530.06490	0.25015
1528.77914	0.24789
1527.49337	0.24548
1526.20760	0.24291
1524.92183	0.24017
1523.63606	0.23732
1522.35029	0.23436
1521.06452	0.23130
1519.77875	0.22815
1518.49298	0.22486
1517.20722	0.22132
1515.92145	0.21742
1514.63568	0.21311
1513.34991	0.20843
1512.06414	0.20351
1510.77837	0.19846
1509.49260	0.19330
1508.20683	0.18801
1506.92107	0.18254
1505.63530	0.17695
1504.34953	0.17138
1503.06376	0.16597
1501.77799	0.16080
1500.49222	0.15590
1499.20645	0.15120
1497.92068	0.14661
1496.63491	0.14208
1495.34915	0.13764
1494.06338	0.13342
1492.77761	0.12952
1491.49184	0.12597
1490.20607	0.12280
1488.92030	0.12003
1487.63453	0.11772
1486.34876	0.11590
1485.06299	0.11459
1483.77723	0.11375
1482.49146	0.11337
1481.20569	0.11346
1479.91992	0.11403
1478.63415	0.11510
1477.34838	0.11669
1476.06261	0.11887
1474.77684	0.12169
1473.49108	0.12506
1472.20531	0.12873
1470.91954	0.13242
1469.63377	0.13599
1468.34800	0.13946
1467.06223	0.14292
1465.77646	0.14638
1464.49069	0.14977
1463.20492	0.15300
1461.91916	0.15609
1460.63339	0.15917
1459.34762	0.16234
1458.06185	0.16557
1456.77608	0.16861
1455.49031	0.17116
1454.20454	0.17304
1452.91877	0.17428
1451.63301	0.17497
1450.34724	0.17518
1449.06147	0.17495
1447.77570	0.17431
1446.48993	0.17332
1445.20416	0.17205
1443.91839	0.17054
1442.63262	0.16884
1441.34685	0.16697
1440.06109	0.16493
1438.77532	0.16267
1437.48955	0.16015
1436.20378	0.15737
1434.91801	0.15447
1433.63224	0.15159
1432.34647	0.14888
1431.06070	0.14640
1429.77494	0.14418
1428.48917	0.14226
1427.20340	0.14066
1425.91763	0.13936
1424.63186	0.13835
1423.34609	0.13758
1422.06032	0.13703
1420.77455	0.13672
1419.48878	0.13662
1418.20302	0.13670
1416.91725	0.13690
1415.63148	0.13719
1414.34571	0.13757
1413.05994	0.13801
1411.77417	0.13843
1410.48840	0.13876
1409.20263	0.13893
1407.91687	0.13893
1406.63110	0.13876
1405.34533	0.13842
1404.05956	0.13791
1402.77379	0.13723
1401.48802	0.13640
1400.20225	0.13544
1398.91648	0.13439
1397.63071	0.13328
1396.34495	0.13218
1395.05918	0.13114
1393.77341	0.13022
1392.48764	0.12944
1391.20187	0.12881
1389.91610	0.12829
1388.63033	0.12781
1387.34456	0.12731
1386.05880	0.12678
1384.77303	0.12627
1383.48726	0.12585
1382.20149	0.12554
1380.91572	0.12525
1379.62995	0.12489
1378.34418	0.12437
1377.05841	0.12368
1375.77264	0.12282
1374.48688	0.12184
1373.20111	0.12077
1371.91534	0.11962
1370.62957	0.11839
1369.34380	0.11706
1368.05803	0.11563
1366.77226	0.11413
1365.48649	0.11266
1364.20073	0.11133
1362.91496	0.11024
1361.62919	0.10940
1360.34342	0.10881
1359.05765	0.10848
1357.77188	0.10842
1356.48611	0.10866
1355.20034	0.10920
1353.91457	0.11004
1352.62881	0.11116
1351.34304	0.11251
1350.05727	0.11404
1348.77150	0.11565
1347.48573	0.11730
1346.19996	0.11893
1344.91419	0.12056
1343.62842	0.12217
1342.34266	0.12371
1341.05689	0.12509
1339.77112	0.12621
1338.48535	0.12700
1337.19958	0.12740
1335.91381	0.12738
1334.62804	0.12694
1333.34227	0.12611
1332.05650	0.12497
1330.77074	0.12361
1329.48497	0.12214
1328.19920	0.12066
1326.91343	0.11923
1325.62766	0.11788
1324.34189	0.11665
1323.05612	0.11560
1321.77035	0.11474
1320.48459	0.11409
1319.19882	0.11363
1317.91305	0.11332
1316.62728	0.11311
1315.34151	0.11294
1314.05574	0.11272
1312.76997	0.11242
1311.48420	0.11204
1310.19843	0.11160
1308.91267	0.11117
1307.62690	0.11076
1306.34113	0.11042
1305.05536	0.11018
1303.76959	0.11002
1302.48382	0.10990
1301.19805	0.10978
1299.91228	0.10969
1298.62652	0.10968
1297.34075	0.10982
1296.05498	0.11014
1294.76921	0.11064
1293.48344	0.11131
1292.19767	0.11211
1290.91190	0.11300
1289.62613	0.11396
1288.34036	0.11498
1287.05460	0.11602
1285.76883	0.11706
1284.48306	0.11808
1283.19729	0.11901
1281.91152	0.11978
1280.62575	0.12031
1279.33998	0.12059
1278.05421	0.12074
1276.76845	0.12085
1275.48268	0.12099
1274.19691	0.12116
1272.91114	0.12136
1271.62537	0.12162
1270.33960	0.12197
1269.05383	0.12241
1267.76806	0.12291
1266.48229	0.12347
1265.19653	0.12410
1263.91076	0.12483
1262.62499	0.12569
1261.33922	0.12667
1260.05345	0.12776
1258.76768	0.12894
1257.48191	0.13018
1256.19614	0.13153
1254.91037	0.13302
1253.62461	0.13466
1252.33884	0.13644
1251.05307	0.13829
1249.76730	0.14018
1248.48153	0.14207
1247.19576	0.14397
1245.90999	0.14586
1244.62422	0.14772
1243.33846	0.14952
1242.05269	0.15122
1240.76692	0.15271
1239.48115	0.15390
1238.19538	0.15470
1236.90961	0.15510
1235.62384	0.15516
1234.33807	0.15493
1233.05230	0.15440
1231.76654	0.15353
1230.48077	0.15228
1229.19500	0.15066
1227.90923	0.14866
1226.62346	0.14630
1225.33769	0.14367
1224.05192	0.14086
1222.76615	0.13804
1221.48039	0.13534
1220.19462	0.13283
1218.90885	0.13057
1217.62308	0.12855
1216.33731	0.12683
1215.05154	0.12550
1213.76577	0.12460
1212.48000	0.12416
1211.19423	0.12412
1209.90847	0.12436
1208.62270	0.12474
1207.33693	0.12514
1206.05116	0.12549
1204.76539	0.12570
1203.47962	0.12564
1202.19385	0.12518
1200.90808	0.12422
1199.62232	0.12280
1198.33655	0.12115
1197.05078	0.11929
1195.76501	0.11728
1194.47924	0.11521
1193.19347	0.11323
1191.90770	0.11143
1190.62193	0.10983
1189.33616	0.10839
1188.05040	0.10700
1186.76463	0.10564
1185.47886	0.10431
1184.19309	0.10307
1182.90732	0.10197
1181.62155	0.10106
1180.33578	0.10036
1179.05001	0.09986
1177.76425	0.09948
1176.47848	0.09915
1175.19271	0.09883
1173.90694	0.09855
1172.62117	0.09835
1171.33540	0.09820
1170.04963	0.09807
1168.76386	0.09795
1167.47809	0.09786
1166.19233	0.09783
1164.90656	0.09785
1163.62079	0.09785
1162.33502	0.09773
1161.04925	0.09744
1159.76348	0.09697
1158.47771	0.09633
1157.19194	0.09550
1155.90618	0.09445
1154.62041	0.09322
1153.33464	0.09189
1152.04887	0.09055
1150.76310	0.08921
1149.47733	0.08788
1148.19156	0.08658
1146.90579	0.08542
1145.62002	0.08448
1144.33426	0.08375
1143.04849	0.08312
1141.76272	0.08244
1140.47695	0.08168
1139.19118	0.08093
1137.90541	0.08025
1136.61964	0.07966
1135.33387	0.07919
1134.04811	0.07885
1132.76234	0.07863
1131.47657	0.07849
1130.19080	0.07839
1128.90503	0.07832
1127.61926	0.07831
1126.33349	0.07832
1125.04772	0.07832
1123.76195	0.07831
1122.47619	0.07832
1121.19042	0.07837
1119.90465	0.07845
1118.61888	0.07856
1117.33311	0.07870
1116.04734	0.07887
1114.76157	0.07904
1113.47580	0.07922
1112.19004	0.07943
1110.90427	0.07970
1109.61850	0.08005
1108.33273	0.08047
1107.04696	0.08093
1105.76119	0.08138
1104.47542	0.08184
1103.18965	0.08234
1101.90388	0.08289
1100.61812	0.08347
1099.33235	0.08404
1098.04658	0.08460
1096.76081	0.08520
1095.47504	0.08590
1094.18927	0.08671
1092.90350	0.08761
1091.61773	0.08860
1090.33197	0.08971
1089.04620	0.09102
1087.76043	0.09254
1086.47466	0.09420
1085.18889	0.09581
1083.90312	0.09718
1082.61735	0.09811
1081.33158	0.09854
1080.04581	0.09852
1078.76005	0.09816
1077.47428	0.09758
1076.18851	0.09687
1074.90274	0.09611
1073.61697	0.09540
1072.33120	0.09477
1071.04543	0.09426
1069.75966	0.09388
1068.47390	0.09361
1067.18813	0.09338
1065.90236	0.09316
1064.61659	0.09294
1063.33082	0.09270
1062.04505	0.09243
1060.75928	0.09208
1059.47351	0.09164
1058.18774	0.09116
1056.90198	0.09066
1055.61621	0.09012
1054.33044	0.08953
1053.04467	0.08894
1051.75890	0.08838
1050.47313	0.08786
1049.18736	0.08740
1047.90159	0.08704
1046.61583	0.08680
1045.33006	0.08668
1044.04429	0.08665
1042.75852	0.08670
1041.47275	0.08686
1040.18698	0.08715
1038.90121	0.08758
1037.61544	0.08813
1036.32967	0.08875
1035.04391	0.08937
1033.75814	0.08996
1032.47237	0.09044
1031.18660	0.09070
1029.90083	0.09061
1028.61506	0.09007
1027.32929	0.08908
1026.04352	0.08776
1024.75775	0.08629
1023.47199	0.08483
1022.18622	0.08353
1020.90045	0.08245
1019.61468	0.08154
1018.32891	0.08074
1017.04314	0.08001
1015.75737	0.07936
1014.47160	0.07871
1013.18584	0.07800
1011.90007	0.07718
1010.61430	0.07625
1009.32853	0.07525
1008.04276	0.07420
1006.75699	0.07317
1005.47122	0.07215
1004.18545	0.07116
1002.89968	0.07017
1001.61392	0.06921
1000.32815	0.06830
999.04238	0.06749
997.75661	0.06675
996.47084	0.06607
995.18507	0.06543
993.89930	0.06484
992.61353	0.06425
991.32777	0.06363
990.04200	0.06299
988.75623	0.06236
987.47046	0.06183
986.18469	0.06143
984.89892	0.06118
983.61315	0.06100
982.32738	0.06087
981.04161	0.06086
979.75585	0.06102
978.47008	0.06135
977.18431	0.06173
975.89854	0.06205
974.61277	0.06225
973.32700	0.06231
972.04123	0.06225
970.75546	0.06207
969.46970	0.06178
968.18393	0.06141
966.89816	0.06104
965.61239	0.06071
964.32662	0.06046
963.04085	0.06030
961.75508	0.06021
960.46931	0.06012
959.18354	0.05993
957.89778	0.05965
956.61201	0.05936
955.32624	0.05915
954.04047	0.05901
952.75470	0.05890
951.46893	0.05882
950.18316	0.05884
948.89739	0.05900
947.61163	0.05925
946.32586	0.05948
945.04009	0.05964
943.75432	0.05972
942.46855	0.05976
941.18278	0.05976
939.89701	0.05971
938.61124	0.05965
937.32547	0.05962
936.03971	0.05959
934.75394	0.05951
933.46817	0.05940
932.18240	0.05928
930.89663	0.05914
929.61086	0.05893
928.32509	0.05867
927.03932	0.05842
925.75356	0.05824
924.46779	0.05812
923.18202	0.05795
921.89625	0.05766
920.61048	0.05723
919.32471	0.05672
918.03894	0.05621
916.75317	0.05574
915.46740	0.05531
914.18164	0.05488
912.89587	0.05440
911.61010	0.05390
910.32433	0.05344
909.03856	0.05307
907.75279	0.05277
906.46702	0.05252
905.18125	0.05230
903.89549	0.05211
902.60972	0.05187
901.32395	0.05156
900.03818	0.05123
898.75241	0.05092
897.46664	0.05064
896.18087	0.05036
894.89510	0.05011
893.60933	0.04994
892.32357	0.04985
891.03780	0.04983
889.75203	0.04985
888.46626	0.04986
887.18049	0.04988
885.89472	0.04997
884.60895	0.05018
883.32318	0.05048
882.03742	0.05069
880.75165	0.05075
879.46588	0.05071
878.18011	0.05075
876.89434	0.05092
875.60857	0.05114
874.32280	0.05129
873.03703	0.05129
871.75126	0.05116
870.46550	0.05098
869.17973	0.05080
867.89396	0.05061
866.60819	0.05042
865.32242	0.05027
864.03665	0.05023
862.75088	0.05025
861.46511	0.05024
860.17935	0.05017
858.89358	0.05006
857.60781	0.04996
856.32204	0.04985
855.03627	0.04974
853.75050	0.04963
852.46473	0.04953
851.17896	0.04943
849.89319	0.04929
848.60743	0.04908
847.32166	0.04881
846.03589	0.04850
844.75012	0.04820
843.46435	0.04794
842.17858	0.04774
840.89281	0.04759
839.60704	0.04746
838.32128	0.04733
837.03551	0.04719
835.74974	0.04706
834.46397	0.04701
833.17820	0.04705
831.89243	0.04713
830.60666	0.04721
829.32089	0.04728
828.03512	0.04740
826.74936	0.04758
825.46359	0.04778
824.17782	0.04797
822.89205	0.04817
821.60628	0.04848
820.32051	0.04894
819.03474	0.04947
817.74897	0.04993
816.46321	0.05021
815.17744	0.05032
813.89167	0.05035
812.60590	0.05038
811.32013	0.05050
810.03436	0.05072
808.74859	0.05100
807.46282	0.05128
806.17705	0.05154
804.89129	0.05177
803.60552	0.05198
802.31975	0.05216
801.03398	0.05232
799.74821	0.05245
798.46244	0.05257
797.17667	0.05271
795.89090	0.05287
794.60513	0.05301
793.31937	0.05315
792.03360	0.05337
790.74783	0.05371
789.46206	0.05409
788.17629	0.05443
786.89052	0.05470
785.60475	0.05494
784.31898	0.05515
783.03322	0.05531
781.74745	0.05546
780.46168	0.05565
779.17591	0.05590
777.89014	0.05615
776.60437	0.05633
775.31860	0.05647
774.03283	0.05667
772.74706	0.05694
771.46130	0.05724
770.17553	0.05749
768.88976	0.05771
767.60399	0.05798
766.31822	0.05837
765.03245	0.05884
763.74668	0.05930
762.46091	0.05968
761.17515	0.05999
759.88938	0.06023
758.60361	0.06044
757.31784	0.06067
756.03207	0.06097
754.74630	0.06132
753.46053	0.06169
752.17476	0.06205
750.88899	0.06240
749.60323	0.06274
748.31746	0.06307
747.03169	0.06340
745.74592	0.06379
744.46015	0.06426
743.17438	0.06479
741.88861	0.06534
740.60284	0.06581
739.31708	0.06617
738.03131	0.06651
736.74554	0.06697
735.45977	0.06756
734.17400	0.06818
732.88823	0.06869
731.60246	0.06914
730.31669	0.06966
729.03092	0.07035
727.74516	0.07112
726.45939	0.07180
725.17362	0.07229
723.88785	0.07258
722.60208	0.07317
721.31631	0.07391
720.03054	0.07454
718.74477	0.07495
717.45901	0.07513
716.17324	0.07518
714.88747	0.07521
713.60170	0.07531
712.31593	0.07549
711.03016	0.07575
709.74439	0.07606
708.45862	0.07641
707.17285	0.07682
705.88709	0.07728
704.60132	0.07775
703.31555	0.07818
702.02978	0.07857
700.74401	0.07893
699.45824	0.07929
698.17247	0.07965
696.88670	0.07998
695.60094	0.08023
694.31517	0.08038
693.02940	0.08044
691.74363	0.08044
690.45786	0.08048
689.17209	0.08063
687.88632	0.08087
686.60055	0.08114
685.31478	0.08139
684.02902	0.08163
682.74325	0.08189
681.45748	0.08215
680.17171	0.08238
678.88594	0.08260
677.60017	0.08286
676.31440	0.08320
675.02863	0.08356
673.74287	0.08390
672.45710	0.08426
671.17133	0.08463
669.88556	0.08468
668.59979	0.08420
667.31402	0.08435
666.02825	0.08539
664.74248	0.08577
663.45671	0.08570
662.17095	0.08566
660.88518	0.08573
659.59941	0.08588
658.31364	0.08608
657.02787	0.08631
655.74210	0.08654
654.45633	0.08674
653.17056	0.08689
651.88480	0.08702
650.59903	0.08717
649.31326	0.08734
648.02749	0.08749
646.74172	0.08757
645.45595	0.08762
644.17018	0.08772
642.88441	0.08786
641.59864	0.08798
640.31288	0.08800
639.02711	0.08794
637.74134	0.08785
636.45557	0.08779
635.16980	0.08777
633.88403	0.08777
632.59826	0.08779
631.31249	0.08791
630.02673	0.08843
628.74096	0.08911
627.45519	0.08845
626.16942	0.08882
624.88365	0.08975
623.59788	0.09034
622.31211	0.09044
621.02634	0.09023
619.74057	0.09003
618.45481	0.09027
617.16904	0.09111
615.88327	0.09198
614.59750	0.09209
613.31173	0.09126
612.02596	0.09006
610.74019	0.08921
609.45442	0.08901
608.16866	0.08952
606.88289	0.09057
605.59712	0.09166
604.31135	0.09224
603.02558	0.09216
601.73981	0.09176
600.45404	0.09142
599.16827	0.09121
597.88250	0.09109
596.59674	0.09100
595.31097	0.09089
594.02520	0.09071
592.73943	0.09042
591.45366	0.09011
590.16789	0.08990
588.88212	0.08980
587.59635	0.08970
586.31059	0.08957
585.02482	0.08948
583.73905	0.08954
582.45328	0.08975
581.16751	0.08994
579.88174	0.08996
578.59597	0.08980
577.31020	0.08963
576.02443	0.08962
574.73867	0.08979
573.45290	0.09006
572.16713	0.09034
570.88136	0.09062
569.59559	0.09090
568.30982	0.09119
567.02405	0.09149
565.73828	0.09183
564.45251	0.09214
563.16675	0.09235
561.88098	0.09237
560.59521	0.09222
559.30944	0.09199
558.02367	0.09174
556.73790	0.09153
555.45213	0.09137
554.16636	0.09130
552.88060	0.09127
551.59483	0.09123
550.30906	0.09115
549.02329	0.09104
547.73752	0.09092
546.45175	0.09077
545.16598	0.09058
543.88021	0.09035
542.59444	0.09009
541.30868	0.08980
540.02291	0.08949
538.73714	0.08924
537.45137	0.08913
536.16560	0.08919
534.87983	0.08938
533.59406	0.08963
532.30829	0.08985
531.02253	0.08997
529.73676	0.08998
528.45099	0.08987
527.16522	0.08969
525.87945	0.08944
524.59368	0.08908
523.30791	0.08864
522.02214	0.08819
520.73637	0.08778
519.45061	0.08735
518.16484	0.08681
516.87907	0.08617
515.59330	0.08554
514.30753	0.08503
513.02176	0.08465
511.73599	0.08439
510.45022	0.08423
509.16446	0.08413
507.87869	0.08399
506.59292	0.08364
505.30715	0.08303
504.02138	0.08226
502.73561	0.08150
501.44984	0.08084
500.16407	0.08030
498.87830	0.07983
497.59254	0.07942
496.30677	0.07904
495.02100	0.07863
493.73523	0.07810
492.44946	0.07747
491.16369	0.07687
489.87792	0.07645
488.59215	0.07625
487.30639	0.07615
486.02062	0.07603
484.73485	0.07586
483.44908	0.07568
482.16331	0.07556
480.87754	0.07546
479.59177	0.07536
478.30600	0.07518
477.02023	0.07493
475.73447	0.07466
474.44870	0.07440
473.16293	0.07415
471.87716	0.07381
470.59139	0.07334
469.30562	0.07282
468.01985	0.07238
466.73408	0.07210
465.44832	0.07189
464.16255	0.07159
462.87678	0.07114
461.59101	0.07059
460.30524	0.07002
459.01947	0.06947
457.73370	0.06891
456.44793	0.06835
455.16216	0.06778
453.87640	0.06720
452.59063	0.06664
451.30486	0.06610
450.01909	0.06558
448.73332	0.06504
447.44755	0.06446
446.16178	0.06386
444.87601	0.06331
443.59025	0.06286
442.30448	0.06252
441.01871	0.06221
439.73294	0.06189
438.44717	0.06154
437.16140	0.06115
435.87563	0.06077
434.58986	0.06046
433.30409	0.06025
432.01833	0.06012
430.73256	0.05997
429.44679	0.05973
428.16102	0.05936
426.87525	0.05894
425.58948	0.05854
424.30371	0.05821
423.01794	0.05792
421.73218	0.05761
420.44641	0.05726
419.16064	0.05691
417.87487	0.05659
416.58910	0.05631
415.30333	0.05603
414.01756	0.05574
412.73179	0.05544
411.44602	0.05515
410.16026	0.05487
408.87449	0.05458
407.58872	0.05426
406.30295	0.05390
405.01718	0.05353
403.73141	0.05317
402.44564	0.05287
401.15987	0.05264
399.87411	0.05245
