3997.45528	0.04439
3996.16951	0.04452
3994.88374	0.04453
3993.59798	0.04444
3992.31221	0.04443
3991.02644	0.04463
3989.74067	0.04495
3988.45490	0.04516
3987.16913	0.04512
3985.88336	0.04482
3984.59759	0.04445
3983.31183	0.04422
3982.02606	0.04424
3980.74029	0.04444
3979.45452	0.04464
3978.16875	0.04477
3976.88298	0.04481
3975.59721	0.04478
3974.31144	0.04473
3973.02567	0.04469
3971.73991	0.04466
3970.45414	0.04458
3969.16837	0.04449
3967.88260	0.04447
3966.59683	0.04453
3965.31106	0.04460
3964.02529	0.04466
3962.73952	0.04485
3961.45376	0.04514
3960.16799	0.04530
3958.88222	0.04517
3957.59645	0.04486
3956.31068	0.04456
3955.02491	0.04431
3953.73914	0.04403
3952.45337	0.04380
3951.16760	0.04379
3949.88184	0.04407
3948.59607	0.04444
3947.31030	0.04463
3946.02453	0.04453
3944.73876	0.04427
3943.45299	0.04393
3942.16722	0.04354
3940.88145	0.04320
3939.59569	0.04317
3938.30992	0.04354
3937.02415	0.04403
3935.73838	0.04419
3934.45261	0.04385
3933.16684	0.04320
3931.88107	0.04254
3930.59530	0.04198
3929.30953	0.04154
3928.02377	0.04129
3926.73800	0.04131
3925.45223	0.04160
3924.16646	0.04204
3922.88069	0.04256
3921.59492	0.04303
3920.30915	0.04325
3919.02338	0.04302
3917.73762	0.04234
3916.45185	0.04155
3915.16608	0.04111
3913.88031	0.04126
3912.59454	0.04187
3911.30877	0.04255
3910.02300	0.04289
3908.73723	0.04274
3907.45146	0.04220
3906.16570	0.04162
3904.87993	0.04136
3903.59416	0.04156
3902.30839	0.04206
3901.02262	0.04258
3899.73685	0.04287
3898.45108	0.04273
3897.16531	0.04210
3895.87955	0.04115
3894.59378	0.04023
3893.30801	0.03956
3892.02224	0.03921
3890.73647	0.03918
3889.45070	0.03951
3888.16493	0.04012
3886.87916	0.04086
3885.59339	0.04156
3884.30763	0.04216
3883.02186	0.04263
3881.73609	0.04295
3880.45032	0.04308
3879.16455	0.04300
3877.87878	0.04278
3876.59301	0.04256
3875.30724	0.04241
3874.02148	0.04220
3872.73571	0.04176
3871.44994	0.04116
3870.16417	0.04072
3868.87840	0.04073
3867.59263	0.04109
3866.30686	0.04148
3865.02109	0.04171
3863.73532	0.04193
3862.44956	0.04226
3861.16379	0.04253
3859.87802	0.04241
3858.59225	0.04192
3857.30648	0.04155
3856.02071	0.04167
3854.73494	0.04212
3853.44917	0.04239
3852.16341	0.04219
3850.87764	0.04168
3849.59187	0.04106
3848.30610	0.04040
3847.02033	0.03966
3845.73456	0.03903
3844.44879	0.03873
3843.16302	0.03884
3841.87725	0.03915
3840.59149	0.03938
3839.30572	0.03946
3838.01995	0.03945
3836.73418	0.03934
3835.44841	0.03911
3834.16264	0.03892
3832.87687	0.03902
3831.59110	0.03947
3830.30534	0.03996
3829.01957	0.04012
3827.73380	0.03992
3826.44803	0.03971
3825.16226	0.03988
3823.87649	0.04052
3822.59072	0.04128
3821.30495	0.04163
3820.01918	0.04129
3818.73342	0.04050
3817.44765	0.03977
3816.16188	0.03944
3814.87611	0.03945
3813.59034	0.03959
3812.30457	0.03971
3811.01880	0.03988
3809.73303	0.04015
3808.44726	0.04038
3807.16150	0.04037
3805.87573	0.04013
3804.58996	0.03989
3803.30419	0.03980
3802.01842	0.03979
3800.73265	0.03976
3799.44688	0.03971
3798.16111	0.03967
3796.87535	0.03957
3795.58958	0.03939
3794.30381	0.03931
3793.01804	0.03952
3791.73227	0.03993
3790.44650	0.04010
3789.16073	0.03972
3787.87496	0.03897
3786.58919	0.03833
3785.30343	0.03816
3784.01766	0.03842
3782.73189	0.03889
3781.44612	0.03938
3780.16035	0.03974
3778.87458	0.03976
3777.58881	0.03938
3776.30304	0.03876
3775.01728	0.03815
3773.73151	0.03772
3772.44574	0.03758
3771.15997	0.03777
3769.87420	0.03816
3768.58843	0.03846
3767.30266	0.03843
3766.01689	0.03812
3764.73112	0.03779
3763.44536	0.03757
3762.15959	0.03741
3760.87382	0.03730
3759.58805	0.03739
3758.30228	0.03777
3757.01651	0.03822
3755.73074	0.03838
3754.44497	0.03811
3753.15921	0.03768
3751.87344	0.03743
3750.58767	0.03754
3749.30190	0.03801
3748.01613	0.03878
3746.73036	0.03967
3745.44459	0.04037
3744.15882	0.04058
3742.87305	0.04024
3741.58729	0.03961
3740.30152	0.03904
3739.01575	0.03870
3737.72998	0.03848
3736.44421	0.03815
3735.15844	0.03760
3733.87267	0.03706
3732.58690	0.03692
3731.30114	0.03736
3730.01537	0.03819
3728.72960	0.03894
3727.44383	0.03916
3726.15806	0.03876
3724.87229	0.03801
3723.58652	0.03727
3722.30075	0.03671
3721.01498	0.03636
3719.72922	0.03631
3718.44345	0.03663
3717.15768	0.03718
3715.87191	0.03763
3714.58614	0.03765
3713.30037	0.03712
3712.01460	0.03620
3710.72883	0.03527
3709.44307	0.03464
3708.15730	0.03444
3706.87153	0.03460
3705.58576	0.03506
3704.29999	0.03574
3703.01422	0.03640
3701.72845	0.03670
3700.44268	0.03650
3699.15691	0.03612
3697.87115	0.03604
3696.58538	0.03650
3695.29961	0.03726
3694.01384	0.03781
3692.72807	0.03779
3691.44230	0.03726
3690.15653	0.03664
3688.87076	0.03623
3687.58500	0.03599
3686.29923	0.03572
3685.01346	0.03527
3683.72769	0.03471
3682.44192	0.03429
3681.15615	0.03414
3679.87038	0.03435
3678.58461	0.03486
3677.29884	0.03551
3676.01308	0.03611
3674.72731	0.03664
3673.44154	0.03727
3672.15577	0.03806
3670.87000	0.03882
3669.58423	0.03930
3668.29846	0.03943
3667.01269	0.03936
3665.72693	0.03922
3664.44116	0.03903
3663.15539	0.03884
3661.86962	0.03874
3660.58385	0.03870
3659.29808	0.03854
3658.01231	0.03808
3656.72654	0.03747
3655.44077	0.03714
3654.15501	0.03743
3652.86924	0.03825
3651.58347	0.03915
3650.29770	0.03971
3649.01193	0.03983
3647.72616	0.03974
3646.44039	0.03970
3645.15462	0.03969
3643.86886	0.03956
3642.58309	0.03928
3641.29732	0.03896
3640.01155	0.03867
3638.72578	0.03841
3637.44001	0.03820
3636.15424	0.03820
3634.86847	0.03846
3633.58270	0.03876
3632.29694	0.03884
3631.01117	0.03872
3629.72540	0.03869
3628.43963	0.03898
3627.15386	0.03955
3625.86809	0.04026
3624.58232	0.04107
3623.29655	0.04199
3622.01079	0.04285
3620.72502	0.04325
3619.43925	0.04294
3618.15348	0.04213
3616.86771	0.04133
3615.58194	0.04099
3614.29617	0.04119
3613.01040	0.04181
3611.72463	0.04262
3610.43887	0.04343
3609.15310	0.04423
3607.86733	0.04518
3606.58156	0.04643
3605.29579	0.04781
3604.01002	0.04893
3602.72425	0.04946
3601.43848	0.04934
3600.15272	0.04886
3598.86695	0.04850
3597.58118	0.04863
3596.29541	0.04922
3595.00964	0.04985
3593.72387	0.05013
3592.43810	0.05003
3591.15233	0.04988
3589.86656	0.04999
3588.58080	0.05030
3587.29503	0.05047
3586.00926	0.05032
3584.72349	0.04996
3583.43772	0.04975
3582.15195	0.05003
3580.86618	0.05096
3579.58041	0.05240
3578.29464	0.05394
3577.00888	0.05515
3575.72311	0.05583
3574.43734	0.05606
3573.15157	0.05614
3571.86580	0.05632
3570.58003	0.05663
3569.29426	0.05683
3568.00849	0.05677
3566.72273	0.05663
3565.43696	0.05671
3564.15119	0.05713
3562.86542	0.05767
3561.57965	0.05807
3560.29388	0.05834
3559.00811	0.05880
3557.72234	0.05965
3556.43657	0.06066
3555.15081	0.06126
3553.86504	0.06116
3552.57927	0.06073
3551.29350	0.06061
3550.00773	0.06110
3548.72196	0.06193
3547.43619	0.06272
3546.15042	0.06333
3544.86466	0.06385
3543.57889	0.06427
3542.29312	0.06451
3541.00735	0.06461
3539.72158	0.06477
3538.43581	0.06516
3537.15004	0.06585
3535.86427	0.06675
3534.57850	0.06766
3533.29274	0.06835
3532.00697	0.06869
3530.72120	0.06881
3529.43543	0.06904
3528.14966	0.06965
3526.86389	0.07045
3525.57812	0.07104
3524.29235	0.07111
3523.00659	0.07083
3521.72082	0.07070
3520.43505	0.07104
3519.14928	0.07184
3517.86351	0.07284
3516.57774	0.07383
3515.29197	0.07468
3514.00620	0.07536
3512.72043	0.07586
3511.43467	0.07609
3510.14890	0.07596
3508.86313	0.07553
3507.57736	0.07511
3506.29159	0.07501
3505.00582	0.07522
3503.72005	0.07551
3502.43428	0.07577
3501.14852	0.07618
3499.86275	0.07683
3498.57698	0.07755
3497.29121	0.07804
3496.00544	0.07826
3494.71967	0.07843
3493.43390	0.07876
3492.14813	0.07924
3490.86236	0.07966
3489.57660	0.07985
3488.29083	0.07992
3487.00506	0.08011
3485.71929	0.08063
3484.43352	0.08147
3483.14775	0.08243
3481.86198	0.08316
3480.57621	0.08338
3479.29045	0.08311
3478.00468	0.08276
3476.71891	0.08281
3475.43314	0.08334
3474.14737	0.08396
3472.86160	0.08424
3471.57583	0.08423
3470.29006	0.08428
3469.00429	0.08461
3467.71853	0.08509
3466.43276	0.08549
3465.14699	0.08573
3463.86122	0.08593
3462.57545	0.08621
3461.28968	0.08659
3460.00391	0.08706
3458.71814	0.08762
3457.43238	0.08826
3456.14661	0.08882
3454.86084	0.08911
3453.57507	0.08909
3452.28930	0.08899
3451.00353	0.08912
3449.71776	0.08960
3448.43199	0.09031
3447.14622	0.09103
3445.86046	0.09159
3444.57469	0.09194
3443.28892	0.09215
3442.00315	0.09228
3440.71738	0.09233
3439.43161	0.09229
3438.14584	0.09221
3436.86007	0.09220
3435.57431	0.09243
3434.28854	0.09290
3433.00277	0.09351
3431.71700	0.09407
3430.43123	0.09447
3429.14546	0.09474
3427.85969	0.09491
3426.57392	0.09498
3425.28815	0.09494
3424.00239	0.09494
3422.71662	0.09517
3421.43085	0.09565
3420.14508	0.09621
3418.85931	0.09664
3417.57354	0.09689
3416.28777	0.09709
3415.00200	0.09740
3413.71624	0.09781
3412.43047	0.09826
3411.14470	0.09871
3409.85893	0.09915
3408.57316	0.09956
3407.28739	0.09983
3406.00162	0.09992
3404.71585	0.09993
3403.43008	0.10005
3402.14432	0.10034
3400.85855	0.10073
3399.57278	0.10100
3398.28701	0.10097
3397.00124	0.10062
3395.71547	0.10025
3394.42970	0.10025
3393.14393	0.10076
3391.85817	0.10153
3390.57240	0.10217
3389.28663	0.10244
3388.00086	0.10244
3386.71509	0.10247
3385.42932	0.10278
3384.14355	0.10337
3382.85778	0.10398
3381.57201	0.10446
3380.28625	0.10487
3379.00048	0.10540
3377.71471	0.10611
3376.42894	0.10682
3375.14317	0.10734
3373.85740	0.10763
3372.57163	0.10781
3371.28586	0.10794
3370.00010	0.10803
3368.71433	0.10819
3367.42856	0.10872
3366.14279	0.10978
3364.85702	0.11117
3363.57125	0.11244
3362.28548	0.11326
3360.99971	0.11370
3359.71394	0.11410
3358.42818	0.11474
3357.14241	0.11565
3355.85664	0.11669
3354.57087	0.11769
3353.28510	0.11862
3351.99933	0.11946
3350.71356	0.12017
3349.42779	0.12075
3348.14202	0.12132
3346.85626	0.12189
3345.57049	0.12236
3344.28472	0.12267
3342.99895	0.12295
3341.71318	0.12339
3340.42741	0.12401
3339.14164	0.12461
3337.85587	0.12502
3336.57011	0.12528
3335.28434	0.12557
3333.99857	0.12608
3332.71280	0.12682
3331.42703	0.12763
3330.14126	0.12832
3328.85549	0.12883
3327.56972	0.12918
3326.28395	0.12940
3324.99819	0.12954
3323.71242	0.12974
3322.42665	0.13012
3321.14088	0.13065
3319.85511	0.13117
3318.56934	0.13159
3317.28357	0.13195
3315.99780	0.13230
3314.71204	0.13256
3313.42627	0.13273
3312.14050	0.13292
3310.85473	0.13330
3309.56896	0.13384
3308.28319	0.13441
3306.99742	0.13492
3305.71165	0.13536
3304.42588	0.13572
3303.14012	0.13590
3301.85435	0.13585
3300.56858	0.13565
3299.28281	0.13544
3297.99704	0.13532
3296.71127	0.13534
3295.42550	0.13552
3294.13973	0.13581
3292.85397	0.13614
3291.56820	0.13636
3290.28243	0.13634
3288.99666	0.13602
3287.71089	0.13555
3286.42512	0.13521
3285.13935	0.13518
3283.85358	0.13542
3282.56781	0.13573
3281.28205	0.13588
3279.99628	0.13577
3278.71051	0.13542
3277.42474	0.13498
3276.13897	0.13462
3274.85320	0.13445
3273.56743	0.13440
3272.28166	0.13431
3270.99590	0.13409
3269.71013	0.13377
3268.42436	0.13337
3267.13859	0.13288
3265.85282	0.13233
3264.56705	0.13184
3263.28128	0.13157
3261.99551	0.13152
3260.70974	0.13148
3259.42398	0.13121
3258.13821	0.13066
3256.85244	0.12998
3255.56667	0.12944
3254.28090	0.12911
3252.99513	0.12890
3251.70936	0.12865
3250.42359	0.12843
3249.13783	0.12835
3247.85206	0.12837
3246.56629	0.12821
3245.28052	0.12769
3243.99475	0.12693
3242.70898	0.12620
3241.42321	0.12564
3240.13744	0.12523
3238.85167	0.12489
3237.56591	0.12457
3236.28014	0.12431
3234.99437	0.12414
3233.70860	0.12408
3232.42283	0.12404
3231.13706	0.12384
3229.85129	0.12338
3228.56552	0.12272
3227.27976	0.12200
3225.99399	0.12136
3224.70822	0.12093
3223.42245	0.12083
3222.13668	0.12107
3220.85091	0.12144
3219.56514	0.12163
3218.27937	0.12148
3216.99360	0.12110
3215.70784	0.12077
3214.42207	0.12064
3213.13630	0.12068
3211.85053	0.12065
3210.56476	0.12034
3209.27899	0.11979
3207.99322	0.11919
3206.70745	0.11878
3205.42169	0.11864
3204.13592	0.11864
3202.85015	0.11859
3201.56438	0.11829
3200.27861	0.11772
3198.99284	0.11700
3197.70707	0.11636
3196.42130	0.11599
3195.13553	0.11598
3193.84977	0.11616
3192.56400	0.11625
3191.27823	0.11603
3189.99246	0.11553
3188.70669	0.11494
3187.42092	0.11443
3186.13515	0.11397
3184.84938	0.11349
3183.56362	0.11288
3182.27785	0.11209
3180.99208	0.11125
3179.70631	0.11057
3178.42054	0.11015
3177.13477	0.10984
3175.84900	0.10943
3174.56323	0.10889
3173.27746	0.10836
3171.99170	0.10800
3170.70593	0.10784
3169.42016	0.10774
3168.13439	0.10756
3166.84862	0.10721
3165.56285	0.10673
3164.27708	0.10623
3162.99131	0.10582
3161.70555	0.10550
3160.41978	0.10521
3159.13401	0.10487
3157.84824	0.10439
3156.56247	0.10377
3155.27670	0.10305
3153.99093	0.10236
3152.70516	0.10177
3151.41939	0.10133
3150.13363	0.10100
3148.84786	0.10069
3147.56209	0.10028
3146.27632	0.09970
3144.99055	0.09900
3143.70478	0.09831
3142.41901	0.09772
3141.13324	0.09726
3139.84748	0.09694
3138.56171	0.09674
3137.27594	0.09665
3135.99017	0.09665
3134.70440	0.09673
3133.41863	0.09676
3132.13286	0.09663
3130.84709	0.09628
3129.56132	0.09577
3128.27556	0.09520
3126.98979	0.09466
3125.70402	0.09420
3124.41825	0.09390
3123.13248	0.09378
3121.84671	0.09378
3120.56094	0.09374
3119.27517	0.09359
3117.98940	0.09338
3116.70364	0.09320
3115.41787	0.09312
3114.13210	0.09324
3112.84633	0.09355
3111.56056	0.09395
3110.27479	0.09417
3108.98902	0.09402
3107.70325	0.09359
3106.41749	0.09323
3105.13172	0.09330
3103.84595	0.09378
3102.56018	0.09433
3101.27441	0.09461
3099.98864	0.09462
3098.70287	0.09464
3097.41710	0.09485
3096.13133	0.09514
3094.84557	0.09532
3093.55980	0.09539
3092.27403	0.09548
3090.98826	0.09564
3089.70249	0.09574
3088.41672	0.09567
3087.13095	0.09546
3085.84518	0.09528
3084.55942	0.09523
3083.27365	0.09535
3081.98788	0.09557
3080.70211	0.09585
3079.41634	0.09607
3078.13057	0.09613
3076.84480	0.09600
3075.55903	0.09574
3074.27326	0.09552
3072.98750	0.09544
3071.70173	0.09549
3070.41596	0.09562
3069.13019	0.09579
3067.84442	0.09601
3066.55865	0.09628
3065.27288	0.09655
3063.98711	0.09668
3062.70135	0.09648
3061.41558	0.09587
3060.12981	0.09504
3058.84404	0.09429
3057.55827	0.09379
3056.27250	0.09346
3054.98673	0.09320
3053.70096	0.09304
3052.41519	0.09301
3051.12943	0.09297
3049.84366	0.09268
3048.55789	0.09200
3047.27212	0.09113
3045.98635	0.09037
3044.70058	0.08992
3043.41481	0.08972
3042.12904	0.08957
3040.84328	0.08933
3039.55751	0.08893
3038.27174	0.08836
3036.98597	0.08768
3035.70020	0.08707
3034.41443	0.08673
3033.12866	0.08663
3031.84289	0.08654
3030.55712	0.08625
3029.27136	0.08573
3027.98559	0.08513
3026.69982	0.08457
3025.41405	0.08407
3024.12828	0.08360
3022.84251	0.08315
3021.55674	0.08274
3020.27097	0.08244
3018.98521	0.08225
3017.69944	0.08210
3016.41367	0.08193
3015.12790	0.08178
3013.84213	0.08170
3012.55636	0.08164
3011.27059	0.08146
3009.98482	0.08112
3008.69905	0.08074
3007.41329	0.08046
3006.12752	0.08030
3004.84175	0.08017
3003.55598	0.08003
3002.27021	0.07993
3000.98444	0.07995
2999.69867	0.08014
2998.41290	0.08051
2997.12714	0.08096
2995.84137	0.08133
2994.55560	0.08155
2993.26983	0.08164
2991.98406	0.08166
2990.69829	0.08175
2989.41252	0.08205
2988.12675	0.08249
2986.84098	0.08286
2985.55522	0.08307
2984.26945	0.08325
2982.98368	0.08362
2981.69791	0.08424
2980.41214	0.08498
2979.12637	0.08567
2977.84060	0.08620
2976.55483	0.08656
2975.26907	0.08675
2973.98330	0.08683
2972.69753	0.08693
2971.41176	0.08720
2970.12599	0.08771
2968.84022	0.08842
2967.55445	0.08920
2966.26868	0.08989
2964.98291	0.09041
2963.69715	0.09079
2962.41138	0.09116
2961.12561	0.09167
2959.83984	0.09241
2958.55407	0.09318
2957.26830	0.09364
2955.98253	0.09362
2954.69676	0.09328
2953.41100	0.09297
2952.12523	0.09289
2950.83946	0.09298
2949.55369	0.09313
2948.26792	0.09331
2946.98215	0.09352
2945.69638	0.09372
2944.41061	0.09385
2943.12484	0.09398
2941.83908	0.09423
2940.55331	0.09465
2939.26754	0.09520
2937.98177	0.09587
2936.69600	0.09657
2935.41023	0.09718
2934.12446	0.09768
2932.83869	0.09815
2931.55293	0.09874
2930.26716	0.09943
2928.98139	0.10007
2927.69562	0.10051
2926.40985	0.10076
2925.12408	0.10088
2923.83831	0.10091
2922.55254	0.10081
2921.26677	0.10055
2919.98101	0.10018
2918.69524	0.09973
2917.40947	0.09914
2916.12370	0.09832
2914.83793	0.09726
2913.55216	0.09608
2912.26639	0.09496
2910.98062	0.09396
2909.69486	0.09299
2908.40909	0.09194
2907.12332	0.09081
2905.83755	0.08970
2904.55178	0.08868
2903.26601	0.08776
2901.98024	0.08691
2900.69447	0.08612
2899.40870	0.08541
2898.12294	0.08482
2896.83717	0.08443
2895.55140	0.08419
2894.26563	0.08395
2892.97986	0.08359
2891.69409	0.08314
2890.40832	0.08274
2889.12255	0.08247
2887.83678	0.08232
2886.55102	0.08228
2885.26525	0.08235
2883.97948	0.08253
2882.69371	0.08279
2881.40794	0.08301
2880.12217	0.08311
2878.83640	0.08309
2877.55063	0.08307
2876.26487	0.08315
2874.97910	0.08324
2873.69333	0.08316
2872.40756	0.08279
2871.12179	0.08223
2869.83602	0.08167
2868.55025	0.08119
2867.26448	0.08073
2865.97871	0.08023
2864.69295	0.07975
2863.40718	0.07939
2862.12141	0.07922
2860.83564	0.07925
2859.54987	0.07945
2858.26410	0.07979
2856.97833	0.08014
2855.69256	0.08037
2854.40680	0.08041
2853.12103	0.08029
2851.83526	0.08007
2850.54949	0.07978
2849.26372	0.07939
2847.97795	0.07873
2846.69218	0.07769
2845.40641	0.07638
2844.12064	0.07513
2842.83488	0.07427
2841.54911	0.07380
2840.26334	0.07352
2838.97757	0.07325
2837.69180	0.07291
2836.40603	0.07246
2835.12026	0.07185
2833.83449	0.07115
2832.54873	0.07047
2831.26296	0.06995
2829.97719	0.06964
2828.69142	0.06953
2827.40565	0.06947
2826.11988	0.06933
2824.83411	0.06909
2823.54834	0.06880
2822.26257	0.06845
2820.97681	0.06800
2819.69104	0.06750
2818.40527	0.06709
2817.11950	0.06681
2815.83373	0.06657
2814.54796	0.06630
2813.26219	0.06602
2811.97642	0.06578
2810.69066	0.06561
2809.40489	0.06546
2808.11912	0.06532
2806.83335	0.06520
2805.54758	0.06513
2804.26181	0.06506
2802.97604	0.06491
2801.69027	0.06471
2800.40450	0.06457
2799.11874	0.06455
2797.83297	0.06456
2796.54720	0.06442
2795.26143	0.06412
2793.97566	0.06378
2792.68989	0.06350
2791.40412	0.06326
2790.11835	0.06299
2788.83259	0.06267
2787.54682	0.06235
2786.26105	0.06213
2784.97528	0.06210
2783.68951	0.06225
2782.40374	0.06247
2781.11797	0.06258
2779.83220	0.06247
2778.54643	0.06213
2777.26067	0.06172
2775.97490	0.06145
2774.68913	0.06140
2773.40336	0.06150
2772.11759	0.06153
2770.83182	0.06137
2769.54605	0.06108
2768.26028	0.06079
2766.97452	0.06057
2765.68875	0.06031
2764.40298	0.05995
2763.11721	0.05958
2761.83144	0.05942
2760.54567	0.05953
2759.25990	0.05975
2757.97413	0.05985
2756.68836	0.05979
2755.40260	0.05966
2754.11683	0.05955
2752.83106	0.05941
2751.54529	0.05908
2750.25952	0.05857
2748.97375	0.05811
2747.68798	0.05792
2746.40221	0.05799
2745.11645	0.05816
2743.83068	0.05828
2742.54491	0.05833
2741.25914	0.05833
2739.97337	0.05824
2738.68760	0.05795
2737.40183	0.05750
2736.11606	0.05706
2734.83029	0.05679
2733.54453	0.05673
2732.25876	0.05676
2730.97299	0.05679
2729.68722	0.05677
2728.40145	0.05671
2727.11568	0.05657
2725.82991	0.05635
2724.54414	0.05608
2723.25838	0.05581
2721.97261	0.05558
2720.68684	0.05542
2719.40107	0.05534
2718.11530	0.05530
2716.82953	0.05525
2715.54376	0.05516
2714.25799	0.05503
2712.97222	0.05490
2711.68646	0.05480
2710.40069	0.05471
2709.11492	0.05458
2707.82915	0.05441
2706.54338	0.05422
2705.25761	0.05406
2703.97184	0.05399
2702.68607	0.05399
2701.40031	0.05401
2700.11454	0.05396
2698.82877	0.05385
2697.54300	0.05373
2696.25723	0.05363
2694.97146	0.05355
2693.68569	0.05348
2692.39992	0.05345
2691.11415	0.05346
2689.82839	0.05348
2688.54262	0.05344
2687.25685	0.05335
2685.97108	0.05325
2684.68531	0.05317
2683.39954	0.05308
2682.11377	0.05296
2680.82800	0.05285
2679.54224	0.05285
2678.25647	0.05300
2676.97070	0.05323
2675.68493	0.05342
2674.39916	0.05350
2673.11339	0.05346
2671.82762	0.05337
2670.54185	0.05324
2669.25608	0.05309
2667.97032	0.05290
2666.68455	0.05269
2665.39878	0.05250
2664.11301	0.05240
2662.82724	0.05244
2661.54147	0.05257
2660.25570	0.05266
2658.96993	0.05264
2657.68417	0.05252
2656.39840	0.05232
2655.11263	0.05207
2653.82686	0.05179
2652.54109	0.05154
2651.25532	0.05138
2649.96955	0.05128
2648.68378	0.05114
2647.39801	0.05088
2646.11225	0.05056
2644.82648	0.05030
2643.54071	0.05014
2642.25494	0.04999
2640.96917	0.04971
2639.68340	0.04932
2638.39763	0.04898
2637.11186	0.04877
2635.82609	0.04871
2634.54033	0.04877
2633.25456	0.04886
2631.96879	0.04888
2630.68302	0.04877
2629.39725	0.04861
2628.11148	0.04853
2626.82571	0.04846
2625.53994	0.04826
2624.25418	0.04786
2622.96841	0.04738
2621.68264	0.04700
2620.39687	0.04676
2619.11110	0.04660
2617.82533	0.04646
2616.53956	0.04635
2615.25379	0.04624
2613.96802	0.04608
2612.68226	0.04584
2611.39649	0.04563
2610.11072	0.04552
2608.82495	0.04540
2607.53918	0.04518
2606.25341	0.04495
2604.96764	0.04485
2603.68187	0.04485
2602.39611	0.04485
2601.11034	0.04485
2599.82457	0.04491
2598.53880	0.04504
2597.25303	0.04510
2595.96726	0.04499
2594.68149	0.04473
2593.39572	0.04441
2592.10995	0.04419
2590.82419	0.04422
2589.53842	0.04440
2588.25265	0.04448
2586.96688	0.04430
2585.68111	0.04399
2584.39534	0.04380
2583.10957	0.04379
2581.82380	0.04381
2580.53804	0.04374
2579.25227	0.04361
2577.96650	0.04354
2576.68073	0.04353
2575.39496	0.04347
2574.10919	0.04328
2572.82342	0.04296
2571.53765	0.04261
2570.25188	0.04231
2568.96612	0.04208
2567.68035	0.04189
2566.39458	0.04169
2565.10881	0.04155
2563.82304	0.04154
2562.53727	0.04170
2561.25150	0.04189
2559.96573	0.04191
2558.67997	0.04166
2557.39420	0.04127
2556.10843	0.04095
2554.82266	0.04081
2553.53689	0.04075
2552.25112	0.04062
2550.96535	0.04039
2549.67958	0.04016
2548.39381	0.04006
2547.10805	0.04011
2545.82228	0.04024
2544.53651	0.04037
2543.25074	0.04043
2541.96497	0.04034
2540.67920	0.04012
2539.39343	0.03982
2538.10766	0.03955
2536.82190	0.03935
2535.53613	0.03916
2534.25036	0.03896
2532.96459	0.03882
2531.67882	0.03882
2530.39305	0.03900
2529.10728	0.03927
2527.82151	0.03946
2526.53574	0.03942
2525.24998	0.03917
2523.96421	0.03883
2522.67844	0.03855
2521.39267	0.03839
2520.10690	0.03835
2518.82113	0.03843
2517.53536	0.03858
2516.24959	0.03877
2514.96383	0.03894
2513.67806	0.03903
2512.39229	0.03897
2511.10652	0.03871
2509.82075	0.03827
2508.53498	0.03782
2507.24921	0.03760
2505.96344	0.03769
2504.67767	0.03794
2503.39191	0.03809
2502.10614	0.03800
2500.82037	0.03778
2499.53460	0.03763
2498.24883	0.03761
2496.96306	0.03760
2495.67729	0.03742
2494.39152	0.03706
2493.10576	0.03673
2491.81999	0.03661
2490.53422	0.03670
2489.24845	0.03684
2487.96268	0.03686
2486.67691	0.03667
2485.39114	0.03633
2484.10537	0.03598
2482.81960	0.03574
2481.53384	0.03567
2480.24807	0.03573
2478.96230	0.03587
2477.67653	0.03608
2476.39076	0.03629
2475.10499	0.03646
2473.81922	0.03663
2472.53345	0.03690
2471.24769	0.03723
2469.96192	0.03741
2468.67615	0.03726
2467.39038	0.03692
2466.10461	0.03673
2464.81884	0.03689
2463.53307	0.03726
2462.24730	0.03751
2460.96153	0.03737
2459.67577	0.03683
2458.39000	0.03618
2457.10423	0.03584
2455.81846	0.03604
2454.53269	0.03660
2453.24692	0.03713
2451.96115	0.03733
2450.67538	0.03716
2449.38962	0.03689
2448.10385	0.03674
2446.81808	0.03668
2445.53231	0.03657
2444.24654	0.03641
2442.96077	0.03632
2441.67500	0.03629
2440.38923	0.03626
2439.10346	0.03619
2437.81770	0.03610
2436.53193	0.03598
2435.24616	0.03581
2433.96039	0.03563
2432.67462	0.03550
2431.38885	0.03541
2430.10308	0.03533
2428.81731	0.03526
2427.53155	0.03520
2426.24578	0.03509
2424.96001	0.03491
2423.67424	0.03476
2422.38847	0.03479
2421.10270	0.03507
2419.81693	0.03549
2418.53116	0.03580
2417.24539	0.03584
2415.95963	0.03562
2414.67386	0.03530
2413.38809	0.03503
2412.10232	0.03482
2410.81655	0.03469
2409.53078	0.03467
2408.24501	0.03477
2406.95924	0.03490
2405.67347	0.03494
2404.38771	0.03489
2403.10194	0.03483
2401.81617	0.03480
2400.53040	0.03479
2399.24463	0.03473
2397.95886	0.03466
2396.67309	0.03457
2395.38732	0.03442
2394.10156	0.03420
2392.81579	0.03394
2391.53002	0.03377
2390.24425	0.03381
2388.95848	0.03405
2387.67271	0.03437
2386.38694	0.03467
2385.10117	0.03495
2383.81540	0.03526
2382.52964	0.03551
2381.24387	0.03557
2379.95810	0.03544
2378.67233	0.03514
2377.38656	0.03490
2376.10079	0.03491
2374.81502	0.03503
2373.52925	0.03481
2372.24349	0.03434
2370.95772	0.03401
2369.67195	0.03397
2368.38618	0.03411
2367.10041	0.03426
2365.81464	0.03446
2364.52887	0.03465
2363.24310	0.03478
2361.95733	0.03483
2360.67157	0.03479
2359.38580	0.03486
2358.10003	0.03507
2356.81426	0.03540
2355.52849	0.03585
2354.24272	0.03636
2352.95695	0.03663
2351.67118	0.03631
2350.38542	0.03585
2349.09965	0.03576
2347.81388	0.03591
2346.52811	0.03588
2345.24234	0.03577
2343.95657	0.03579
2342.67080	0.03615
2341.38503	0.03586
2340.09926	0.03515
2338.81350	0.03517
2337.52773	0.03572
2336.24196	0.03560
2334.95619	0.03536
2333.67042	0.03573
2332.38465	0.03642
2331.09888	0.03589
2329.81311	0.03561
2328.52735	0.03586
2327.24158	0.03592
2325.95581	0.03615
2324.67004	0.03653
2323.38427	0.03686
2322.09850	0.03651
2320.81273	0.03604
2319.52696	0.03561
2318.24119	0.03533
2316.95543	0.03525
2315.66966	0.03527
2314.38389	0.03538
2313.09812	0.03528
2311.81235	0.03483
2310.52658	0.03429
2309.24081	0.03389
2307.95504	0.03362
2306.66928	0.03351
2305.38351	0.03345
2304.09774	0.03349
2302.81197	0.03360
2301.52620	0.03362
2300.24043	0.03347
2298.95466	0.03311
2297.66889	0.03271
2296.38312	0.03239
2295.09736	0.03220
2293.81159	0.03213
2292.52582	0.03212
2291.24005	0.03212
2289.95428	0.03207
2288.66851	0.03193
2287.38274	0.03172
2286.09697	0.03150
2284.81121	0.03120
2283.52544	0.03083
2282.23967	0.03047
2280.95390	0.03026
2279.66813	0.03022
2278.38236	0.03029
2277.09659	0.03042
2275.81082	0.03055
2274.52505	0.03054
2273.23929	0.03028
2271.95352	0.02983
2270.66775	0.02934
2269.38198	0.02882
2268.09621	0.02824
2266.81044	0.02767
2265.52467	0.02735
2264.23890	0.02742
2262.95314	0.02767
2261.66737	0.02783
2260.38160	0.02792
2259.09583	0.02807
2257.81006	0.02831
2256.52429	0.02839
2255.23852	0.02811
2253.95275	0.02748
2252.66698	0.02682
2251.38122	0.02638
2250.09545	0.02626
2248.80968	0.02642
2247.52391	0.02659
2246.23814	0.02688
2244.95237	0.02724
2243.66660	0.02748
2242.38083	0.02746
2241.09507	0.02730
2239.80930	0.02724
2238.52353	0.02732
2237.23776	0.02727
2235.95199	0.02686
2234.66622	0.02630
2233.38045	0.02605
2232.09468	0.02627
2230.80891	0.02661
2229.52315	0.02662
2228.23738	0.02624
2226.95161	0.02572
2225.66584	0.02527
2224.38007	0.02488
2223.09430	0.02455
2221.80853	0.02433
2220.52276	0.02419
2219.23700	0.02394
2217.95123	0.02351
2216.66546	0.02312
2215.37969	0.02302
2214.09392	0.02313
2212.80815	0.02316
2211.52238	0.02300
2210.23661	0.02282
2208.95084	0.02283
2207.66508	0.02312
2206.37931	0.02366
2205.09354	0.02427
2203.80777	0.02459
2202.52200	0.02423
2201.23623	0.02312
2199.95046	0.02170
2198.66469	0.02069
2197.37893	0.02061
2196.09316	0.02130
2194.80739	0.02212
2193.52162	0.02259
2192.23585	0.02258
2190.95008	0.02210
2189.66431	0.02123
2188.37854	0.02035
2187.09277	0.02005
2185.80701	0.02052
2184.52124	0.02126
2183.23547	0.02174
2181.94970	0.02200
2180.66393	0.02243
2179.37816	0.02305
2178.09239	0.02347
2176.80662	0.02348
2175.52085	0.02325
2174.23509	0.02295
2172.94932	0.02241
2171.66355	0.02146
2170.37778	0.02030
2169.09201	0.01929
2167.80624	0.01855
2166.52047	0.01794
2165.23470	0.01739
2163.94894	0.01703
2162.66317	0.01674
2161.37740	0.01613
2160.09163	0.01506
2158.80586	0.01410
2157.52009	0.01384
2156.23432	0.01428
2154.94855	0.01511
2153.66278	0.01633
2152.37702	0.01789
2151.09125	0.01930
2149.80548	0.02004
2148.51971	0.02014
2147.23394	0.02006
2145.94817	0.02007
2144.66240	0.01998
2143.37663	0.01956
2142.09087	0.01884
2140.80510	0.01816
2139.51933	0.01792
2138.23356	0.01823
2136.94779	0.01879
2135.66202	0.01921
2134.37625	0.01942
2133.09048	0.01974
2131.80471	0.02050
2130.51895	0.02163
2129.23318	0.02267
2127.94741	0.02315
2126.66164	0.02306
2125.37587	0.02283
2124.09010	0.02288
2122.80433	0.02314
2121.51856	0.02339
2120.23280	0.02360
2118.94703	0.02393
2117.66126	0.02446
2116.37549	0.02506
2115.08972	0.02546
2113.80395	0.02537
2112.51818	0.02473
2111.23241	0.02385
2109.94664	0.02325
2108.66088	0.02326
2107.37511	0.02380
2106.08934	0.02450
2104.80357	0.02492
2103.51780	0.02484
2102.23203	0.02441
2100.94626	0.02400
2099.66049	0.02408
2098.37473	0.02417
2097.08896	0.02402
2095.80319	0.02355
2094.51742	0.02289
2093.23165	0.02240
2091.94588	0.02234
2090.66011	0.02262
2089.37434	0.02290
2088.08857	0.02300
2086.80281	0.02297
2085.51704	0.02293
2084.23127	0.02293
2082.94550	0.02291
2081.65973	0.02284
2080.37396	0.02273
2079.08819	0.02263
2077.80242	0.02259
2076.51666	0.02264
2075.23089	0.02270
2073.94512	0.02266
2072.65935	0.02240
2071.37358	0.02196
2070.08781	0.02150
2068.80204	0.02124
2067.51627	0.02134
2066.23050	0.02176
2064.94474	0.02229
2063.65897	0.02253
2062.37320	0.02216
2061.08743	0.02122
2059.80166	0.02009
2058.51589	0.01924
2057.23012	0.01887
2055.94435	0.01892
2054.65859	0.01922
2053.37282	0.01964
2052.08705	0.02004
2050.80128	0.02018
2049.51551	0.01986
2048.22974	0.01907
2046.94397	0.01803
2045.65820	0.01708
2044.37243	0.01647
2043.08667	0.01633
2041.80090	0.01656
2040.51513	0.01681
2039.22936	0.01676
2037.94359	0.01647
2036.65782	0.01625
2035.37205	0.01630
2034.08628	0.01644
2032.80052	0.01636
2031.51475	0.01601
2030.22898	0.01574
2028.94321	0.01589
2027.65744	0.01643
2026.37167	0.01712
2025.08590	0.01788
2023.80013	0.01878
2022.51436	0.01955
2021.22860	0.01965
2019.94283	0.01886
2018.65706	0.01760
2017.37129	0.01653
2016.08552	0.01602
2014.79975	0.01597
2013.51398	0.01610
2012.22821	0.01623
2010.94245	0.01631
2009.65668	0.01633
2008.37091	0.01620
2007.08514	0.01578
2005.79937	0.01509
2004.51360	0.01446
2003.22783	0.01428
2001.94206	0.01467
2000.65629	0.01540
1999.37053	0.01611
1998.08476	0.01658
1996.79899	0.01679
1995.51322	0.01691
1994.22745	0.01715
1992.94168	0.01757
1991.65591	0.01795
1990.37014	0.01804
1989.08438	0.01783
1987.79861	0.01750
1986.51284	0.01725
1985.22707	0.01715
1983.94130	0.01718
1982.65553	0.01723
1981.36976	0.01707
1980.08399	0.01661
1978.79822	0.01604
1977.51246	0.01561
1976.22669	0.01547
1974.94092	0.01565
1973.65515	0.01618
1972.36938	0.01705
1971.08361	0.01796
1969.79784	0.01852
1968.51207	0.01851
1967.22631	0.01805
1965.94054	0.01750
1964.65477	0.01714
1963.36900	0.01703
1962.08323	0.01701
1960.79746	0.01688
1959.51169	0.01651
1958.22592	0.01606
1956.94015	0.01581
1955.65439	0.01591
1954.36862	0.01624
1953.08285	0.01653
1951.79708	0.01661
1950.51131	0.01651
1949.22554	0.01641
1947.93977	0.01647
1946.65400	0.01675
1945.36823	0.01725
1944.08247	0.01784
1942.79670	0.01827
1941.51093	0.01831
1940.22516	0.01791
1938.93939	0.01733
1937.65362	0.01692
1936.36785	0.01686
1935.08208	0.01715
1933.79632	0.01766
1932.51055	0.01818
1931.22478	0.01850
1929.93901	0.01857
1928.65324	0.01848
1927.36747	0.01839
1926.08170	0.01834
1924.79593	0.01829
1923.51016	0.01831
1922.22440	0.01862
1920.93863	0.01931
1919.65286	0.02016
1918.36709	0.02075
1917.08132	0.02081
1915.79555	0.02043
1914.50978	0.01993
1913.22401	0.01956
1911.93825	0.01945
1910.65248	0.01956
1909.36671	0.01975
1908.08094	0.01988
1906.79517	0.01992
1905.50940	0.01998
1904.22363	0.02013
1902.93786	0.02030
1901.65209	0.02037
1900.36633	0.02032
1899.08056	0.02016
1897.79479	0.01990
1896.50902	0.01953
1895.22325	0.01913
1893.93748	0.01884
1892.65171	0.01874
1891.36594	0.01882
1890.08018	0.01895
1888.79441	0.01907
1887.50864	0.01919
1886.22287	0.01938
1884.93710	0.01964
1883.65133	0.01988
1882.36556	0.01997
1881.07979	0.01983
1879.79402	0.01951
1878.50826	0.01916
1877.22249	0.01893
1875.93672	0.01885
1874.65095	0.01892
1873.36518	0.01912
1872.07941	0.01941
1870.79364	0.01970
1869.50787	0.01987
1868.22211	0.01986
1866.93634	0.01970
1865.65057	0.01947
1864.36480	0.01924
1863.07903	0.01912
1861.79326	0.01914
1860.50749	0.01926
1859.22172	0.01931
1857.93595	0.01917
1856.65019	0.01888
1855.36442	0.01862
1854.07865	0.01849
1852.79288	0.01846
1851.50711	0.01844
1850.22134	0.01839
1848.93557	0.01837
1847.64980	0.01844
1846.36404	0.01863
1845.07827	0.01885
1843.79250	0.01900
1842.50673	0.01902
1841.22096	0.01891
1839.93519	0.01874
1838.64942	0.01858
1837.36365	0.01844
1836.07788	0.01833
1834.79212	0.01825
1833.50635	0.01820
1832.22058	0.01823
1830.93481	0.01834
1829.64904	0.01854
1828.36327	0.01881
1827.07750	0.01903
1825.79173	0.01911
1824.50597	0.01904
1823.22020	0.01887
1821.93443	0.01870
1820.64866	0.01857
1819.36289	0.01848
1818.07712	0.01842
1816.79135	0.01842
1815.50558	0.01851
1814.21981	0.01864
1812.93405	0.01871
1811.64828	0.01859
1810.36251	0.01831
1809.07674	0.01797
1807.79097	0.01773
1806.50520	0.01764
1805.21943	0.01768
1803.93366	0.01777
1802.64790	0.01785
1801.36213	0.01791
1800.07636	0.01791
1798.79059	0.01787
1797.50482	0.01783
1796.21905	0.01784
1794.93328	0.01792
1793.64751	0.01802
1792.36174	0.01809
1791.07598	0.01810
1789.79021	0.01804
1788.50444	0.01790
1787.21867	0.01774
1785.93290	0.01764
1784.64713	0.01765
1783.36136	0.01773
1782.07559	0.01780
1780.78983	0.01780
1779.50406	0.01771
1778.21829	0.01758
1776.93252	0.01742
1775.64675	0.01727
1774.36098	0.01715
1773.07521	0.01709
1771.78944	0.01708
1770.50367	0.01712
1769.21791	0.01716
1767.93214	0.01715
1766.64637	0.01708
1765.36060	0.01696
1764.07483	0.01684
1762.78906	0.01674
1761.50329	0.01670
1760.21752	0.01670
1758.93176	0.01673
1757.64599	0.01678
1756.36022	0.01683
1755.07445	0.01689
1753.78868	0.01698
1752.50291	0.01709
1751.21714	0.01719
1749.93137	0.01725
1748.64560	0.01728
1747.35984	0.01730
1746.07407	0.01732
1744.78830	0.01735
1743.50253	0.01739
1742.21676	0.01743
1740.93099	0.01748
1739.64522	0.01755
1738.35945	0.01770
1737.07369	0.01788
1735.78792	0.01803
1734.50215	0.01806
1733.21638	0.01801
1731.93061	0.01800
1730.64484	0.01809
1729.35907	0.01826
1728.07330	0.01845
1726.78753	0.01866
1725.50177	0.01896
1724.21600	0.01936
1722.93023	0.01978
1721.64446	0.02020
1720.35869	0.02065
1719.07292	0.02119
1717.78715	0.02182
1716.50138	0.02250
1715.21561	0.02319
1713.92985	0.02393
1712.64408	0.02478
1711.35831	0.02578
1710.07254	0.02692
1708.78677	0.02816
1707.50100	0.02948
1706.21523	0.03086
1704.92946	0.03231
1703.64370	0.03383
1702.35793	0.03542
1701.07216	0.03708
1699.78639	0.03884
1698.50062	0.04069
1697.21485	0.04265
1695.92908	0.04470
1694.64331	0.04678
1693.35754	0.04882
1692.07178	0.05080
1690.78601	0.05276
1689.50024	0.05477
1688.21447	0.05688
1686.92870	0.05916
1685.64293	0.06159
1684.35716	0.06409
1683.07139	0.06657
1681.78563	0.06900
1680.49986	0.07148
1679.21409	0.07409
1677.92832	0.07687
1676.64255	0.07979
1675.35678	0.08280
1674.07101	0.08588
1672.78524	0.08906
1671.49947	0.09236
1670.21371	0.09576
1668.92794	0.09914
1667.64217	0.10241
1666.35640	0.10553
1665.07063	0.10857
1663.78486	0.11156
1662.49909	0.11448
1661.21332	0.11727
1659.92756	0.11989
1658.64179	0.12235
1657.35602	0.12468
1656.07025	0.12694
1654.78448	0.12914
1653.49871	0.13118
1652.21294	0.13296
1650.92717	0.13446
1649.64140	0.13577
1648.35564	0.13699
1647.06987	0.13819
1645.78410	0.13938
1644.49833	0.14054
1643.21256	0.14168
1641.92679	0.14281
1640.64102	0.14393
1639.35525	0.14504
1638.06949	0.14609
1636.78372	0.14704
1635.49795	0.14785
1634.21218	0.14851
1632.92641	0.14903
1631.64064	0.14941
1630.35487	0.14959
1629.06910	0.14948
1627.78333	0.14899
1626.49757	0.14811
1625.21180	0.14685
1623.92603	0.14523
1622.64026	0.14329
1621.35449	0.14107
1620.06872	0.13860
1618.78295	0.13594
1617.49718	0.13313
1616.21142	0.13024
1614.92565	0.12730
1613.63988	0.12432
1612.35411	0.12131
1611.06834	0.11829
1609.78257	0.11527
1608.49680	0.11229
1607.21103	0.10937
1605.92526	0.10657
1604.63950	0.10388
1603.35373	0.10131
1602.06796	0.09886
1600.78219	0.09657
1599.49642	0.09448
1598.21065	0.09260
1596.92488	0.09088
1595.63911	0.08928
1594.35335	0.08777
1593.06758	0.08638
1591.78181	0.08516
1590.49604	0.08416
1589.21027	0.08342
1587.92450	0.08290
1586.63873	0.08258
1585.35296	0.08242
1584.06719	0.08237
1582.78143	0.08242
1581.49566	0.08257
1580.20989	0.08286
1578.92412	0.08337
1577.63835	0.08414
1576.35258	0.08516
1575.06681	0.08635
1573.78104	0.08764
1572.49528	0.08901
1571.20951	0.09048
1569.92374	0.09207
1568.63797	0.09380
1567.35220	0.09565
1566.06643	0.09761
1564.78066	0.09967
1563.49489	0.10178
1562.20912	0.10393
1560.92336	0.10609
1559.63759	0.10823
1558.35182	0.11027
1557.06605	0.11214
1555.78028	0.11386
1554.49451	0.11547
1553.20874	0.11704
1551.92297	0.11852
1550.63721	0.11985
1549.35144	0.12099
1548.06567	0.12194
1546.77990	0.12277
1545.49413	0.12352
1544.20836	0.12421
1542.92259	0.12480
1541.63682	0.12524
1540.35105	0.12552
1539.06529	0.12564
1537.77952	0.12564
1536.49375	0.12554
1535.20798	0.12539
1533.92221	0.12520
1532.63644	0.12495
1531.35067	0.12462
1530.06490	0.12420
1528.77914	0.12370
1527.49337	0.12313
1526.20760	0.12252
1524.92183	0.12188
1523.63606	0.12121
1522.35029	0.12048
1521.06452	0.11971
1519.77875	0.11893
1518.49298	0.11813
1517.20722	0.11727
1515.92145	0.11628
1514.63568	0.11510
1513.34991	0.11375
1512.06414	0.11227
1510.77837	0.11071
1509.49260	0.10909
1508.20683	0.10739
1506.92107	0.10558
1505.63530	0.10364
1504.34953	0.10161
1503.06376	0.09955
1501.77799	0.09753
1500.49222	0.09557
1499.20645	0.09364
1497.92068	0.09167
1496.63491	0.08962
1495.34915	0.08754
1494.06338	0.08549
1492.77761	0.08353
1491.49184	0.08165
1490.20607	0.07985
1488.92030	0.07816
1487.63453	0.07664
1486.34876	0.07532
1485.06299	0.07418
1483.77723	0.07322
1482.49146	0.07244
1481.20569	0.07188
1479.91992	0.07156
1478.63415	0.07146
1477.34838	0.07161
1476.06261	0.07200
1474.77684	0.07264
1473.49108	0.07350
1472.20531	0.07451
1470.91954	0.07559
1469.63377	0.07670
1468.34800	0.07782
1467.06223	0.07898
1465.77646	0.08022
1464.49069	0.08153
1463.20492	0.08287
1461.91916	0.08422
1460.63339	0.08558
1459.34762	0.08698
1458.06185	0.08842
1456.77608	0.08985
1455.49031	0.09116
1454.20454	0.09227
1452.91877	0.09316
1451.63301	0.09383
1450.34724	0.09430
1449.06147	0.09454
1447.77570	0.09456
1446.48993	0.09438
1445.20416	0.09408
1443.91839	0.09370
1442.63262	0.09324
1441.34685	0.09264
1440.06109	0.09187
1438.77532	0.09094
1437.48955	0.08988
1436.20378	0.08873
1434.91801	0.08752
1433.63224	0.08631
1432.34647	0.08512
1431.06070	0.08398
1429.77494	0.08291
1428.48917	0.08195
1427.20340	0.08114
1425.91763	0.08048
1424.63186	0.07997
1423.34609	0.07955
1422.06032	0.07921
1420.77455	0.07896
1419.48878	0.07883
1418.20302	0.07877
1416.91725	0.07875
1415.63148	0.07877
1414.34571	0.07883
1413.05994	0.07897
1411.77417	0.07918
1410.48840	0.07943
1409.20263	0.07972
1407.91687	0.08006
1406.63110	0.08044
1405.34533	0.08083
1404.05956	0.08119
1402.77379	0.08148
1401.48802	0.08170
1400.20225	0.08183
1398.91648	0.08186
1397.63071	0.08178
1396.34495	0.08161
1395.05918	0.08141
1393.77341	0.08122
1392.48764	0.08104
1391.20187	0.08088
1389.91610	0.08069
1388.63033	0.08045
1387.34456	0.08017
1386.05880	0.07986
1384.77303	0.07957
1383.48726	0.07932
1382.20149	0.07913
1380.91572	0.07898
1379.62995	0.07882
1378.34418	0.07860
1377.05841	0.07828
1375.77264	0.07784
1374.48688	0.07725
1373.20111	0.07654
1371.91534	0.07572
1370.62957	0.07481
1369.34380	0.07384
1368.05803	0.07287
1366.77226	0.07194
1365.48649	0.07110
1364.20073	0.07035
1362.91496	0.06967
1361.62919	0.06906
1360.34342	0.06850
1359.05765	0.06801
1357.77188	0.06764
1356.48611	0.06741
1355.20034	0.06734
1353.91457	0.06744
1352.62881	0.06770
1351.34304	0.06810
1350.05727	0.06859
1348.77150	0.06917
1347.48573	0.06979
1346.19996	0.07044
1344.91419	0.07109
1343.62842	0.07174
1342.34266	0.07239
1341.05689	0.07304
1339.77112	0.07364
1338.48535	0.07414
1337.19958	0.07448
1335.91381	0.07462
1334.62804	0.07457
1333.34227	0.07432
1332.05650	0.07392
1330.77074	0.07341
1329.48497	0.07286
1328.19920	0.07231
1326.91343	0.07178
1325.62766	0.07128
1324.34189	0.07080
1323.05612	0.07039
1321.77035	0.07005
1320.48459	0.06980
1319.19882	0.06962
1317.91305	0.06946
1316.62728	0.06929
1315.34151	0.06907
1314.05574	0.06881
1312.76997	0.06850
1311.48420	0.06817
1310.19843	0.06781
1308.91267	0.06745
1307.62690	0.06711
1306.34113	0.06682
1305.05536	0.06659
1303.76959	0.06638
1302.48382	0.06614
1301.19805	0.06585
1299.91228	0.06554
1298.62652	0.06529
1297.34075	0.06511
1296.05498	0.06502
1294.76921	0.06499
1293.48344	0.06504
1292.19767	0.06518
1290.91190	0.06541
1289.62613	0.06574
1288.34036	0.06613
1287.05460	0.06657
1285.76883	0.06702
1284.48306	0.06748
1283.19729	0.06793
1281.91152	0.06834
1280.62575	0.06863
1279.33998	0.06879
1278.05421	0.06885
1276.76845	0.06888
1275.48268	0.06890
1274.19691	0.06890
1272.91114	0.06887
1271.62537	0.06881
1270.33960	0.06877
1269.05383	0.06881
1267.76806	0.06895
1266.48229	0.06918
1265.19653	0.06948
1263.91076	0.06981
1262.62499	0.07018
1261.33922	0.07061
1260.05345	0.07109
1258.76768	0.07159
1257.48191	0.07209
1256.19614	0.07261
1254.91037	0.07317
1253.62461	0.07378
1252.33884	0.07443
1251.05307	0.07514
1249.76730	0.07593
1248.48153	0.07681
1247.19576	0.07776
1245.90999	0.07874
1244.62422	0.07972
1243.33846	0.08068
1242.05269	0.08159
1240.76692	0.08239
1239.48115	0.08304
1238.19538	0.08352
1236.90961	0.08384
1235.62384	0.08405
1234.33807	0.08416
1233.05230	0.08418
1231.76654	0.08407
1230.48077	0.08381
1229.19500	0.08339
1227.90923	0.08276
1226.62346	0.08191
1225.33769	0.08084
1224.05192	0.07963
1222.76615	0.07838
1221.48039	0.07717
1220.19462	0.07605
1218.90885	0.07503
1217.62308	0.07409
1216.33731	0.07325
1215.05154	0.07257
1213.76577	0.07210
1212.48000	0.07184
1211.19423	0.07176
1209.90847	0.07180
1208.62270	0.07196
1207.33693	0.07219
1206.05116	0.07247
1204.76539	0.07274
1203.47962	0.07294
1202.19385	0.07300
1200.90808	0.07284
1199.62232	0.07242
1198.33655	0.07178
1197.05078	0.07097
1195.76501	0.07007
1194.47924	0.06916
1193.19347	0.06828
1191.90770	0.06740
1190.62193	0.06649
1189.33616	0.06556
1188.05040	0.06468
1186.76463	0.06391
1185.47886	0.06323
1184.19309	0.06261
1182.90732	0.06201
1181.62155	0.06147
1180.33578	0.06103
1179.05001	0.06068
1177.76425	0.06039
1176.47848	0.06012
1175.19271	0.05986
1173.90694	0.05963
1172.62117	0.05948
1171.33540	0.05941
1170.04963	0.05940
1168.76386	0.05941
1167.47809	0.05941
1166.19233	0.05940
1164.90656	0.05939
1163.62079	0.05938
1162.33502	0.05937
1161.04925	0.05934
1159.76348	0.05927
1158.47771	0.05910
1157.19194	0.05879
1155.90618	0.05833
1154.62041	0.05779
1153.33464	0.05725
1152.04887	0.05674
1150.76310	0.05623
1149.47733	0.05565
1148.19156	0.05502
1146.90579	0.05438
1145.62002	0.05380
1144.33426	0.05334
1143.04849	0.05297
1141.76272	0.05262
1140.47695	0.05224
1139.19118	0.05183
1137.90541	0.05142
1136.61964	0.05106
1135.33387	0.05076
1134.04811	0.05051
1132.76234	0.05029
1131.47657	0.05010
1130.19080	0.04996
1128.90503	0.04984
1127.61926	0.04976
1126.33349	0.04969
1125.04772	0.04960
1123.76195	0.04953
1122.47619	0.04949
1121.19042	0.04950
1119.90465	0.04951
1118.61888	0.04950
1117.33311	0.04948
1116.04734	0.04947
1114.76157	0.04950
1113.47580	0.04955
1112.19004	0.04965
1110.90427	0.04981
1109.61850	0.05000
1108.33273	0.05016
1107.04696	0.05025
1105.76119	0.05028
1104.47542	0.05031
1103.18965	0.05041
1101.90388	0.05060
1100.61812	0.05084
1099.33235	0.05107
1098.04658	0.05126
1096.76081	0.05142
1095.47504	0.05162
1094.18927	0.05192
1092.90350	0.05233
1091.61773	0.05278
1090.33197	0.05324
1089.04620	0.05375
1087.76043	0.05436
1086.47466	0.05506
1085.18889	0.05577
1083.90312	0.05637
1082.61735	0.05676
1081.33158	0.05697
1080.04581	0.05703
1078.76005	0.05696
1077.47428	0.05674
1076.18851	0.05639
1074.90274	0.05594
1073.61697	0.05547
1072.33120	0.05504
1071.04543	0.05468
1069.75966	0.05444
1068.47390	0.05433
1067.18813	0.05428
1065.90236	0.05426
1064.61659	0.05421
1063.33082	0.05412
1062.04505	0.05400
1060.75928	0.05382
1059.47351	0.05362
1058.18774	0.05342
1056.90198	0.05322
1055.61621	0.05298
1054.33044	0.05268
1053.04467	0.05234
1051.75890	0.05201
1050.47313	0.05171
1049.18736	0.05146
1047.90159	0.05129
1046.61583	0.05121
1045.33006	0.05117
1044.04429	0.05110
1042.75852	0.05100
1041.47275	0.05096
1040.18698	0.05102
1038.90121	0.05120
1037.61544	0.05147
1036.32967	0.05179
1035.04391	0.05214
1033.75814	0.05253
1032.47237	0.05293
1031.18660	0.05324
1029.90083	0.05336
1028.61506	0.05326
1027.32929	0.05295
1026.04352	0.05247
1024.75775	0.05189
1023.47199	0.05127
1022.18622	0.05064
1020.90045	0.05006
1019.61468	0.04957
1018.32891	0.04922
1017.04314	0.04901
1015.75737	0.04887
1014.47160	0.04869
1013.18584	0.04843
1011.90007	0.04807
1010.61430	0.04765
1009.32853	0.04719
1008.04276	0.04672
1006.75699	0.04623
1005.47122	0.04571
1004.18545	0.04519
1002.89968	0.04471
1001.61392	0.04432
1000.32815	0.04400
999.04238	0.04370
997.75661	0.04338
996.47084	0.04302
995.18507	0.04264
993.89930	0.04227
992.61353	0.04192
991.32777	0.04162
990.04200	0.04134
988.75623	0.04107
987.47046	0.04085
986.18469	0.04069
984.89892	0.04058
983.61315	0.04045
982.32738	0.04032
981.04161	0.04029
979.75585	0.04042
978.47008	0.04069
977.18431	0.04101
975.89854	0.04128
974.61277	0.04148
973.32700	0.04157
972.04123	0.04154
970.75546	0.04136
969.46970	0.04108
968.18393	0.04074
966.89816	0.04037
965.61239	0.04002
964.32662	0.03973
963.04085	0.03952
961.75508	0.03938
960.46931	0.03928
959.18354	0.03916
957.89778	0.03899
956.61201	0.03876
955.32624	0.03851
954.04047	0.03828
952.75470	0.03809
951.46893	0.03796
950.18316	0.03793
948.89739	0.03802
947.61163	0.03818
946.32586	0.03833
945.04009	0.03842
943.75432	0.03849
942.46855	0.03856
941.18278	0.03857
939.89701	0.03848
938.61124	0.03828
937.32547	0.03808
936.03971	0.03798
934.75394	0.03798
933.46817	0.03800
932.18240	0.03795
930.89663	0.03781
929.61086	0.03763
928.32509	0.03749
927.03932	0.03742
925.75356	0.03740
924.46779	0.03738
923.18202	0.03732
921.89625	0.03720
920.61048	0.03699
919.32471	0.03672
918.03894	0.03643
916.75317	0.03615
915.46740	0.03587
914.18164	0.03559
912.89587	0.03535
911.61010	0.03517
910.32433	0.03506
909.03856	0.03498
907.75279	0.03491
906.46702	0.03482
905.18125	0.03472
903.89549	0.03460
902.60972	0.03447
901.32395	0.03432
900.03818	0.03417
898.75241	0.03409
897.46664	0.03411
896.18087	0.03417
894.89510	0.03417
893.60933	0.03410
892.32357	0.03401
891.03780	0.03395
889.75203	0.03392
888.46626	0.03390
887.18049	0.03390
885.89472	0.03392
884.60895	0.03393
883.32318	0.03392
882.03742	0.03390
880.75165	0.03391
879.46588	0.03395
878.18011	0.03403
876.89434	0.03417
875.60857	0.03433
874.32280	0.03447
873.03703	0.03448
871.75126	0.03439
870.46550	0.03429
869.17973	0.03427
867.89396	0.03433
866.60819	0.03441
865.32242	0.03443
864.03665	0.03440
862.75088	0.03435
861.46511	0.03431
860.17935	0.03425
858.89358	0.03420
857.60781	0.03418
856.32204	0.03418
855.03627	0.03419
853.75050	0.03418
852.46473	0.03417
851.17896	0.03418
849.89319	0.03418
848.60743	0.03412
847.32166	0.03399
846.03589	0.03383
844.75012	0.03371
843.46435	0.03362
842.17858	0.03355
840.89281	0.03345
839.60704	0.03333
838.32128	0.03323
837.03551	0.03320
835.74974	0.03320
834.46397	0.03316
833.17820	0.03306
831.89243	0.03300
830.60666	0.03301
829.32089	0.03309
828.03512	0.03316
826.74936	0.03324
825.46359	0.03332
824.17782	0.03340
822.89205	0.03344
821.60628	0.03348
820.32051	0.03356
819.03474	0.03371
817.74897	0.03385
816.46321	0.03395
815.17744	0.03402
813.89167	0.03411
812.60590	0.03423
811.32013	0.03440
810.03436	0.03457
808.74859	0.03472
807.46282	0.03487
806.17705	0.03507
804.89129	0.03530
803.60552	0.03550
802.31975	0.03561
801.03398	0.03560
799.74821	0.03552
798.46244	0.03541
797.17667	0.03535
795.89090	0.03537
794.60513	0.03548
793.31937	0.03564
792.03360	0.03584
790.74783	0.03608
789.46206	0.03633
788.17629	0.03652
786.89052	0.03661
785.60475	0.03667
784.31898	0.03676
783.03322	0.03688
781.74745	0.03697
780.46168	0.03704
779.17591	0.03713
777.89014	0.03726
776.60437	0.03737
775.31860	0.03740
774.03283	0.03743
772.74706	0.03753
771.46130	0.03772
770.17553	0.03792
768.88976	0.03810
767.60399	0.03825
766.31822	0.03840
765.03245	0.03856
763.74668	0.03874
762.46091	0.03893
761.17515	0.03907
759.88938	0.03912
758.60361	0.03908
757.31784	0.03905
756.03207	0.03911
754.74630	0.03926
753.46053	0.03946
752.17476	0.03965
750.88899	0.03982
749.60323	0.03999
748.31746	0.04015
747.03169	0.04032
745.74592	0.04050
744.46015	0.04067
743.17438	0.04080
741.88861	0.04095
740.60284	0.04111
739.31708	0.04125
738.03131	0.04135
736.74554	0.04147
735.45977	0.04166
734.17400	0.04191
732.88823	0.04213
731.60246	0.04234
730.31669	0.04265
729.03092	0.04311
727.74516	0.04358
726.45939	0.04390
725.17362	0.04403
723.88785	0.04408
722.60208	0.04425
721.31631	0.04451
720.03054	0.04478
718.74477	0.04503
717.45901	0.04524
716.17324	0.04540
714.88747	0.04549
713.60170	0.04551
712.31593	0.04554
711.03016	0.04564
709.74439	0.04581
708.45862	0.04605
707.17285	0.04633
705.88709	0.04665
704.60132	0.04697
703.31555	0.04723
702.02978	0.04740
700.74401	0.04750
699.45824	0.04759
698.17247	0.04770
696.88670	0.04784
695.60094	0.04800
694.31517	0.04812
693.02940	0.04818
691.74363	0.04818
690.45786	0.04816
689.17209	0.04819
687.88632	0.04832
686.60055	0.04853
685.31478	0.04875
684.02902	0.04892
682.74325	0.04899
681.45748	0.04902
680.17171	0.04908
678.88594	0.04922
677.60017	0.04944
676.31440	0.04968
675.02863	0.04991
673.74287	0.05009
672.45710	0.05021
671.17133	0.05028
669.88556	0.05031
668.59979	0.05033
667.31402	0.05039
666.02825	0.05047
664.74248	0.05060
663.45671	0.05077
662.17095	0.05095
660.88518	0.05113
659.59941	0.05131
658.31364	0.05146
657.02787	0.05157
655.74210	0.05167
654.45633	0.05176
653.17056	0.05185
651.88480	0.05194
650.59903	0.05202
649.31326	0.05209
648.02749	0.05212
646.74172	0.05206
645.45595	0.05199
644.17018	0.05196
642.88441	0.05201
641.59864	0.05209
640.31288	0.05215
639.02711	0.05222
637.74134	0.05232
636.45557	0.05242
635.16980	0.05249
633.88403	0.05250
632.59826	0.05251
631.31249	0.05259
630.02673	0.05285
628.74096	0.05313
627.45519	0.05272
626.16942	0.05249
624.88365	0.05220
623.59788	0.05147
622.31211	0.05040
621.02634	0.04950
619.74057	0.04942
618.45481	0.05026
617.16904	0.05136
615.88327	0.05201
614.59750	0.05224
613.31173	0.05263
612.02596	0.05338
610.74019	0.05390
609.45442	0.05393
608.16866	0.05401
606.88289	0.05459
605.59712	0.05530
604.31135	0.05551
603.02558	0.05514
601.73981	0.05463
600.45404	0.05437
599.16827	0.05446
597.88250	0.05472
596.59674	0.05496
595.31097	0.05505
594.02520	0.05493
592.73943	0.05462
591.45366	0.05427
590.16789	0.05405
588.88212	0.05403
587.59635	0.05409
586.31059	0.05410
585.02482	0.05405
583.73905	0.05402
582.45328	0.05410
581.16751	0.05423
579.88174	0.05431
578.59597	0.05427
577.31020	0.05415
576.02443	0.05409
574.73867	0.05416
573.45290	0.05427
572.16713	0.05433
570.88136	0.05433
569.59559	0.05434
568.30982	0.05445
567.02405	0.05470
565.73828	0.05504
564.45251	0.05535
563.16675	0.05552
561.88098	0.05554
560.59521	0.05547
559.30944	0.05536
558.02367	0.05526
556.73790	0.05522
555.45213	0.05526
554.16636	0.05538
552.88060	0.05556
551.59483	0.05571
550.30906	0.05577
549.02329	0.05570
547.73752	0.05550
546.45175	0.05523
545.16598	0.05492
543.88021	0.05464
542.59444	0.05444
541.30868	0.05431
540.02291	0.05426
538.73714	0.05429
537.45137	0.05441
536.16560	0.05462
534.87983	0.05487
533.59406	0.05506
532.30829	0.05506
531.02253	0.05489
529.73676	0.05470
528.45099	0.05462
527.16522	0.05462
525.87945	0.05459
524.59368	0.05446
523.30791	0.05428
522.02214	0.05410
520.73637	0.05393
519.45061	0.05371
518.16484	0.05341
516.87907	0.05309
515.59330	0.05285
514.30753	0.05275
513.02176	0.05275
511.73599	0.05271
510.45022	0.05257
509.16446	0.05233
507.87869	0.05205
506.59292	0.05183
505.30715	0.05172
504.02138	0.05168
502.73561	0.05163
501.44984	0.05151
500.16407	0.05132
498.87830	0.05111
497.59254	0.05094
496.30677	0.05082
495.02100	0.05072
493.73523	0.05060
492.44946	0.05045
491.16369	0.05027
489.87792	0.05011
488.59215	0.04997
487.30639	0.04981
486.02062	0.04959
484.73485	0.04934
483.44908	0.04916
482.16331	0.04909
480.87754	0.04913
479.59177	0.04919
478.30600	0.04920
477.02023	0.04912
475.73447	0.04897
474.44870	0.04875
473.16293	0.04844
471.87716	0.04806
470.59139	0.04767
469.30562	0.04736
468.01985	0.04717
466.73408	0.04706
465.44832	0.04696
464.16255	0.04683
462.87678	0.04667
461.59101	0.04647
460.30524	0.04627
459.01947	0.04609
457.73370	0.04593
456.44793	0.04576
455.16216	0.04558
453.87640	0.04537
452.59063	0.04516
451.30486	0.04495
450.01909	0.04473
448.73332	0.04445
447.44755	0.04413
446.16178	0.04382
444.87601	0.04359
443.59025	0.04349
442.30448	0.04348
441.01871	0.04345
439.73294	0.04334
438.44717	0.04310
437.16140	0.04278
435.87563	0.04245
434.58986	0.04220
433.30409	0.04208
432.01833	0.04207
430.73256	0.04208
429.44679	0.04203
428.16102	0.04187
426.87525	0.04160
425.58948	0.04131
424.30371	0.04107
423.01794	0.04091
421.73218	0.04080
420.44641	0.04070
419.16064	0.04054
417.87487	0.04033
416.58910	0.04007
415.30333	0.03981
414.01756	0.03958
412.73179	0.03943
411.44602	0.03933
410.16026	0.03921
408.87449	0.03904
407.58872	0.03885
406.30295	0.03865
405.01718	0.03848
403.73141	0.03832
402.44564	0.03820
401.15987	0.03813
399.87411	0.03809
