3996.16951	0.06639
3994.24086	0.06680
3992.31221	0.06707
3990.38355	0.06704
3988.45490	0.06714
3986.52625	0.06762
3984.59759	0.06786
3982.66894	0.06734
3980.74029	0.06656
3978.81163	0.06630
3976.88298	0.06634
3974.95433	0.06603
3973.02567	0.06568
3971.09702	0.06576
3969.16837	0.06583
3967.23972	0.06594
3965.31106	0.06653
3963.38241	0.06716
3961.45376	0.06715
3959.52510	0.06656
3957.59645	0.06572
3955.66780	0.06527
3953.73914	0.06555
3951.81049	0.06586
3949.88184	0.06550
3947.95318	0.06487
3946.02453	0.06476
3944.09588	0.06509
3942.16722	0.06502
3940.23857	0.06455
3938.30992	0.06426
3936.38126	0.06403
3934.45261	0.06370
3932.52396	0.06368
3930.59530	0.06431
3928.66665	0.06506
3926.73800	0.06491
3924.80934	0.06411
3922.88069	0.06364
3920.95204	0.06348
3919.02338	0.06329
3917.09473	0.06340
3915.16608	0.06391
3913.23742	0.06436
3911.30877	0.06436
3909.38012	0.06416
3907.45146	0.06408
3905.52281	0.06400
3903.59416	0.06387
3901.66550	0.06384
3899.73685	0.06372
3897.80820	0.06335
3895.87955	0.06299
3893.95089	0.06270
3892.02224	0.06212
3890.09359	0.06144
3888.16493	0.06123
3886.23628	0.06147
3884.30763	0.06155
3882.37897	0.06139
3880.45032	0.06127
3878.52167	0.06111
3876.59301	0.06109
3874.66436	0.06146
3872.73571	0.06170
3870.80705	0.06160
3868.87840	0.06154
3866.94975	0.06170
3865.02109	0.06202
3863.09244	0.06224
3861.16379	0.06205
3859.23513	0.06159
3857.30648	0.06128
3855.37783	0.06128
3853.44917	0.06137
3851.52052	0.06119
3849.59187	0.06075
3847.66321	0.06056
3845.73456	0.06079
3843.80591	0.06083
3841.87725	0.06037
3839.94860	0.06010
3838.01995	0.06034
3836.09129	0.06041
3834.16264	0.06026
3832.23399	0.06034
3830.30534	0.06029
3828.37668	0.05969
3826.44803	0.05908
3824.51938	0.05909
3822.59072	0.05950
3820.66207	0.05964
3818.73342	0.05932
3816.80476	0.05906
3814.87611	0.05920
3812.94746	0.05957
3811.01880	0.05987
3809.09015	0.05967
3807.16150	0.05877
3805.23284	0.05784
3803.30419	0.05776
3801.37554	0.05830
3799.44688	0.05855
3797.51823	0.05813
3795.58958	0.05741
3793.66092	0.05724
3791.73227	0.05780
3789.80362	0.05802
3787.87496	0.05734
3785.94631	0.05634
3784.01766	0.05597
3782.08900	0.05659
3780.16035	0.05710
3778.23170	0.05669
3776.30304	0.05614
3774.37439	0.05603
3772.44574	0.05616
3770.51708	0.05632
3768.58843	0.05611
3766.65978	0.05562
3764.73112	0.05567
3762.80247	0.05625
3760.87382	0.05654
3758.94517	0.05638
3757.01651	0.05598
3755.08786	0.05539
3753.15921	0.05514
3751.23055	0.05571
3749.30190	0.05644
3747.37325	0.05679
3745.44459	0.05683
3743.51594	0.05637
3741.58729	0.05574
3739.65863	0.05574
3737.72998	0.05620
3735.80133	0.05622
3733.87267	0.05550
3731.94402	0.05465
3730.01537	0.05415
3728.08671	0.05426
3726.15806	0.05448
3724.22941	0.05440
3722.30075	0.05426
3720.37210	0.05417
3718.44345	0.05392
3716.51479	0.05360
3714.58614	0.05357
3712.65749	0.05362
3710.72883	0.05333
3708.80018	0.05275
3706.87153	0.05217
3704.94287	0.05212
3703.01422	0.05280
3701.08557	0.05346
3699.15691	0.05347
3697.22826	0.05333
3695.29961	0.05344
3693.37095	0.05359
3691.44230	0.05340
3689.51365	0.05303
3687.58500	0.05294
3685.65634	0.05299
3683.72769	0.05282
3681.79904	0.05277
3679.87038	0.05363
3677.94173	0.05510
3676.01308	0.05573
3674.08442	0.05515
3672.15577	0.05459
3670.22712	0.05477
3668.29846	0.05522
3666.36981	0.05583
3664.44116	0.05671
3662.51250	0.05740
3660.58385	0.05790
3658.65520	0.05865
3656.72654	0.05939
3654.79789	0.05978
3652.86924	0.06016
3650.94058	0.06073
3649.01193	0.06143
3647.08328	0.06223
3645.15462	0.06305
3643.22597	0.06367
3641.29732	0.06421
3639.36866	0.06499
3637.44001	0.06582
3635.51136	0.06651
3633.58270	0.06727
3631.65405	0.06852
3629.72540	0.06986
3627.79674	0.07053
3625.86809	0.07064
3623.93944	0.07079
3622.01079	0.07105
3620.08213	0.07184
3618.15348	0.07318
3616.22483	0.07472
3614.29617	0.07617
3612.36752	0.07703
3610.43887	0.07740
3608.51021	0.07774
3606.58156	0.07835
3604.65291	0.07947
3602.72425	0.08092
3600.79560	0.08189
3598.86695	0.08257
3596.93829	0.08378
3595.00964	0.08538
3593.08099	0.08674
3591.15233	0.08772
3589.22368	0.08850
3587.29503	0.08930
3585.36637	0.09045
3583.43772	0.09213
3581.50907	0.09381
3579.58041	0.09521
3577.65176	0.09660
3575.72311	0.09800
3573.79445	0.09926
3571.86580	0.10042
3569.93715	0.10178
3568.00849	0.10339
3566.07984	0.10462
3564.15119	0.10529
3562.22253	0.10636
3560.29388	0.10822
3558.36523	0.11002
3556.43657	0.11118
3554.50792	0.11193
3552.57927	0.11268
3550.65062	0.11372
3548.72196	0.11521
3546.79331	0.11725
3544.86466	0.11960
3542.93600	0.12152
3541.00735	0.12286
3539.07870	0.12417
3537.15004	0.12552
3535.22139	0.12670
3533.29274	0.12789
3531.36408	0.12919
3529.43543	0.13047
3527.50678	0.13182
3525.57812	0.13337
3523.64947	0.13493
3521.72082	0.13631
3519.79216	0.13745
3517.86351	0.13844
3515.93486	0.13956
3514.00620	0.14090
3512.07755	0.14237
3510.14890	0.14385
3508.22024	0.14508
3506.29159	0.14603
3504.36294	0.14710
3502.43428	0.14842
3500.50563	0.14963
3498.57698	0.15050
3496.64832	0.15100
3494.71967	0.15128
3492.79102	0.15211
3490.86236	0.15387
3488.93371	0.15579
3487.00506	0.15710
3485.07641	0.15787
3483.14775	0.15848
3481.21910	0.15939
3479.29045	0.16060
3477.36179	0.16178
3475.43314	0.16284
3473.50449	0.16390
3471.57583	0.16504
3469.64718	0.16615
3467.71853	0.16703
3465.78987	0.16785
3463.86122	0.16894
3461.93257	0.17008
3460.00391	0.17100
3458.07526	0.17175
3456.14661	0.17269
3454.21795	0.17414
3452.28930	0.17556
3450.36065	0.17619
3448.43199	0.17650
3446.50334	0.17741
3444.57469	0.17884
3442.64603	0.18018
3440.71738	0.18097
3438.78873	0.18114
3436.86007	0.18141
3434.93142	0.18269
3433.00277	0.18456
3431.07411	0.18599
3429.14546	0.18685
3427.21681	0.18749
3425.28815	0.18807
3423.35950	0.18883
3421.43085	0.18995
3419.50219	0.19126
3417.57354	0.19244
3415.64489	0.19322
3413.71624	0.19380
3411.78758	0.19464
3409.85893	0.19554
3407.93028	0.19616
3406.00162	0.19665
3404.07297	0.19703
3402.14432	0.19739
3400.21566	0.19814
3398.28701	0.19926
3396.35836	0.20045
3394.42970	0.20158
3392.50105	0.20256
3390.57240	0.20334
3388.64374	0.20415
3386.71509	0.20530
3384.78644	0.20675
3382.85778	0.20794
3380.92913	0.20854
3379.00048	0.20900
3377.07182	0.20978
3375.14317	0.21100
3373.21452	0.21274
3371.28586	0.21485
3369.35721	0.21671
3367.42856	0.21811
3365.49990	0.21965
3363.57125	0.22144
3361.64260	0.22311
3359.71394	0.22506
3357.78529	0.22749
3355.85664	0.22967
3353.92798	0.23157
3351.99933	0.23373
3350.07068	0.23587
3348.14202	0.23778
3346.21337	0.23985
3344.28472	0.24213
3342.35607	0.24433
3340.42741	0.24639
3338.49876	0.24837
3336.57011	0.25017
3334.64145	0.25173
3332.71280	0.25324
3330.78415	0.25500
3328.85549	0.25679
3326.92684	0.25822
3324.99819	0.25926
3323.06953	0.26015
3321.14088	0.26113
3319.21223	0.26227
3317.28357	0.26338
3315.35492	0.26424
3313.42627	0.26485
3311.49761	0.26539
3309.56896	0.26591
3307.64031	0.26621
3305.71165	0.26647
3303.78300	0.26710
3301.85435	0.26790
3299.92569	0.26817
3297.99704	0.26789
3296.06839	0.26783
3294.13973	0.26799
3292.21108	0.26788
3290.28243	0.26770
3288.35377	0.26739
3286.42512	0.26673
3284.49647	0.26605
3282.56781	0.26573
3280.63916	0.26554
3278.71051	0.26512
3276.78186	0.26438
3274.85320	0.26353
3272.92455	0.26255
3270.99590	0.26125
3269.06724	0.25990
3267.13859	0.25889
3265.20994	0.25810
3263.28128	0.25730
3261.35263	0.25625
3259.42398	0.25483
3257.49532	0.25340
3255.56667	0.25233
3253.63802	0.25171
3251.70936	0.25125
3249.78071	0.25046
3247.85206	0.24903
3245.92340	0.24738
3243.99475	0.24630
3242.06610	0.24576
3240.13744	0.24497
3238.20879	0.24379
3236.28014	0.24284
3234.35148	0.24206
3232.42283	0.24091
3230.49418	0.23969
3228.56552	0.23892
3226.63687	0.23830
3224.70822	0.23737
3222.77956	0.23607
3220.85091	0.23466
3218.92226	0.23347
3216.99360	0.23285
3215.06495	0.23282
3213.13630	0.23271
3211.20764	0.23207
3209.27899	0.23123
3207.35034	0.23023
3205.42169	0.22882
3203.49303	0.22706
3201.56438	0.22544
3199.63573	0.22438
3197.70707	0.22379
3195.77842	0.22322
3193.84977	0.22220
3191.92111	0.22058
3189.99246	0.21889
3188.06381	0.21754
3186.13515	0.21614
3184.20650	0.21442
3182.27785	0.21268
3180.34919	0.21124
3178.42054	0.21003
3176.49189	0.20863
3174.56323	0.20687
3172.63458	0.20511
3170.70593	0.20362
3168.77727	0.20218
3166.84862	0.20050
3164.91997	0.19876
3162.99131	0.19711
3161.06266	0.19530
3159.13401	0.19337
3157.20535	0.19169
3155.27670	0.19024
3153.34805	0.18872
3151.41939	0.18708
3149.49074	0.18557
3147.56209	0.18407
3145.63343	0.18247
3143.70478	0.18127
3141.77613	0.18058
3139.84748	0.17970
3137.91882	0.17837
3135.99017	0.17700
3134.06152	0.17593
3132.13286	0.17493
3130.20421	0.17386
3128.27556	0.17272
3126.34690	0.17145
3124.41825	0.17039
3122.48960	0.16997
3120.56094	0.16987
3118.63229	0.16953
3116.70364	0.16899
3114.77498	0.16873
3112.84633	0.16885
3110.91768	0.16893
3108.98902	0.16878
3107.06037	0.16860
3105.13172	0.16835
3103.20306	0.16799
3101.27441	0.16801
3099.34576	0.16859
3097.41710	0.16939
3095.48845	0.17024
3093.55980	0.17113
3091.63114	0.17188
3089.70249	0.17245
3087.77384	0.17314
3085.84518	0.17396
3083.91653	0.17468
3081.98788	0.17512
3080.05922	0.17519
3078.13057	0.17488
3076.20192	0.17429
3074.27326	0.17394
3072.34461	0.17415
3070.41596	0.17433
3068.48731	0.17400
3066.55865	0.17348
3064.63000	0.17300
3062.70135	0.17222
3060.77269	0.17121
3058.84404	0.17042
3056.91539	0.16970
3054.98673	0.16849
3053.05808	0.16686
3051.12943	0.16536
3049.20077	0.16409
3047.27212	0.16272
3045.34347	0.16126
3043.41481	0.15987
3041.48616	0.15850
3039.55751	0.15711
3037.62885	0.15594
3035.70020	0.15501
3033.77155	0.15389
3031.84289	0.15234
3029.91424	0.15072
3027.98559	0.14928
3026.05693	0.14794
3024.12828	0.14665
3022.19963	0.14560
3020.27097	0.14491
3018.34232	0.14434
3016.41367	0.14374
3014.48501	0.14322
3012.55636	0.14283
3010.62771	0.14239
3008.69905	0.14174
3006.77040	0.14116
3004.84175	0.14085
3002.91309	0.14065
3000.98444	0.14057
2999.05579	0.14072
2997.12714	0.14099
2995.19848	0.14127
2993.26983	0.14190
2991.34118	0.14287
2989.41252	0.14371
2987.48387	0.14425
2985.55522	0.14485
2983.62656	0.14583
2981.69791	0.14691
2979.76926	0.14783
2977.84060	0.14870
2975.91195	0.14957
2973.98330	0.15043
2972.05464	0.15129
2970.12599	0.15211
2968.19734	0.15297
2966.26868	0.15403
2964.34003	0.15534
2962.41138	0.15667
2960.48272	0.15752
2958.55407	0.15794
2956.62542	0.15841
2954.69676	0.15883
2952.76811	0.15889
2950.83946	0.15886
2948.91080	0.15904
2946.98215	0.15950
2945.05350	0.16038
2943.12484	0.16176
2941.19619	0.16336
2939.26754	0.16499
2937.33888	0.16674
2935.41023	0.16856
2933.48158	0.17043
2931.55293	0.17233
2929.62427	0.17388
2927.69562	0.17468
2925.76697	0.17474
2923.83831	0.17432
2921.90966	0.17357
2919.98101	0.17232
2918.05235	0.17010
2916.12370	0.16677
2914.19505	0.16273
2912.26639	0.15864
2910.33774	0.15513
2908.40909	0.15258
2906.48043	0.15051
2904.55178	0.14817
2902.62313	0.14585
2900.69447	0.14421
2898.76582	0.14311
2896.83717	0.14201
2894.90851	0.14086
2892.97986	0.13980
2891.05121	0.13887
2889.12255	0.13841
2887.19390	0.13836
2885.26525	0.13830
2883.33659	0.13816
2881.40794	0.13806
2879.47929	0.13790
2877.55063	0.13764
2875.62198	0.13751
2873.69333	0.13741
2871.76467	0.13684
2869.83602	0.13589
2867.90737	0.13488
2865.97871	0.13391
2864.05006	0.13332
2862.12141	0.13341
2860.19276	0.13386
2858.26410	0.13422
2856.33545	0.13453
2854.40680	0.13491
2852.47814	0.13495
2850.54949	0.13392
2848.62084	0.13171
2846.69218	0.12872
2844.76353	0.12547
2842.83488	0.12265
2840.90622	0.12061
2838.97757	0.11904
2837.04892	0.11753
2835.12026	0.11607
2833.19161	0.11480
2831.26296	0.11370
2829.33430	0.11288
2827.40565	0.11247
2825.47700	0.11211
2823.54834	0.11140
2821.61969	0.11062
2819.69104	0.10998
2817.76238	0.10935
2815.83373	0.10875
2813.90508	0.10833
2811.97642	0.10802
2810.04777	0.10770
2808.11912	0.10732
2806.19046	0.10683
2804.26181	0.10636
2802.33316	0.10601
2800.40450	0.10556
2798.47585	0.10489
2796.54720	0.10419
2794.61855	0.10362
2792.68989	0.10319
2790.76124	0.10296
2788.83259	0.10289
2786.90393	0.10261
2784.97528	0.10200
2783.04663	0.10141
2781.11797	0.10108
2779.18932	0.10089
2777.26067	0.10053
2775.33201	0.09988
2773.40336	0.09913
2771.47471	0.09850
2769.54605	0.09803
2767.61740	0.09769
2765.68875	0.09747
2763.76009	0.09718
2761.83144	0.09666
2759.90279	0.09614
2757.97413	0.09603
2756.04548	0.09615
2754.11683	0.09592
2752.18817	0.09530
2750.25952	0.09470
2748.33087	0.09420
2746.40221	0.09380
2744.47356	0.09354
2742.54491	0.09333
2740.61625	0.09299
2738.68760	0.09248
2736.75895	0.09195
2734.83029	0.09155
2732.90164	0.09125
2730.97299	0.09103
2729.04433	0.09089
2727.11568	0.09065
2725.18703	0.09025
2723.25838	0.08978
2721.32972	0.08931
2719.40107	0.08890
2717.47242	0.08859
2715.54376	0.08830
2713.61511	0.08802
2711.68646	0.08781
2709.75780	0.08766
2707.82915	0.08741
2705.90050	0.08699
2703.97184	0.08656
2702.04319	0.08634
2700.11454	0.08631
2698.18588	0.08618
2696.25723	0.08582
2694.32858	0.08547
2692.39992	0.08534
2690.47127	0.08534
2688.54262	0.08524
2686.61396	0.08498
2684.68531	0.08475
2682.75666	0.08457
2680.82800	0.08431
2678.89935	0.08409
2676.97070	0.08399
2675.04204	0.08395
2673.11339	0.08392
2671.18474	0.08381
2669.25608	0.08371
2667.32743	0.08368
2665.39878	0.08352
2663.47012	0.08331
2661.54147	0.08334
2659.61282	0.08344
2657.68417	0.08317
2655.75551	0.08256
2653.82686	0.08186
2651.89821	0.08130
2649.96955	0.08092
2648.04090	0.08057
2646.11225	0.08034
2644.18359	0.08029
2642.25494	0.08015
2640.32629	0.07971
2638.39763	0.07914
2636.46898	0.07858
2634.54033	0.07811
2632.61167	0.07777
2630.68302	0.07738
2628.75437	0.07692
2626.82571	0.07669
2624.89706	0.07650
2622.96841	0.07593
2621.03975	0.07525
2619.11110	0.07468
2617.18245	0.07399
2615.25379	0.07341
2613.32514	0.07327
2611.39649	0.07332
2609.46783	0.07317
2607.53918	0.07282
2605.61053	0.07243
2603.68187	0.07215
2601.75322	0.07203
2599.82457	0.07179
2597.89591	0.07127
2595.96726	0.07074
2594.03861	0.07032
2592.10995	0.07002
2590.18130	0.06965
2588.25265	0.06915
2586.32400	0.06879
2584.39534	0.06873
2582.46669	0.06875
2580.53804	0.06852
2578.60938	0.06803
2576.68073	0.06758
2574.75208	0.06727
2572.82342	0.06687
2570.89477	0.06646
2568.96612	0.06648
2567.03746	0.06673
2565.10881	0.06652
2563.18016	0.06599
2561.25150	0.06560
2559.32285	0.06535
2557.39420	0.06508
2555.46554	0.06481
2553.53689	0.06456
2551.60824	0.06416
2549.67958	0.06379
2547.75093	0.06389
2545.82228	0.06423
2543.89362	0.06431
2541.96497	0.06405
2540.03632	0.06348
2538.10766	0.06279
2536.17901	0.06240
2534.25036	0.06235
2532.32170	0.06226
2530.39305	0.06199
2528.46440	0.06170
2526.53574	0.06160
2524.60709	0.06160
2522.67844	0.06153
2520.74978	0.06135
2518.82113	0.06102
2516.89248	0.06077
2514.96383	0.06067
2513.03517	0.06041
2511.10652	0.06009
2509.17787	0.05987
2507.24921	0.05971
2505.32056	0.05965
2503.39191	0.05966
2501.46325	0.05964
2499.53460	0.05966
2497.60595	0.05977
2495.67729	0.05979
2493.74864	0.05951
2491.81999	0.05889
2489.89133	0.05816
2487.96268	0.05754
2486.03403	0.05728
2484.10537	0.05746
2482.17672	0.05768
2480.24807	0.05768
2478.31941	0.05748
2476.39076	0.05709
2474.46211	0.05668
2472.53345	0.05651
2470.60480	0.05679
2468.67615	0.05724
2466.74749	0.05740
2464.81884	0.05732
2462.89019	0.05697
2460.96153	0.05636
2459.03288	0.05603
2457.10423	0.05618
2455.17557	0.05634
2453.24692	0.05629
2451.31827	0.05602
2449.38962	0.05539
2447.46096	0.05480
2445.53231	0.05463
2443.60366	0.05465
2441.67500	0.05466
2439.74635	0.05452
2437.81770	0.05419
2435.88904	0.05407
2433.96039	0.05432
2432.03174	0.05441
2430.10308	0.05414
2428.17443	0.05392
2426.24578	0.05385
2424.31712	0.05388
2422.38847	0.05406
2420.45982	0.05411
2418.53116	0.05387
2416.60251	0.05364
2414.67386	0.05359
2412.74520	0.05348
2410.81655	0.05326
2408.88790	0.05320
2406.95924	0.05339
2405.03059	0.05364
2403.10194	0.05387
2401.17328	0.05403
2399.24463	0.05386
2397.31598	0.05359
2395.38732	0.05338
2393.45867	0.05334
2391.53002	0.05327
2389.60136	0.05307
2387.67271	0.05289
2385.74406	0.05287
2383.81540	0.05297
2381.88675	0.05310
2379.95810	0.05325
2378.02945	0.05350
2376.10079	0.05343
2374.17214	0.05337
2372.24349	0.05351
2370.31483	0.05461
2368.38618	0.05255
2366.45753	0.05125
2364.52887	0.05142
2362.60022	0.05099
2360.67157	0.05281
2358.74291	0.05482
2356.81426	0.05307
2354.88561	0.05269
2352.95695	0.05424
2351.02830	0.05452
2349.09965	0.05471
2347.17099	0.05455
2345.24234	0.05441
2343.31369	0.05373
2341.38503	0.05260
2339.45638	0.05460
2337.52773	0.05200
2335.59907	0.05207
2333.67042	0.05296
2331.74177	0.05280
2329.81311	0.05246
2327.88446	0.05281
2325.95581	0.05387
2324.02715	0.05460
2322.09850	0.05433
2320.16985	0.05347
2318.24119	0.05272
2316.31254	0.05220
2314.38389	0.05179
2312.45524	0.05139
2310.52658	0.05103
2308.59793	0.05069
2306.66928	0.05014
2304.74062	0.04961
2302.81197	0.04919
2300.88332	0.04919
2298.95466	0.04904
2297.02601	0.04845
2295.09736	0.04798
2293.16870	0.04783
2291.24005	0.04750
2289.31140	0.04698
2287.38274	0.04655
2285.45409	0.04611
2283.52544	0.04568
2281.59678	0.04541
2279.66813	0.04518
2277.73948	0.04476
2275.81082	0.04416
2273.88217	0.04378
2271.95352	0.04385
2270.02486	0.04401
2268.09621	0.04380
2266.16756	0.04321
2264.23890	0.04251
2262.31025	0.04185
2260.38160	0.04165
2258.45294	0.04194
2256.52429	0.04205
2254.59564	0.04138
2252.66698	0.04024
2250.73833	0.03951
2248.80968	0.03946
2246.88102	0.03893
2244.95237	0.03856
2243.02372	0.03849
2241.09507	0.03820
2239.16641	0.03795
2237.23776	0.03819
2235.30911	0.03848
2233.38045	0.03822
2231.45180	0.03760
2229.52315	0.03725
2227.59449	0.03716
2225.66584	0.03682
2223.73719	0.03602
2221.80853	0.03509
2219.87988	0.03459
2217.95123	0.03472
2216.02257	0.03530
2214.09392	0.03561
2212.16527	0.03511
2210.23661	0.03446
2208.30796	0.03401
2206.37931	0.03334
2204.45065	0.03251
2202.52200	0.03209
2200.59335	0.03239
2198.66469	0.03286
2196.73604	0.03287
2194.80739	0.03242
2192.87873	0.03209
2190.95008	0.03208
2189.02143	0.03185
2187.09277	0.03134
2185.16412	0.03081
2183.23547	0.03039
2181.30681	0.03083
2179.37816	0.03173
2177.44951	0.03152
2175.52085	0.03020
2173.59220	0.02889
2171.66355	0.02812
2169.73490	0.02778
2167.80624	0.02772
2165.87759	0.02814
2163.94894	0.02805
2162.02028	0.02569
2160.09163	0.02227
2158.16298	0.02113
2156.23432	0.02300
2154.30567	0.02577
2152.37702	0.02745
2150.44836	0.02798
2148.51971	0.02835
2146.59106	0.02863
2144.66240	0.02880
2142.73375	0.02941
2140.80510	0.03018
2138.87644	0.03047
2136.94779	0.03028
2135.01914	0.02983
2133.09048	0.02992
2131.16183	0.03120
2129.23318	0.03311
2127.30452	0.03472
2125.37587	0.03534
2123.44722	0.03497
2121.51856	0.03457
2119.58991	0.03474
2117.66126	0.03524
2115.73260	0.03564
2113.80395	0.03562
2111.87530	0.03524
2109.94664	0.03497
2108.01799	0.03492
2106.08934	0.03505
2104.16069	0.03532
2102.23203	0.03549
2100.30338	0.03530
2098.37473	0.03493
2096.44607	0.03452
2094.51742	0.03418
2092.58877	0.03382
2090.66011	0.03374
2088.73146	0.03418
2086.80281	0.03482
2084.87415	0.03527
2082.94550	0.03544
2081.01685	0.03532
2079.08819	0.03522
2077.15954	0.03512
2075.23089	0.03458
2073.30223	0.03369
2071.37358	0.03293
2069.44493	0.03225
2067.51627	0.03172
2065.58762	0.03192
2063.65897	0.03237
2061.73031	0.03174
2059.80166	0.03031
2057.87301	0.02928
2055.94435	0.02880
2054.01570	0.02862
2052.08705	0.02876
2050.15839	0.02911
2048.22974	0.02922
2046.30109	0.02894
2044.37243	0.02859
2042.44378	0.02787
2040.51513	0.02629
2038.58647	0.02464
2036.65782	0.02386
2034.72917	0.02363
2032.80052	0.02339
2030.87186	0.02305
2028.94321	0.02273
2027.01456	0.02291
2025.08590	0.02393
2023.15725	0.02496
2021.22860	0.02505
2019.29994	0.02437
2017.37129	0.02301
2015.44264	0.02200
2013.51398	0.02300
2011.58533	0.02435
2009.65668	0.02391
2007.72802	0.02314
2005.79937	0.02357
2003.87072	0.02484
2001.94206	0.02653
2000.01341	0.02806
1998.08476	0.02823
1996.15610	0.02691
1994.22745	0.02522
1992.29880	0.02390
1990.37014	0.02334
1988.44149	0.02381
1986.51284	0.02476
1984.58418	0.02532
1982.65553	0.02534
1980.72688	0.02545
1978.79822	0.02559
1976.86957	0.02526
1974.94092	0.02506
1973.01226	0.02513
1971.08361	0.02483
1969.15496	0.02425
1967.22631	0.02351
1965.29765	0.02305
1963.36900	0.02332
1961.44035	0.02358
1959.51169	0.02368
1957.58304	0.02427
1955.65439	0.02493
1953.72573	0.02512
1951.79708	0.02506
1949.86843	0.02524
1947.93977	0.02583
1946.01112	0.02636
1944.08247	0.02649
1942.15381	0.02701
1940.22516	0.02834
1938.29651	0.02931
1936.36785	0.02898
1934.43920	0.02823
1932.51055	0.02823
1930.58189	0.02880
1928.65324	0.02920
1926.72459	0.02911
1924.79593	0.02867
1922.86728	0.02841
1920.93863	0.02871
1919.00997	0.02921
1917.08132	0.02932
1915.15267	0.02900
1913.22401	0.02874
1911.29536	0.02895
1909.36671	0.02946
1907.43805	0.02982
1905.50940	0.02997
1903.58075	0.03007
1901.65209	0.03009
1899.72344	0.02984
1897.79479	0.02953
1895.86614	0.02957
1893.93748	0.02984
1892.00883	0.02988
1890.08018	0.02961
1888.15152	0.02940
1886.22287	0.02945
1884.29422	0.02952
1882.36556	0.02935
1880.43691	0.02899
1878.50826	0.02864
1876.57960	0.02853
1874.65095	0.02886
1872.72230	0.02933
1870.79364	0.02943
1868.86499	0.02922
1866.93634	0.02899
1865.00768	0.02889
1863.07903	0.02894
1861.15038	0.02894
1859.22172	0.02869
1857.29307	0.02840
1855.36442	0.02840
1853.43576	0.02861
1851.50711	0.02878
1849.57846	0.02876
1847.64980	0.02852
1845.72115	0.02834
1843.79250	0.02830
1841.86384	0.02829
1839.93519	0.02839
1838.00654	0.02854
1836.07788	0.02858
1834.14923	0.02858
1832.22058	0.02859
1830.29192	0.02852
1828.36327	0.02833
1826.43462	0.02827
1824.50597	0.02841
1822.57731	0.02849
1820.64866	0.02835
1818.72001	0.02804
1816.79135	0.02766
1814.86270	0.02744
1812.93405	0.02738
1811.00539	0.02741
1809.07674	0.02748
1807.14809	0.02748
1805.21943	0.02746
1803.29078	0.02753
1801.36213	0.02762
1799.43347	0.02776
1797.50482	0.02801
1795.57617	0.02822
1793.64751	0.02817
1791.71886	0.02794
1789.79021	0.02780
1787.86155	0.02777
1785.93290	0.02765
1784.00425	0.02744
1782.07559	0.02734
1780.14694	0.02739
1778.21829	0.02742
1776.28963	0.02737
1774.36098	0.02731
1772.43233	0.02726
1770.50367	0.02717
1768.57502	0.02709
1766.64637	0.02706
1764.71771	0.02713
1762.78906	0.02738
1760.86041	0.02772
1758.93176	0.02809
1757.00310	0.02854
1755.07445	0.02905
1753.14580	0.02955
1751.21714	0.03016
1749.28849	0.03096
1747.35984	0.03178
1745.43118	0.03258
1743.50253	0.03347
1741.57388	0.03453
1739.64522	0.03573
1737.71657	0.03702
1735.78792	0.03839
1733.85926	0.03972
1731.93061	0.04079
1730.00196	0.04170
1728.07330	0.04270
1726.14465	0.04388
1724.21600	0.04527
1722.28734	0.04680
1720.35869	0.04846
1718.43004	0.05030
1716.50138	0.05218
1714.57273	0.05396
1712.64408	0.05571
1710.71542	0.05754
1708.78677	0.05952
1706.85812	0.06182
1704.92946	0.06457
1703.00081	0.06788
1701.07216	0.07184
1699.14350	0.07623
1697.21485	0.08088
1695.28620	0.08575
1693.35754	0.09063
1691.42889	0.09558
1689.50024	0.10093
1687.57159	0.10681
1685.64293	0.11326
1683.71428	0.12018
1681.78563	0.12735
1679.85697	0.13492
1677.92832	0.14312
1675.99967	0.15205
1674.07101	0.16156
1672.14236	0.17142
1670.21371	0.18154
1668.28505	0.19168
1666.35640	0.20159
1664.42775	0.21135
1662.49909	0.22100
1660.57044	0.23024
1658.64179	0.23869
1656.71313	0.24610
1654.78448	0.25259
1652.85583	0.25834
1650.92717	0.26312
1648.99852	0.26703
1647.06987	0.27066
1645.14121	0.27410
1643.21256	0.27725
1641.28391	0.28025
1639.35525	0.28323
1637.42660	0.28623
1635.49795	0.28911
1633.56929	0.29144
1631.64064	0.29279
1629.71199	0.29290
1627.78333	0.29153
1625.85468	0.28850
1623.92603	0.28366
1621.99738	0.27714
1620.06872	0.26944
1618.14007	0.26098
1616.21142	0.25183
1614.28276	0.24212
1612.35411	0.23216
1610.42546	0.22212
1608.49680	0.21208
1606.56815	0.20222
1604.63950	0.19276
1602.71084	0.18384
1600.78219	0.17552
1598.85354	0.16789
1596.92488	0.16104
1594.99623	0.15498
1593.06758	0.14969
1591.13892	0.14524
1589.21027	0.14164
1587.28162	0.13890
1585.35296	0.13705
1583.42431	0.13617
1581.49566	0.13625
1579.56700	0.13730
1577.63835	0.13940
1575.70970	0.14256
1573.78104	0.14651
1571.85239	0.15116
1569.92374	0.15667
1567.99508	0.16290
1566.06643	0.16955
1564.13778	0.17642
1562.20912	0.18339
1560.28047	0.19049
1558.35182	0.19734
1556.42316	0.20335
1554.49451	0.20847
1552.56586	0.21291
1550.63721	0.21666
1548.70855	0.21969
1546.77990	0.22204
1544.85125	0.22374
1542.92259	0.22478
1540.99394	0.22512
1539.06529	0.22467
1537.13663	0.22337
1535.20798	0.22147
1533.27933	0.21925
1531.35067	0.21674
1529.42202	0.21392
1527.49337	0.21085
1525.56471	0.20757
1523.63606	0.20415
1521.70741	0.20057
1519.77875	0.19678
1517.85010	0.19274
1515.92145	0.18831
1513.99279	0.18329
1512.06414	0.17776
1510.13549	0.17206
1508.20683	0.16631
1506.27818	0.16034
1504.34953	0.15417
1502.42087	0.14819
1500.49222	0.14258
1498.56357	0.13727
1496.63491	0.13213
1494.70626	0.12712
1492.77761	0.12249
1490.84895	0.11846
1488.92030	0.11498
1486.99165	0.11211
1485.06299	0.11011
1483.13434	0.10910
1481.20569	0.10897
1479.27704	0.10963
1477.34838	0.11111
1475.41973	0.11342
1473.49108	0.11649
1471.56242	0.12010
1469.63377	0.12398
1467.70512	0.12797
1465.77646	0.13199
1463.84781	0.13594
1461.91916	0.13986
1459.99050	0.14390
1458.06185	0.14804
1456.13320	0.15179
1454.20454	0.15458
1452.27589	0.15627
1450.34724	0.15688
1448.41858	0.15650
1446.48993	0.15539
1444.56128	0.15377
1442.63262	0.15170
1440.70397	0.14930
1438.77532	0.14667
1436.84666	0.14370
1434.91801	0.14033
1432.98936	0.13693
1431.06070	0.13398
1429.13205	0.13163
1427.20340	0.12984
1425.27474	0.12859
1423.34609	0.12775
1421.41744	0.12717
1419.48878	0.12671
1417.56013	0.12639
1415.63148	0.12631
1413.70283	0.12646
1411.77417	0.12677
1409.84552	0.12717
1407.91687	0.12753
1405.98821	0.12759
1404.05956	0.12720
1402.13091	0.12638
1400.20225	0.12520
1398.27360	0.12376
1396.34495	0.12230
1394.41629	0.12106
1392.48764	0.12005
1390.55899	0.11927
1388.63033	0.11875
1386.70168	0.11843
1384.77303	0.11817
1382.84437	0.11798
1380.91572	0.11782
1378.98707	0.11756
1377.05841	0.11708
1375.12976	0.11626
1373.20111	0.11511
1371.27245	0.11373
1369.34380	0.11218
1367.41515	0.11047
1365.48649	0.10864
1363.55784	0.10683
1361.62919	0.10533
1359.70053	0.10433
1357.77188	0.10393
1355.84323	0.10421
1353.91457	0.10506
1351.98592	0.10628
1350.05727	0.10788
1348.12861	0.10994
1346.19996	0.11230
1344.27131	0.11464
1342.34266	0.11675
1340.41400	0.11852
1338.48535	0.11982
1336.55670	0.12043
1334.62804	0.12019
1332.69939	0.11912
1330.77074	0.11741
1328.84208	0.11536
1326.91343	0.11330
1324.98478	0.11153
1323.05612	0.11017
1321.12747	0.10914
1319.19882	0.10826
1317.27016	0.10748
1315.34151	0.10681
1313.41286	0.10615
1311.48420	0.10535
1309.55555	0.10452
1307.62690	0.10392
1305.69824	0.10360
1303.76959	0.10341
1301.84094	0.10324
1299.91228	0.10305
1297.98363	0.10292
1296.05498	0.10310
1294.12632	0.10385
1292.19767	0.10509
1290.26902	0.10658
1288.34036	0.10814
1286.41171	0.10961
1284.48306	0.11089
1282.55440	0.11192
1280.62575	0.11265
1278.69710	0.11303
1276.76845	0.11310
1274.83979	0.11299
1272.91114	0.11293
1270.98249	0.11306
1269.05383	0.11344
1267.12518	0.11410
1265.19653	0.11504
1263.26787	0.11619
1261.33922	0.11749
1259.41057	0.11898
1257.48191	0.12063
1255.55326	0.12243
1253.62461	0.12452
1251.69595	0.12696
1249.76730	0.12965
1247.83865	0.13243
1245.90999	0.13521
1243.98134	0.13796
1242.05269	0.14051
1240.12403	0.14263
1238.19538	0.14416
1236.26673	0.14490
1234.33807	0.14476
1232.40942	0.14381
1230.48077	0.14215
1228.55211	0.13983
1226.62346	0.13685
1224.69481	0.13336
1222.76615	0.12969
1220.83750	0.12623
1218.90885	0.12324
1216.98019	0.12084
1215.05154	0.11918
1213.12289	0.11834
1211.19423	0.11828
1209.26558	0.11881
1207.33693	0.11968
1205.40828	0.12060
1203.47962	0.12123
1201.55097	0.12114
1199.62232	0.12000
1197.69366	0.11818
1195.76501	0.11590
1193.83636	0.11345
1191.90770	0.11107
1189.97905	0.10887
1188.05040	0.10687
1186.12174	0.10508
1184.19309	0.10359
1182.26444	0.10243
1180.33578	0.10157
1178.40713	0.10091
1176.47848	0.10036
1174.54982	0.09992
1172.62117	0.09956
1170.69252	0.09926
1168.76386	0.09903
1166.83521	0.09889
1164.90656	0.09887
1162.97790	0.09890
1161.04925	0.09871
1159.12060	0.09800
1157.19194	0.09687
1155.26329	0.09554
1153.33464	0.09404
1151.40598	0.09237
1149.47733	0.09065
1147.54868	0.08900
1145.62002	0.08742
1143.69137	0.08600
1141.76272	0.08482
1139.83406	0.08381
1137.90541	0.08292
1135.97676	0.08218
1134.04811	0.08152
1132.11945	0.08099
1130.19080	0.08070
1128.26215	0.08058
1126.33349	0.08040
1124.40484	0.08012
1122.47619	0.07992
1120.54753	0.07981
1118.61888	0.07976
1116.69023	0.07969
1114.76157	0.07950
1112.83292	0.07931
1110.90427	0.07931
1108.97561	0.07948
1107.04696	0.07971
1105.11831	0.08002
1103.18965	0.08043
1101.26100	0.08101
1099.33235	0.08164
1097.40369	0.08220
1095.47504	0.08277
1093.54639	0.08356
1091.61773	0.08468
1089.68908	0.08620
1087.76043	0.08809
1085.83177	0.09017
1083.90312	0.09212
1081.97447	0.09353
1080.04581	0.09412
1078.11716	0.09393
1076.18851	0.09335
1074.25985	0.09260
1072.33120	0.09167
1070.40255	0.09072
1068.47390	0.09005
1066.54524	0.08976
1064.61659	0.08967
1062.68794	0.08957
1060.75928	0.08930
1058.83063	0.08869
1056.90198	0.08780
1054.97332	0.08689
1053.04467	0.08614
1051.11602	0.08552
1049.18736	0.08492
1047.25871	0.08436
1045.33006	0.08396
1043.40140	0.08380
1041.47275	0.08384
1039.54410	0.08418
1037.61544	0.08498
1035.68679	0.08619
1033.75814	0.08740
1031.82948	0.08808
1029.90083	0.08792
1027.97218	0.08695
1026.04352	0.08547
1024.11487	0.08380
1022.18622	0.08224
1020.25756	0.08096
1018.32891	0.08001
1016.40026	0.07931
1014.47160	0.07857
1012.54295	0.07759
1010.61430	0.07646
1008.68564	0.07527
1006.75699	0.07404
1004.82834	0.07280
1002.89968	0.07162
1000.97103	0.07055
999.04238	0.06962
997.11373	0.06880
995.18507	0.06801
993.25642	0.06719
991.32777	0.06640
989.39911	0.06574
987.47046	0.06517
985.54181	0.06464
983.61315	0.06429
981.68450	0.06419
979.75585	0.06426
977.82719	0.06451
975.89854	0.06486
973.96989	0.06505
972.04123	0.06497
970.11258	0.06477
968.18393	0.06457
966.25527	0.06426
964.32662	0.06371
962.39797	0.06313
960.46931	0.06268
958.54066	0.06233
956.61201	0.06199
954.68335	0.06168
952.75470	0.06151
950.82605	0.06147
948.89739	0.06147
946.96874	0.06149
945.04009	0.06161
943.11143	0.06184
941.18278	0.06204
939.25413	0.06213
937.32547	0.06216
935.39682	0.06216
933.46817	0.06204
931.53952	0.06173
929.61086	0.06122
927.68221	0.06075
925.75356	0.06056
923.82490	0.06049
921.89625	0.06032
919.96760	0.05995
918.03894	0.05930
916.11029	0.05857
914.18164	0.05800
912.25298	0.05740
910.32433	0.05670
908.39568	0.05623
906.46702	0.05606
904.53837	0.05590
902.60972	0.05560
900.68106	0.05527
898.75241	0.05504
896.82376	0.05490
894.89510	0.05460
892.96645	0.05405
891.03780	0.05350
889.10914	0.05325
887.18049	0.05340
885.25184	0.05369
883.32318	0.05398
881.39453	0.05426
879.46588	0.05445
877.53722	0.05461
875.60857	0.05485
873.67992	0.05507
871.75126	0.05512
869.82261	0.05500
867.89396	0.05475
865.96530	0.05444
864.03665	0.05416
862.10800	0.05395
860.17935	0.05371
858.25069	0.05347
856.32204	0.05341
854.39339	0.05354
852.46473	0.05366
850.53608	0.05354
848.60743	0.05310
846.67877	0.05261
844.75012	0.05234
842.82147	0.05215
840.89281	0.05182
838.96416	0.05146
837.03551	0.05120
835.10685	0.05108
833.17820	0.05104
831.24955	0.05097
829.32089	0.05097
827.39224	0.05112
825.46359	0.05138
823.53493	0.05160
821.60628	0.05181
819.67763	0.05216
817.74897	0.05259
815.82032	0.05293
813.89167	0.05326
811.96301	0.05364
810.03436	0.05394
808.10571	0.05405
806.17705	0.05405
804.24840	0.05412
802.31975	0.05440
800.39109	0.05490
798.46244	0.05548
796.53379	0.05583
794.60513	0.05586
792.67648	0.05587
790.74783	0.05614
788.81918	0.05664
786.89052	0.05721
784.96187	0.05770
783.03322	0.05806
781.10456	0.05839
779.17591	0.05881
777.24726	0.05918
775.31860	0.05934
773.38995	0.05938
771.46130	0.05936
769.53264	0.05944
767.60399	0.05979
765.67534	0.06030
763.74668	0.06082
761.81803	0.06139
759.88938	0.06207
757.96072	0.06282
756.03207	0.06340
754.10342	0.06361
752.17476	0.06376
750.24611	0.06415
748.31746	0.06465
746.38880	0.06502
744.46015	0.06527
742.53150	0.06556
740.60284	0.06599
738.67419	0.06648
736.74554	0.06705
734.81688	0.06763
732.88823	0.06822
730.95958	0.06917
729.03092	0.07034
727.10227	0.07115
725.17362	0.07159
723.24497	0.07184
721.31631	0.07252
719.38766	0.07322
717.45901	0.07387
715.53035	0.07441
713.60170	0.07477
711.67305	0.07513
709.74439	0.07565
707.81574	0.07628
705.88709	0.07690
703.95843	0.07750
702.02978	0.07810
700.10113	0.07868
698.17247	0.07910
696.24382	0.07933
694.31517	0.07945
692.38651	0.07956
690.45786	0.07981
688.52921	0.08005
686.60055	0.08046
684.67190	0.08096
682.74325	0.08140
680.81459	0.08178
678.88594	0.08197
676.95729	0.08236
675.02863	0.08292
673.09998	0.08346
671.17133	0.08386
669.24267	0.08431
667.31402	0.08472
665.38537	0.08499
663.45671	0.08513
661.52806	0.08543
659.59941	0.08582
657.67075	0.08609
655.74210	0.08645
653.81345	0.08696
651.88480	0.08758
649.95614	0.08796
648.02749	0.08769
646.09884	0.08713
644.17018	0.08719
642.24153	0.08776
640.31288	0.08831
638.38422	0.08882
636.45557	0.08919
634.52692	0.08920
632.59826	0.08889
630.66961	0.08809
628.74096	0.08626
626.81230	0.08821
624.88365	0.09122
622.95500	0.09309
621.02634	0.09311
619.09769	0.09154
617.16904	0.08769
615.24038	0.08281
613.31173	0.08214
611.38308	0.08663
609.45442	0.08934
607.52577	0.08905
605.59712	0.09018
603.66846	0.09182
601.73981	0.09186
599.81116	0.09093
597.88250	0.09002
595.95385	0.08949
594.02520	0.08939
592.09654	0.08964
590.16789	0.09004
588.23924	0.09034
586.31059	0.09059
584.38193	0.09096
582.45328	0.09127
580.52463	0.09123
578.59597	0.09087
576.66732	0.09040
574.73867	0.09000
572.81001	0.09016
570.88136	0.09110
568.95271	0.09215
567.02405	0.09263
565.09540	0.09277
563.16675	0.09285
561.23809	0.09300
559.30944	0.09342
557.38079	0.09368
555.45213	0.09336
553.52348	0.09304
551.59483	0.09308
549.66617	0.09289
547.73752	0.09229
545.80887	0.09165
543.88021	0.09110
541.95156	0.09066
540.02291	0.09049
538.09425	0.09061
536.16560	0.09097
534.23695	0.09139
532.30829	0.09165
530.37964	0.09191
528.45099	0.09236
526.52233	0.09260
524.59368	0.09236
522.66503	0.09202
520.73637	0.09162
518.80772	0.09096
516.87907	0.09018
514.95042	0.08940
513.02176	0.08879
511.09311	0.08854
509.16446	0.08840
507.23580	0.08821
505.30715	0.08807
503.37850	0.08754
501.44984	0.08650
499.52119	0.08578
497.59254	0.08575
495.66388	0.08570
493.73523	0.08515
491.80658	0.08444
489.87792	0.08393
487.94927	0.08357
486.02062	0.08319
484.09196	0.08279
482.16331	0.08243
480.23466	0.08211
478.30600	0.08165
476.37735	0.08108
474.44870	0.08060
472.52004	0.08036
470.59139	0.08036
468.66274	0.08040
466.73408	0.08021
464.80543	0.07974
462.87678	0.07911
460.94812	0.07851
459.01947	0.07799
457.09082	0.07748
455.16216	0.07695
453.23351	0.07629
451.30486	0.07547
449.37620	0.07462
447.44755	0.07397
445.51890	0.07348
443.59025	0.07290
441.66159	0.07217
439.73294	0.07153
437.80429	0.07110
435.87563	0.07074
433.94698	0.07032
432.01833	0.06980
430.08967	0.06927
428.16102	0.06878
426.23237	0.06828
424.30371	0.06773
422.37506	0.06731
420.44641	0.06698
418.51775	0.06647
416.58910	0.06582
414.66045	0.06530
412.73179	0.06497
410.80314	0.06467
408.87449	0.06436
406.94583	0.06417
405.01718	0.06394
403.08853	0.06353
401.15987	0.06310
399.23122	0.06271
