3997.45528	0.04090
3996.16951	0.04109
3994.88374	0.04144
3993.59798	0.04190
3992.31221	0.04234
3991.02644	0.04261
3989.74067	0.04265
3988.45490	0.04259
3987.16913	0.04257
3985.88336	0.04256
3984.59759	0.04237
3983.31183	0.04191
3982.02606	0.04137
3980.74029	0.04097
3979.45452	0.04075
3978.16875	0.04060
3976.88298	0.04048
3975.59721	0.04044
3974.31144	0.04052
3973.02567	0.04071
3971.73991	0.04095
3970.45414	0.04131
3969.16837	0.04188
3967.88260	0.04262
3966.59683	0.04323
3965.31106	0.04335
3964.02529	0.04289
3962.73952	0.04209
3961.45376	0.04128
3960.16799	0.04068
3958.88222	0.04043
3957.59645	0.04051
3956.31068	0.04069
3955.02491	0.04057
3953.73914	0.03994
3952.45337	0.03904
3951.16760	0.03843
3949.88184	0.03843
3948.59607	0.03882
3947.31030	0.03908
3946.02453	0.03896
3944.73876	0.03860
3943.45299	0.03829
3942.16722	0.03822
3940.88145	0.03844
3939.59569	0.03888
3938.30992	0.03933
3937.02415	0.03954
3935.73838	0.03943
3934.45261	0.03919
3933.16684	0.03907
3931.88107	0.03914
3930.59530	0.03926
3929.30953	0.03923
3928.02377	0.03904
3926.73800	0.03885
3925.45223	0.03886
3924.16646	0.03905
3922.88069	0.03923
3921.59492	0.03929
3920.30915	0.03924
3919.02338	0.03902
3917.73762	0.03855
3916.45185	0.03794
3915.16608	0.03750
3913.88031	0.03740
3912.59454	0.03748
3911.30877	0.03753
3910.02300	0.03751
3908.73723	0.03745
3907.45146	0.03726
3906.16570	0.03702
3904.87993	0.03710
3903.59416	0.03771
3902.30839	0.03857
3901.02262	0.03914
3899.73685	0.03926
3898.45108	0.03910
3897.16531	0.03874
3895.87955	0.03808
3894.59378	0.03715
3893.30801	0.03637
3892.02224	0.03615
3890.73647	0.03654
3889.45070	0.03715
3888.16493	0.03760
3886.87916	0.03774
3885.59339	0.03769
3884.30763	0.03764
3883.02186	0.03781
3881.73609	0.03826
3880.45032	0.03892
3879.16455	0.03947
3877.87878	0.03964
3876.59301	0.03940
3875.30724	0.03897
3874.02148	0.03857
3872.73571	0.03820
3871.44994	0.03780
3870.16417	0.03754
3868.87840	0.03767
3867.59263	0.03819
3866.30686	0.03873
3865.02109	0.03894
3863.73532	0.03884
3862.44956	0.03864
3861.16379	0.03852
3859.87802	0.03838
3858.59225	0.03810
3857.30648	0.03770
3856.02071	0.03739
3854.73494	0.03731
3853.44917	0.03747
3852.16341	0.03768
3850.87764	0.03773
3849.59187	0.03760
3848.30610	0.03747
3847.02033	0.03759
3845.73456	0.03803
3844.44879	0.03859
3843.16302	0.03886
3841.87725	0.03860
3840.59149	0.03791
3839.30572	0.03714
3838.01995	0.03658
3836.73418	0.03626
3835.44841	0.03602
3834.16264	0.03588
3832.87687	0.03602
3831.59110	0.03642
3830.30534	0.03667
3829.01957	0.03636
3827.73380	0.03558
3826.44803	0.03488
3825.16226	0.03480
3823.87649	0.03542
3822.59072	0.03642
3821.30495	0.03732
3820.01918	0.03773
3818.73342	0.03758
3817.44765	0.03713
3816.16188	0.03679
3814.87611	0.03679
3813.59034	0.03696
3812.30457	0.03698
3811.01880	0.03671
3809.73303	0.03625
3808.44726	0.03580
3807.16150	0.03545
3805.87573	0.03526
3804.58996	0.03528
3803.30419	0.03549
3802.01842	0.03576
3800.73265	0.03600
3799.44688	0.03623
3798.16111	0.03644
3796.87535	0.03650
3795.58958	0.03631
3794.30381	0.03601
3793.01804	0.03585
3791.73227	0.03595
3790.44650	0.03615
3789.16073	0.03621
3787.87496	0.03610
3786.58919	0.03596
3785.30343	0.03589
3784.01766	0.03584
3782.73189	0.03573
3781.44612	0.03564
3780.16035	0.03566
3778.87458	0.03572
3777.58881	0.03572
3776.30304	0.03564
3775.01728	0.03556
3773.73151	0.03546
3772.44574	0.03522
3771.15997	0.03482
3769.87420	0.03451
3768.58843	0.03453
3767.30266	0.03487
3766.01689	0.03524
3764.73112	0.03531
3763.44536	0.03495
3762.15959	0.03423
3760.87382	0.03352
3759.58805	0.03321
3758.30228	0.03339
3757.01651	0.03374
3755.73074	0.03390
3754.44497	0.03382
3753.15921	0.03375
3751.87344	0.03392
3750.58767	0.03437
3749.30190	0.03503
3748.01613	0.03572
3746.73036	0.03625
3745.44459	0.03646
3744.15882	0.03637
3742.87305	0.03614
3741.58729	0.03584
3740.30152	0.03550
3739.01575	0.03510
3737.72998	0.03471
3736.44421	0.03435
3735.15844	0.03401
3733.87267	0.03365
3732.58690	0.03336
3731.30114	0.03332
3730.01537	0.03358
3728.72960	0.03396
3727.44383	0.03421
3726.15806	0.03422
3724.87229	0.03403
3723.58652	0.03372
3722.30075	0.03325
3721.01498	0.03266
3719.72922	0.03209
3718.44345	0.03175
3717.15768	0.03170
3715.87191	0.03184
3714.58614	0.03193
3713.30037	0.03178
3712.01460	0.03137
3710.72883	0.03099
3709.44307	0.03104
3708.15730	0.03166
3706.87153	0.03252
3705.58576	0.03310
3704.29999	0.03320
3703.01422	0.03314
3701.72845	0.03329
3700.44268	0.03370
3699.15691	0.03399
3697.87115	0.03392
3696.58538	0.03356
3695.29961	0.03323
3694.01384	0.03311
3692.72807	0.03315
3691.44230	0.03315
3690.15653	0.03303
3688.87076	0.03290
3687.58500	0.03291
3686.29923	0.03307
3685.01346	0.03328
3683.72769	0.03347
3682.44192	0.03358
3681.15615	0.03360
3679.87038	0.03358
3678.58461	0.03359
3677.29884	0.03362
3676.01308	0.03360
3674.72731	0.03350
3673.44154	0.03347
3672.15577	0.03370
3670.87000	0.03424
3669.58423	0.03492
3668.29846	0.03543
3667.01269	0.03546
3665.72693	0.03499
3664.44116	0.03428
3663.15539	0.03383
3661.86962	0.03397
3660.58385	0.03470
3659.29808	0.03568
3658.01231	0.03648
3656.72654	0.03681
3655.44077	0.03661
3654.15501	0.03612
3652.86924	0.03568
3651.58347	0.03558
3650.29770	0.03594
3649.01193	0.03659
3647.72616	0.03724
3646.44039	0.03771
3645.15462	0.03799
3643.86886	0.03817
3642.58309	0.03826
3641.29732	0.03818
3640.01155	0.03797
3638.72578	0.03773
3637.44001	0.03762
3636.15424	0.03768
3634.86847	0.03784
3633.58270	0.03795
3632.29694	0.03797
3631.01117	0.03806
3629.72540	0.03852
3628.43963	0.03952
3627.15386	0.04087
3625.86809	0.04222
3624.58232	0.04326
3623.29655	0.04384
3622.01079	0.04403
3620.72502	0.04398
3619.43925	0.04388
3618.15348	0.04376
3616.86771	0.04350
3615.58194	0.04306
3614.29617	0.04267
3613.01040	0.04267
3611.72463	0.04321
3610.43887	0.04414
3609.15310	0.04527
3607.86733	0.04659
3606.58156	0.04807
3605.29579	0.04950
3604.01002	0.05054
3602.72425	0.05100
3601.43848	0.05091
3600.15272	0.05052
3598.86695	0.05017
3597.58118	0.05025
3596.29541	0.05089
3595.00964	0.05186
3593.72387	0.05274
3592.43810	0.05338
3591.15233	0.05384
3589.86656	0.05422
3588.58080	0.05442
3587.29503	0.05436
3586.00926	0.05412
3584.72349	0.05399
3583.43772	0.05421
3582.15195	0.05490
3580.86618	0.05593
3579.58041	0.05709
3578.29464	0.05818
3577.00888	0.05904
3575.72311	0.05968
3574.43734	0.06022
3573.15157	0.06085
3571.86580	0.06171
3570.58003	0.06262
3569.29426	0.06326
3568.00849	0.06344
3566.72273	0.06342
3565.43696	0.06361
3564.15119	0.06411
3562.86542	0.06460
3561.57965	0.06478
3560.29388	0.06471
3559.00811	0.06477
3557.72234	0.06523
3556.43657	0.06597
3555.15081	0.06657
3553.86504	0.06676
3552.57927	0.06676
3551.29350	0.06705
3550.00773	0.06792
3548.72196	0.06915
3547.43619	0.07024
3546.15042	0.07089
3544.86466	0.07119
3543.57889	0.07145
3542.29312	0.07193
3541.00735	0.07268
3539.72158	0.07355
3538.43581	0.07430
3537.15004	0.07476
3535.86427	0.07499
3534.57850	0.07527
3533.29274	0.07585
3532.00697	0.07669
3530.72120	0.07755
3529.43543	0.07827
3528.14966	0.07883
3526.86389	0.07925
3525.57812	0.07954
3524.29235	0.07975
3523.00659	0.07995
3521.72082	0.08016
3520.43505	0.08038
3519.14928	0.08071
3517.86351	0.08131
3516.57774	0.08223
3515.29197	0.08322
3514.00620	0.08398
3512.72043	0.08438
3511.43467	0.08446
3510.14890	0.08437
3508.86313	0.08427
3507.57736	0.08435
3506.29159	0.08479
3505.00582	0.08566
3503.72005	0.08687
3502.43428	0.08818
3501.14852	0.08927
3499.86275	0.08984
3498.57698	0.08983
3497.29121	0.08950
3496.00544	0.08927
3494.71967	0.08945
3493.43390	0.08999
3492.14813	0.09066
3490.86236	0.09118
3489.57660	0.09142
3488.29083	0.09143
3487.00506	0.09138
3485.71929	0.09152
3484.43352	0.09205
3483.14775	0.09302
3481.86198	0.09419
3480.57621	0.09515
3479.29045	0.09558
3478.00468	0.09556
3476.71891	0.09546
3475.43314	0.09554
3474.14737	0.09583
3472.86160	0.09621
3471.57583	0.09662
3470.29006	0.09713
3469.00429	0.09773
3467.71853	0.09831
3466.43276	0.09871
3465.14699	0.09890
3463.86122	0.09901
3462.57545	0.09920
3461.28968	0.09956
3460.00391	0.10005
3458.71814	0.10058
3457.43238	0.10100
3456.14661	0.10122
3454.86084	0.10121
3453.57507	0.10102
3452.28930	0.10083
3451.00353	0.10087
3449.71776	0.10129
3448.43199	0.10205
3447.14622	0.10287
3445.86046	0.10348
3444.57469	0.10382
3443.28892	0.10405
3442.00315	0.10428
3440.71738	0.10447
3439.43161	0.10453
3438.14584	0.10449
3436.86007	0.10456
3435.57431	0.10491
3434.28854	0.10552
3433.00277	0.10616
3431.71700	0.10669
3430.43123	0.10720
3429.14546	0.10780
3427.85969	0.10843
3426.57392	0.10888
3425.28815	0.10904
3424.00239	0.10900
3422.71662	0.10901
3421.43085	0.10925
3420.14508	0.10971
3418.85931	0.11020
3417.57354	0.11056
3416.28777	0.11083
3415.00200	0.11122
3413.71624	0.11183
3412.43047	0.11256
3411.14470	0.11319
3409.85893	0.11363
3408.57316	0.11396
3407.28739	0.11431
3406.00162	0.11474
3404.71585	0.11522
3403.43008	0.11561
3402.14432	0.11570
3400.85855	0.11534
3399.57278	0.11464
3398.28701	0.11401
3397.00124	0.11386
3395.71547	0.11436
3394.42970	0.11536
3393.14393	0.11653
3391.85817	0.11755
3390.57240	0.11821
3389.28663	0.11846
3388.00086	0.11846
3386.71509	0.11848
3385.42932	0.11874
3384.14355	0.11926
3382.85778	0.11984
3381.57201	0.12030
3380.28625	0.12065
3379.00048	0.12096
3377.71471	0.12130
3376.42894	0.12163
3375.14317	0.12192
3373.85740	0.12224
3372.57163	0.12272
3371.28586	0.12341
3370.00010	0.12425
3368.71433	0.12510
3367.42856	0.12598
3366.14279	0.12698
3364.85702	0.12812
3363.57125	0.12928
3362.28548	0.13029
3360.99971	0.13117
3359.71394	0.13205
3358.42818	0.13307
3357.14241	0.13415
3355.85664	0.13518
3354.57087	0.13605
3353.28510	0.13676
3351.99933	0.13740
3350.71356	0.13806
3349.42779	0.13876
3348.14202	0.13943
3346.85626	0.13995
3345.57049	0.14033
3344.28472	0.14079
3342.99895	0.14158
3341.71318	0.14268
3340.42741	0.14384
3339.14164	0.14471
3337.85587	0.14521
3336.57011	0.14554
3335.28434	0.14599
3333.99857	0.14671
3332.71280	0.14756
3331.42703	0.14831
3330.14126	0.14887
3328.85549	0.14929
3327.56972	0.14966
3326.28395	0.15005
3324.99819	0.15042
3323.71242	0.15078
3322.42665	0.15116
3321.14088	0.15162
3319.85511	0.15217
3318.56934	0.15276
3317.28357	0.15323
3315.99780	0.15353
3314.71204	0.15378
3313.42627	0.15415
3312.14050	0.15470
3310.85473	0.15526
3309.56896	0.15561
3308.28319	0.15580
3306.99742	0.15608
3305.71165	0.15662
3304.42588	0.15728
3303.14012	0.15771
3301.85435	0.15770
3300.56858	0.15739
3299.28281	0.15707
3297.99704	0.15695
3296.71127	0.15706
3295.42550	0.15729
3294.13973	0.15754
3292.85397	0.15775
3291.56820	0.15793
3290.28243	0.15803
3288.99666	0.15800
3287.71089	0.15785
3286.42512	0.15769
3285.13935	0.15758
3283.85358	0.15750
3282.56781	0.15738
3281.28205	0.15715
3279.99628	0.15682
3278.71051	0.15644
3277.42474	0.15609
3276.13897	0.15587
3274.85320	0.15579
3273.56743	0.15575
3272.28166	0.15564
3270.99590	0.15539
3269.71013	0.15502
3268.42436	0.15458
3267.13859	0.15401
3265.85282	0.15324
3264.56705	0.15234
3263.28128	0.15151
3261.99551	0.15089
3260.70974	0.15040
3259.42398	0.14985
3258.13821	0.14924
3256.85244	0.14873
3255.56667	0.14845
3254.28090	0.14829
3252.99513	0.14809
3251.70936	0.14781
3250.42359	0.14754
3249.13783	0.14738
3247.85206	0.14729
3246.56629	0.14717
3245.28052	0.14692
3243.99475	0.14645
3242.70898	0.14573
3241.42321	0.14483
3240.13744	0.14398
3238.85167	0.14337
3237.56591	0.14294
3236.28014	0.14249
3234.99437	0.14191
3233.70860	0.14133
3232.42283	0.14093
3231.13706	0.14072
3229.85129	0.14053
3228.56552	0.14021
3227.27976	0.13977
3225.99399	0.13930
3224.70822	0.13895
3223.42245	0.13886
3222.13668	0.13910
3220.85091	0.13955
3219.56514	0.13991
3218.27937	0.13993
3216.99360	0.13954
3215.70784	0.13884
3214.42207	0.13809
3213.13630	0.13748
3211.85053	0.13711
3210.56476	0.13696
3209.27899	0.13695
3207.99322	0.13701
3206.70745	0.13697
3205.42169	0.13665
3204.13592	0.13597
3202.85015	0.13512
3201.56438	0.13431
3200.27861	0.13362
3198.99284	0.13302
3197.70707	0.13243
3196.42130	0.13186
3195.13553	0.13139
3193.84977	0.13112
3192.56400	0.13104
3191.27823	0.13094
3189.99246	0.13059
3188.70669	0.12993
3187.42092	0.12913
3186.13515	0.12843
3184.84938	0.12795
3183.56362	0.12762
3182.27785	0.12729
3180.99208	0.12685
3179.70631	0.12630
3178.42054	0.12562
3177.13477	0.12483
3175.84900	0.12393
3174.56323	0.12306
3173.27746	0.12236
3171.99170	0.12192
3170.70593	0.12167
3169.42016	0.12144
3168.13439	0.12102
3166.84862	0.12032
3165.56285	0.11948
3164.27708	0.11878
3162.99131	0.11844
3161.70555	0.11841
3160.41978	0.11840
3159.13401	0.11819
3157.84824	0.11769
3156.56247	0.11698
3155.27670	0.11609
3153.99093	0.11506
3152.70516	0.11401
3151.41939	0.11312
3150.13363	0.11248
3148.84786	0.11204
3147.56209	0.11166
3146.27632	0.11120
3144.99055	0.11064
3143.70478	0.10998
3142.41901	0.10927
3141.13324	0.10859
3139.84748	0.10805
3138.56171	0.10771
3137.27594	0.10750
3135.99017	0.10734
3134.70440	0.10719
3133.41863	0.10703
3132.13286	0.10678
3130.84709	0.10636
3129.56132	0.10584
3128.27556	0.10538
3126.98979	0.10503
3125.70402	0.10472
3124.41825	0.10440
3123.13248	0.10423
3121.84671	0.10435
3120.56094	0.10468
3119.27517	0.10493
3117.98940	0.10498
3116.70364	0.10487
3115.41787	0.10470
3114.13210	0.10451
3112.84633	0.10435
3111.56056	0.10435
3110.27479	0.10451
3108.98902	0.10467
3107.70325	0.10463
3106.41749	0.10444
3105.13172	0.10437
3103.84595	0.10457
3102.56018	0.10491
3101.27441	0.10516
3099.98864	0.10519
3098.70287	0.10513
3097.41710	0.10513
3096.13133	0.10523
3094.84557	0.10537
3093.55980	0.10551
3092.27403	0.10565
3090.98826	0.10581
3089.70249	0.10600
3088.41672	0.10617
3087.13095	0.10629
3085.84518	0.10634
3084.55942	0.10639
3083.27365	0.10658
3081.98788	0.10698
3080.70211	0.10749
3079.41634	0.10792
3078.13057	0.10818
3076.84480	0.10829
3075.55903	0.10833
3074.27326	0.10830
3072.98750	0.10813
3071.70173	0.10778
3070.41596	0.10735
3069.13019	0.10706
3067.84442	0.10710
3066.55865	0.10747
3065.27288	0.10788
3063.98711	0.10794
3062.70135	0.10745
3061.41558	0.10649
3060.12981	0.10538
3058.84404	0.10439
3057.55827	0.10361
3056.27250	0.10306
3054.98673	0.10275
3053.70096	0.10270
3052.41519	0.10279
3051.12943	0.10281
3049.84366	0.10261
3048.55789	0.10222
3047.27212	0.10174
3045.98635	0.10127
3044.70058	0.10080
3043.41481	0.10023
3042.12904	0.09954
3040.84328	0.09881
3039.55751	0.09817
3038.27174	0.09766
3036.98597	0.09719
3035.70020	0.09666
3034.41443	0.09604
3033.12866	0.09538
3031.84289	0.09476
3030.55712	0.09422
3029.27136	0.09381
3027.98559	0.09350
3026.69982	0.09325
3025.41405	0.09301
3024.12828	0.09272
3022.84251	0.09236
3021.55674	0.09190
3020.27097	0.09135
3018.98521	0.09074
3017.69944	0.09011
3016.41367	0.08953
3015.12790	0.08910
3013.84213	0.08887
3012.55636	0.08881
3011.27059	0.08878
3009.98482	0.08863
3008.69905	0.08834
3007.41329	0.08800
3006.12752	0.08773
3004.84175	0.08761
3003.55598	0.08761
3002.27021	0.08767
3000.98444	0.08774
2999.69867	0.08784
2998.41290	0.08802
2997.12714	0.08827
2995.84137	0.08851
2994.55560	0.08871
2993.26983	0.08891
2991.98406	0.08910
2990.69829	0.08925
2989.41252	0.08940
2988.12675	0.08968
2986.84098	0.09014
2985.55522	0.09072
2984.26945	0.09132
2982.98368	0.09190
2981.69791	0.09244
2980.41214	0.09292
2979.12637	0.09338
2977.84060	0.09382
2976.55483	0.09419
2975.26907	0.09438
2973.98330	0.09442
2972.69753	0.09451
2971.41176	0.09483
2970.12599	0.09541
2968.84022	0.09605
2967.55445	0.09658
2966.26868	0.09704
2964.98291	0.09759
2963.69715	0.09827
2962.41138	0.09897
2961.12561	0.09961
2959.83984	0.10018
2958.55407	0.10069
2957.26830	0.10104
2955.98253	0.10116
2954.69676	0.10114
2953.41100	0.10111
2952.12523	0.10112
2950.83946	0.10113
2949.55369	0.10119
2948.26792	0.10139
2946.98215	0.10179
2945.69638	0.10231
2944.41061	0.10290
2943.12484	0.10351
2941.83908	0.10415
2940.55331	0.10482
2939.26754	0.10558
2937.98177	0.10649
2936.69600	0.10750
2935.41023	0.10851
2934.12446	0.10943
2932.83869	0.11027
2931.55293	0.11106
2930.26716	0.11177
2928.98139	0.11236
2927.69562	0.11284
2926.40985	0.11317
2925.12408	0.11329
2923.83831	0.11316
2922.55254	0.11283
2921.26677	0.11237
2919.98101	0.11176
2918.69524	0.11092
2917.40947	0.10978
2916.12370	0.10835
2914.83793	0.10672
2913.55216	0.10501
2912.26639	0.10334
2910.98062	0.10182
2909.69486	0.10051
2908.40909	0.09937
2907.12332	0.09826
2905.83755	0.09706
2904.55178	0.09579
2903.26601	0.09460
2901.98024	0.09364
2900.69447	0.09291
2899.40870	0.09228
2898.12294	0.09165
2896.83717	0.09109
2895.55140	0.09068
2894.26563	0.09037
2892.97986	0.09009
2891.69409	0.08979
2890.40832	0.08945
2889.12255	0.08902
2887.83678	0.08852
2886.55102	0.08811
2885.26525	0.08795
2883.97948	0.08805
2882.69371	0.08826
2881.40794	0.08839
2880.12217	0.08837
2878.83640	0.08831
2877.55063	0.08840
2876.26487	0.08868
2874.97910	0.08895
2873.69333	0.08891
2872.40756	0.08842
2871.12179	0.08763
2869.83602	0.08687
2868.55025	0.08638
2867.26448	0.08613
2865.97871	0.08594
2864.69295	0.08576
2863.40718	0.08571
2862.12141	0.08596
2860.83564	0.08650
2859.54987	0.08715
2858.26410	0.08772
2856.97833	0.08818
2855.69256	0.08855
2854.40680	0.08880
2853.12103	0.08887
2851.83526	0.08866
2850.54949	0.08815
2849.26372	0.08727
2847.97795	0.08593
2846.69218	0.08412
2845.40641	0.08211
2844.12064	0.08034
2842.83488	0.07902
2841.54911	0.07806
2840.26334	0.07725
2838.97757	0.07646
2837.69180	0.07569
2836.40603	0.07494
2835.12026	0.07423
2833.83449	0.07366
2832.54873	0.07331
2831.26296	0.07313
2829.97719	0.07300
2828.69142	0.07287
2827.40565	0.07274
2826.11988	0.07259
2824.83411	0.07239
2823.54834	0.07214
2822.26257	0.07186
2820.97681	0.07151
2819.69104	0.07104
2818.40527	0.07051
2817.11950	0.07003
2815.83373	0.06968
2814.54796	0.06939
2813.26219	0.06910
2811.97642	0.06882
2810.69066	0.06859
2809.40489	0.06839
2808.11912	0.06823
2806.83335	0.06812
2805.54758	0.06807
2804.26181	0.06804
2802.97604	0.06789
2801.69027	0.06763
2800.40450	0.06741
2799.11874	0.06732
2797.83297	0.06726
2796.54720	0.06702
2795.26143	0.06655
2793.97566	0.06599
2792.68989	0.06556
2791.40412	0.06534
2790.11835	0.06529
2788.83259	0.06531
2787.54682	0.06523
2786.26105	0.06502
2784.97528	0.06479
2783.68951	0.06469
2782.40374	0.06476
2781.11797	0.06481
2779.83220	0.06464
2778.54643	0.06425
2777.26067	0.06383
2775.97490	0.06356
2774.68913	0.06348
2773.40336	0.06345
2772.11759	0.06338
2770.83182	0.06322
2769.54605	0.06303
2768.26028	0.06286
2766.97452	0.06269
2765.68875	0.06245
2764.40298	0.06212
2763.11721	0.06176
2761.83144	0.06149
2760.54567	0.06139
2759.25990	0.06141
2757.97413	0.06140
2756.68836	0.06124
2755.40260	0.06096
2754.11683	0.06070
2752.83106	0.06057
2751.54529	0.06055
2750.25952	0.06057
2748.97375	0.06051
2747.68798	0.06027
2746.40221	0.05985
2745.11645	0.05938
2743.83068	0.05902
2742.54491	0.05884
2741.25914	0.05878
2739.97337	0.05869
2738.68760	0.05847
2737.40183	0.05813
2736.11606	0.05781
2734.83029	0.05765
2733.54453	0.05766
2732.25876	0.05775
2730.97299	0.05784
2729.68722	0.05786
2728.40145	0.05780
2727.11568	0.05766
2725.82991	0.05741
2724.54414	0.05704
2723.25838	0.05663
2721.97261	0.05628
2720.68684	0.05605
2719.40107	0.05594
2718.11530	0.05591
2716.82953	0.05596
2715.54376	0.05604
2714.25799	0.05609
2712.97222	0.05605
2711.68646	0.05596
2710.40069	0.05586
2709.11492	0.05577
2707.82915	0.05568
2706.54338	0.05554
2705.25761	0.05537
2703.97184	0.05524
2702.68607	0.05518
2701.40031	0.05515
2700.11454	0.05502
2698.82877	0.05474
2697.54300	0.05439
2696.25723	0.05411
2694.97146	0.05400
2693.68569	0.05404
2692.39992	0.05415
2691.11415	0.05424
2689.82839	0.05428
2688.54262	0.05423
2687.25685	0.05411
2685.97108	0.05396
2684.68531	0.05382
2683.39954	0.05372
2682.11377	0.05366
2680.82800	0.05365
2679.54224	0.05367
2678.25647	0.05371
2676.97070	0.05373
2675.68493	0.05374
2674.39916	0.05371
2673.11339	0.05361
2671.82762	0.05340
2670.54185	0.05314
2669.25608	0.05293
2667.97032	0.05283
2666.68455	0.05284
2665.39878	0.05294
2664.11301	0.05308
2662.82724	0.05321
2661.54147	0.05323
2660.25570	0.05310
2658.96993	0.05288
2657.68417	0.05268
2656.39840	0.05255
2655.11263	0.05241
2653.82686	0.05215
2652.54109	0.05179
2651.25532	0.05146
2649.96955	0.05125
2648.68378	0.05108
2647.39801	0.05085
2646.11225	0.05058
2644.82648	0.05038
2643.54071	0.05029
2642.25494	0.05021
2640.96917	0.04998
2639.68340	0.04956
2638.39763	0.04906
2637.11186	0.04863
2635.82609	0.04835
2634.54033	0.04827
2633.25456	0.04840
2631.96879	0.04858
2630.68302	0.04868
2629.39725	0.04863
2628.11148	0.04849
2626.82571	0.04828
2625.53994	0.04795
2624.25418	0.04749
2622.96841	0.04699
2621.68264	0.04662
2620.39687	0.04649
2619.11110	0.04653
2617.82533	0.04656
2616.53956	0.04643
2615.25379	0.04614
2613.96802	0.04580
2612.68226	0.04550
2611.39649	0.04527
2610.11072	0.04511
2608.82495	0.04499
2607.53918	0.04489
2606.25341	0.04484
2604.96764	0.04482
2603.68187	0.04472
2602.39611	0.04450
2601.11034	0.04420
2599.82457	0.04394
2598.53880	0.04373
2597.25303	0.04353
2595.96726	0.04339
2594.68149	0.04338
2593.39572	0.04349
2592.10995	0.04371
2590.82419	0.04401
2589.53842	0.04423
2588.25265	0.04416
2586.96688	0.04372
2585.68111	0.04313
2584.39534	0.04271
2583.10957	0.04254
2581.82380	0.04253
2580.53804	0.04251
2579.25227	0.04245
2577.96650	0.04238
2576.68073	0.04238
2575.39496	0.04243
2574.10919	0.04237
2572.82342	0.04208
2571.53765	0.04168
2570.25188	0.04141
2568.96612	0.04137
2567.68035	0.04142
2566.39458	0.04133
2565.10881	0.04111
2563.82304	0.04089
2562.53727	0.04080
2561.25150	0.04079
2559.96573	0.04073
2558.67997	0.04045
2557.39420	0.04000
2556.10843	0.03963
2554.82266	0.03959
2553.53689	0.03989
2552.25112	0.04020
2550.96535	0.04027
2549.67958	0.04013
2548.39381	0.03997
2547.10805	0.03983
2545.82228	0.03968
2544.53651	0.03949
2543.25074	0.03929
2541.96497	0.03904
2540.67920	0.03867
2539.39343	0.03827
2538.10766	0.03805
2536.82190	0.03809
2535.53613	0.03825
2534.25036	0.03829
2532.96459	0.03812
2531.67882	0.03787
2530.39305	0.03774
2529.10728	0.03783
2527.82151	0.03804
2526.53574	0.03818
2525.24998	0.03816
2523.96421	0.03802
2522.67844	0.03786
2521.39267	0.03775
2520.10690	0.03771
2518.82113	0.03772
2517.53536	0.03779
2516.24959	0.03790
2514.96383	0.03797
2513.67806	0.03788
2512.39229	0.03763
2511.10652	0.03736
2509.82075	0.03717
2508.53498	0.03702
2507.24921	0.03687
2505.96344	0.03676
2504.67767	0.03676
2503.39191	0.03685
2502.10614	0.03690
2500.82037	0.03686
2499.53460	0.03676
2498.24883	0.03668
2496.96306	0.03655
2495.67729	0.03632
2494.39152	0.03604
2493.10576	0.03588
2491.81999	0.03589
2490.53422	0.03593
2489.24845	0.03581
2487.96268	0.03545
2486.67691	0.03490
2485.39114	0.03436
2484.10537	0.03405
2482.81960	0.03409
2481.53384	0.03435
2480.24807	0.03471
2478.96230	0.03510
2477.67653	0.03545
2476.39076	0.03559
2475.10499	0.03546
2473.81922	0.03520
2472.53345	0.03504
2471.24769	0.03501
2469.96192	0.03496
2468.67615	0.03476
2467.39038	0.03450
2466.10461	0.03438
2464.81884	0.03450
2463.53307	0.03474
2462.24730	0.03483
2460.96153	0.03464
2459.67577	0.03436
2458.39000	0.03426
2457.10423	0.03448
2455.81846	0.03485
2454.53269	0.03519
2453.24692	0.03537
2451.96115	0.03539
2450.67538	0.03528
2449.38962	0.03516
2448.10385	0.03513
2446.81808	0.03517
2445.53231	0.03511
2444.24654	0.03484
2442.96077	0.03450
2441.67500	0.03429
2440.38923	0.03427
2439.10346	0.03432
2437.81770	0.03433
2436.53193	0.03436
2435.24616	0.03452
2433.96039	0.03478
2432.67462	0.03495
2431.38885	0.03487
2430.10308	0.03460
2428.81731	0.03431
2427.53155	0.03410
2426.24578	0.03396
2424.96001	0.03381
2423.67424	0.03364
2422.38847	0.03351
2421.10270	0.03352
2419.81693	0.03368
2418.53116	0.03390
2417.24539	0.03407
2415.95963	0.03414
2414.67386	0.03418
2413.38809	0.03423
2412.10232	0.03428
2410.81655	0.03422
2409.53078	0.03399
2408.24501	0.03358
2406.95924	0.03312
2405.67347	0.03278
2404.38771	0.03268
2403.10194	0.03281
2401.81617	0.03307
2400.53040	0.03332
2399.24463	0.03341
2397.95886	0.03339
2396.67309	0.03331
2395.38732	0.03322
2394.10156	0.03315
2392.81579	0.03308
2391.53002	0.03297
2390.24425	0.03286
2388.95848	0.03281
2387.67271	0.03281
2386.38694	0.03280
2385.10117	0.03278
2383.81540	0.03286
2382.52964	0.03310
2381.24387	0.03341
2379.95810	0.03359
2378.67233	0.03359
2377.38656	0.03346
2376.10079	0.03334
2374.81502	0.03332
2373.52925	0.03349
2372.24349	0.03362
2370.95772	0.03356
2369.67195	0.03352
2368.38618	0.03366
2367.10041	0.03397
2365.81464	0.03429
2364.52887	0.03450
2363.24310	0.03461
2361.95733	0.03467
2360.67157	0.03470
2359.38580	0.03467
2358.10003	0.03464
2356.81426	0.03463
2355.52849	0.03462
2354.24272	0.03458
2352.95695	0.03457
2351.67118	0.03472
2350.38542	0.03488
2349.09965	0.03486
2347.81388	0.03477
2346.52811	0.03470
2345.24234	0.03455
2343.95657	0.03430
2342.67080	0.03391
2341.38503	0.03387
2340.09926	0.03406
2338.81350	0.03411
2337.52773	0.03403
2336.24196	0.03415
2334.95619	0.03426
2333.67042	0.03424
2332.38465	0.03406
2331.09888	0.03416
2329.81311	0.03408
2328.52735	0.03410
2327.24158	0.03458
2325.95581	0.03518
2324.67004	0.03563
2323.38427	0.03562
2322.09850	0.03538
2320.81273	0.03500
2319.52696	0.03458
2318.24119	0.03416
2316.95543	0.03381
2315.66966	0.03350
2314.38389	0.03323
2313.09812	0.03306
2311.81235	0.03287
2310.52658	0.03259
2309.24081	0.03231
2307.95504	0.03218
2306.66928	0.03221
2305.38351	0.03233
2304.09774	0.03246
2302.81197	0.03255
2301.52620	0.03253
2300.24043	0.03237
2298.95466	0.03214
2297.66889	0.03192
2296.38312	0.03172
2295.09736	0.03141
2293.81159	0.03095
2292.52582	0.03050
2291.24005	0.03027
2289.95428	0.03026
2288.66851	0.03038
2287.38274	0.03053
2286.09697	0.03069
2284.81121	0.03082
2283.52544	0.03084
2282.23967	0.03068
2280.95390	0.03037
2279.66813	0.03003
2278.38236	0.02968
2277.09659	0.02928
2275.81082	0.02880
2274.52505	0.02825
2273.23929	0.02768
2271.95352	0.02723
2270.66775	0.02702
2269.38198	0.02698
2268.09621	0.02686
2266.81044	0.02643
2265.52467	0.02578
2264.23890	0.02524
2262.95314	0.02512
2261.66737	0.02550
2260.38160	0.02618
2259.09583	0.02681
2257.81006	0.02704
2256.52429	0.02674
2255.23852	0.02605
2253.95275	0.02526
2252.66698	0.02466
2251.38122	0.02436
2250.09545	0.02438
2248.80968	0.02464
2247.52391	0.02476
2246.23814	0.02495
2244.95237	0.02521
2243.66660	0.02538
2242.38083	0.02529
2241.09507	0.02501
2239.80930	0.02491
2238.52353	0.02522
2237.23776	0.02566
2235.95199	0.02575
2234.66622	0.02543
2233.38045	0.02516
2232.09468	0.02527
2230.80891	0.02555
2229.52315	0.02562
2228.23738	0.02541
2226.95161	0.02503
2225.66584	0.02453
2224.38007	0.02397
2223.09430	0.02372
2221.80853	0.02400
2220.52276	0.02448
2219.23700	0.02462
2217.95123	0.02435
2216.66546	0.02406
2215.37969	0.02391
2214.09392	0.02361
2212.80815	0.02296
2211.52238	0.02221
2210.23661	0.02178
2208.95084	0.02179
2207.66508	0.02208
2206.37931	0.02243
2205.09354	0.02275
2203.80777	0.02301
2202.52200	0.02311
2201.23623	0.02286
2199.95046	0.02213
2198.66469	0.02119
2197.37893	0.02060
2196.09316	0.02062
2194.80739	0.02101
2193.52162	0.02140
2192.23585	0.02163
2190.95008	0.02164
2189.66431	0.02127
2188.37854	0.02037
2187.09277	0.01924
2185.80701	0.01847
2184.52124	0.01849
2183.23547	0.01930
2181.94970	0.02056
2180.66393	0.02169
2179.37816	0.02209
2178.09239	0.02154
2176.80662	0.02051
2175.52085	0.01966
2174.23509	0.01920
2172.94932	0.01877
2171.66355	0.01794
2170.37778	0.01674
2169.09201	0.01547
2167.80624	0.01435
2166.52047	0.01338
2165.23470	0.01258
2163.94894	0.01220
2162.66317	0.01250
2161.37740	0.01331
2160.09163	0.01415
2158.80586	0.01473
2157.52009	0.01509
2156.23432	0.01536
2154.94855	0.01552
2153.66278	0.01566
2152.37702	0.01588
2151.09125	0.01621
2149.80548	0.01670
2148.51971	0.01734
2147.23394	0.01793
2145.94817	0.01807
2144.66240	0.01772
2143.37663	0.01730
2142.09087	0.01718
2140.80510	0.01722
2139.51933	0.01710
2138.23356	0.01680
2136.94779	0.01665
2135.66202	0.01688
2134.37625	0.01743
2133.09048	0.01814
2131.80471	0.01889
2130.51895	0.01960
2129.23318	0.02011
2127.94741	0.02026
2126.66164	0.02019
2125.37587	0.02025
2124.09010	0.02067
2122.80433	0.02140
2121.51856	0.02230
2120.23280	0.02326
2118.94703	0.02412
2117.66126	0.02471
2116.37549	0.02488
2115.08972	0.02465
2113.80395	0.02415
2112.51818	0.02360
2111.23241	0.02321
2109.94664	0.02301
2108.66088	0.02281
2107.37511	0.02253
2106.08934	0.02230
2104.80357	0.02223
2103.51780	0.02227
2102.23203	0.02228
2100.94626	0.02231
2099.66049	0.02250
2098.37473	0.02260
2097.08896	0.02235
2095.80319	0.02169
2094.51742	0.02092
2093.23165	0.02054
2091.94588	0.02074
2090.66011	0.02121
2089.37434	0.02154
2088.08857	0.02163
2086.80281	0.02171
2085.51704	0.02196
2084.23127	0.02226
2082.94550	0.02243
2081.65973	0.02239
2080.37396	0.02220
2079.08819	0.02192
2077.80242	0.02158
2076.51666	0.02121
2075.23089	0.02090
2073.94512	0.02073
2072.65935	0.02060
2071.37358	0.02028
2070.08781	0.01968
2068.80204	0.01906
2067.51627	0.01882
2066.23050	0.01907
2064.94474	0.01947
2063.65897	0.01959
2062.37320	0.01933
2061.08743	0.01888
2059.80166	0.01853
2058.51589	0.01838
2057.23012	0.01838
2055.94435	0.01839
2054.65859	0.01827
2053.37282	0.01798
2052.08705	0.01749
2050.80128	0.01682
2049.51551	0.01609
2048.22974	0.01555
2046.94397	0.01537
2045.65820	0.01538
2044.37243	0.01522
2043.08667	0.01475
2041.80090	0.01421
2040.51513	0.01393
2039.22936	0.01397
2037.94359	0.01419
2036.65782	0.01438
2035.37205	0.01446
2034.08628	0.01438
2032.80052	0.01412
2031.51475	0.01373
2030.22898	0.01351
2028.94321	0.01380
2027.65744	0.01461
2026.37167	0.01556
2025.08590	0.01625
2023.80013	0.01660
2022.51436	0.01662
2021.22860	0.01629
2019.94283	0.01557
2018.65706	0.01455
2017.37129	0.01335
2016.08552	0.01223
2014.79975	0.01161
2013.51398	0.01187
2012.22821	0.01294
2010.94245	0.01425
2009.65668	0.01517
2008.37091	0.01538
2007.08514	0.01501
2005.79937	0.01448
2004.51360	0.01426
2003.22783	0.01453
2001.94206	0.01507
2000.65629	0.01541
1999.37053	0.01532
1998.08476	0.01510
1996.79899	0.01525
1995.51322	0.01598
1994.22745	0.01700
1992.94168	0.01778
1991.65591	0.01802
1990.37014	0.01780
1989.08438	0.01739
1987.79861	0.01697
1986.51284	0.01656
1985.22707	0.01611
1983.94130	0.01567
1982.65553	0.01528
1981.36976	0.01486
1980.08399	0.01434
1978.79822	0.01382
1977.51246	0.01358
1976.22669	0.01383
1974.94092	0.01462
1973.65515	0.01577
1972.36938	0.01688
1971.08361	0.01755
1969.79784	0.01752
1968.51207	0.01691
1967.22631	0.01604
1965.94054	0.01525
1964.65477	0.01471
1963.36900	0.01451
1962.08323	0.01461
1960.79746	0.01488
1959.51169	0.01518
1958.22592	0.01551
1956.94015	0.01596
1955.65439	0.01641
1954.36862	0.01651
1953.08285	0.01612
1951.79708	0.01562
1950.51131	0.01561
1949.22554	0.01628
1947.93977	0.01728
1946.65400	0.01808
1945.36823	0.01841
1944.08247	0.01828
1942.79670	0.01790
1941.51093	0.01746
1940.22516	0.01706
1938.93939	0.01668
1937.65362	0.01638
1936.36785	0.01628
1935.08208	0.01633
1933.79632	0.01638
1932.51055	0.01635
1931.22478	0.01634
1929.93901	0.01650
1928.65324	0.01680
1927.36747	0.01711
1926.08170	0.01736
1924.79593	0.01754
1923.51016	0.01762
1922.22440	0.01765
1920.93863	0.01772
1919.65286	0.01787
1918.36709	0.01799
1917.08132	0.01800
1915.79555	0.01797
1914.50978	0.01802
1913.22401	0.01814
1911.93825	0.01823
1910.65248	0.01820
1909.36671	0.01804
1908.08094	0.01782
1906.79517	0.01768
1905.50940	0.01775
1904.22363	0.01803
1902.93786	0.01834
1901.65209	0.01850
1900.36633	0.01846
1899.08056	0.01832
1897.79479	0.01817
1896.50902	0.01806
1895.22325	0.01799
1893.93748	0.01801
1892.65171	0.01809
1891.36594	0.01817
1890.08018	0.01814
1888.79441	0.01804
1887.50864	0.01797
1886.22287	0.01800
1884.93710	0.01809
1883.65133	0.01819
1882.36556	0.01826
1881.07979	0.01827
1879.79402	0.01821
1878.50826	0.01814
1877.22249	0.01813
1875.93672	0.01818
1874.65095	0.01823
1873.36518	0.01821
1872.07941	0.01818
1870.79364	0.01820
1869.50787	0.01826
1868.22211	0.01829
1866.93634	0.01820
1865.65057	0.01797
1864.36480	0.01767
1863.07903	0.01740
1861.79326	0.01727
1860.50749	0.01731
1859.22172	0.01741
1857.93595	0.01745
1856.65019	0.01742
1855.36442	0.01743
1854.07865	0.01758
1852.79288	0.01780
1851.50711	0.01797
1850.22134	0.01803
1848.93557	0.01802
1847.64980	0.01803
1846.36404	0.01811
1845.07827	0.01826
1843.79250	0.01842
1842.50673	0.01849
1841.22096	0.01840
1839.93519	0.01820
1838.64942	0.01798
1837.36365	0.01782
1836.07788	0.01777
1834.79212	0.01781
1833.50635	0.01791
1832.22058	0.01799
1830.93481	0.01801
1829.64904	0.01802
1828.36327	0.01807
1827.07750	0.01815
1825.79173	0.01821
1824.50597	0.01820
1823.22020	0.01812
1821.93443	0.01794
1820.64866	0.01774
1819.36289	0.01759
1818.07712	0.01754
1816.79135	0.01757
1815.50558	0.01763
1814.21981	0.01765
1812.93405	0.01760
1811.64828	0.01746
1810.36251	0.01727
1809.07674	0.01714
1807.79097	0.01713
1806.50520	0.01722
1805.21943	0.01732
1803.93366	0.01734
1802.64790	0.01732
1801.36213	0.01733
1800.07636	0.01741
1798.79059	0.01753
1797.50482	0.01760
1796.21905	0.01759
1794.93328	0.01752
1793.64751	0.01744
1792.36174	0.01740
1791.07598	0.01744
1789.79021	0.01748
1788.50444	0.01748
1787.21867	0.01744
1785.93290	0.01740
1784.64713	0.01738
1783.36136	0.01736
1782.07559	0.01729
1780.78983	0.01719
1779.50406	0.01708
1778.21829	0.01698
1776.93252	0.01691
1775.64675	0.01688
1774.36098	0.01689
1773.07521	0.01695
1771.78944	0.01703
1770.50367	0.01710
1769.21791	0.01712
1767.93214	0.01709
1766.64637	0.01703
1765.36060	0.01697
1764.07483	0.01695
1762.78906	0.01695
1761.50329	0.01693
1760.21752	0.01689
1758.93176	0.01683
1757.64599	0.01678
1756.36022	0.01679
1755.07445	0.01690
1753.78868	0.01714
1752.50291	0.01744
1751.21714	0.01773
1749.93137	0.01794
1748.64560	0.01806
1747.35984	0.01811
1746.07407	0.01812
1744.78830	0.01812
1743.50253	0.01818
1742.21676	0.01834
1740.93099	0.01857
1739.64522	0.01882
1738.35945	0.01905
1737.07369	0.01923
1735.78792	0.01937
1734.50215	0.01950
1733.21638	0.01963
1731.93061	0.01980
1730.64484	0.02001
1729.35907	0.02023
1728.07330	0.02048
1726.78753	0.02085
1725.50177	0.02136
1724.21600	0.02196
1722.93023	0.02253
1721.64446	0.02304
1720.35869	0.02357
1719.07292	0.02424
1717.78715	0.02506
1716.50138	0.02596
1715.21561	0.02686
1713.92985	0.02780
1712.64408	0.02886
1711.35831	0.03009
1710.07254	0.03144
1708.78677	0.03283
1707.50100	0.03422
1706.21523	0.03565
1704.92946	0.03713
1703.64370	0.03870
1702.35793	0.04037
1701.07216	0.04213
1699.78639	0.04400
1698.50062	0.04598
1697.21485	0.04812
1695.92908	0.05036
1694.64331	0.05261
1693.35754	0.05477
1692.07178	0.05683
1690.78601	0.05887
1689.50024	0.06099
1688.21447	0.06323
1686.92870	0.06565
1685.64293	0.06826
1684.35716	0.07098
1683.07139	0.07372
1681.78563	0.07645
1680.49986	0.07921
1679.21409	0.08212
1677.92832	0.08521
1676.64255	0.08848
1675.35678	0.09189
1674.07101	0.09540
1672.78524	0.09896
1671.49947	0.10260
1670.21371	0.10633
1668.92794	0.11009
1667.64217	0.11378
1666.35640	0.11734
1665.07063	0.12080
1663.78486	0.12423
1662.49909	0.12762
1661.21332	0.13089
1659.92756	0.13395
1658.64179	0.13676
1657.35602	0.13933
1656.07025	0.14173
1654.78448	0.14408
1653.49871	0.14639
1652.21294	0.14857
1650.92717	0.15051
1649.64140	0.15220
1648.35564	0.15373
1647.06987	0.15518
1645.78410	0.15657
1644.49833	0.15790
1643.21256	0.15919
1641.92679	0.16046
1640.64102	0.16172
1639.35525	0.16296
1638.06949	0.16416
1636.78372	0.16531
1635.49795	0.16638
1634.21218	0.16733
1632.92641	0.16812
1631.64064	0.16869
1630.35487	0.16898
1629.06910	0.16896
1627.78333	0.16858
1626.49757	0.16781
1625.21180	0.16661
1623.92603	0.16501
1622.64026	0.16302
1621.35449	0.16066
1620.06872	0.15795
1618.78295	0.15496
1617.49718	0.15180
1616.21142	0.14857
1614.92565	0.14533
1613.63988	0.14208
1612.35411	0.13878
1611.06834	0.13538
1609.78257	0.13190
1608.49680	0.12838
1607.21103	0.12488
1605.92526	0.12147
1604.63950	0.11823
1603.35373	0.11518
1602.06796	0.11234
1600.78219	0.10969
1599.49642	0.10720
1598.21065	0.10485
1596.92488	0.10267
1595.63911	0.10069
1594.35335	0.09893
1593.06758	0.09740
1591.78181	0.09609
1590.49604	0.09498
1589.21027	0.09408
1587.92450	0.09339
1586.63873	0.09291
1585.35296	0.09264
1584.06719	0.09255
1582.78143	0.09262
1581.49566	0.09282
1580.20989	0.09316
1578.92412	0.09371
1577.63835	0.09453
1576.35258	0.09568
1575.06681	0.09710
1573.78104	0.09869
1572.49528	0.10037
1571.20951	0.10217
1569.92374	0.10414
1568.63797	0.10630
1567.35220	0.10859
1566.06643	0.11097
1564.78066	0.11337
1563.49489	0.11574
1562.20912	0.11808
1560.92336	0.12044
1559.63759	0.12283
1558.35182	0.12520
1557.06605	0.12744
1555.78028	0.12951
1554.49451	0.13142
1553.20874	0.13315
1551.92297	0.13472
1550.63721	0.13614
1549.35144	0.13747
1548.06567	0.13869
1546.77990	0.13975
1545.49413	0.14062
1544.20836	0.14130
1542.92259	0.14180
1541.63682	0.14213
1540.35105	0.14234
1539.06529	0.14245
1537.77952	0.14243
1536.49375	0.14227
1535.20798	0.14198
1533.92221	0.14160
1532.63644	0.14117
1531.35067	0.14068
1530.06490	0.14012
1528.77914	0.13947
1527.49337	0.13873
1526.20760	0.13793
1524.92183	0.13707
1523.63606	0.13617
1522.35029	0.13523
1521.06452	0.13424
1519.77875	0.13323
1518.49298	0.13219
1517.20722	0.13108
1515.92145	0.12984
1514.63568	0.12841
1513.34991	0.12678
1512.06414	0.12500
1510.77837	0.12308
1509.49260	0.12104
1508.20683	0.11889
1506.92107	0.11666
1505.63530	0.11436
1504.34953	0.11201
1503.06376	0.10965
1501.77799	0.10730
1500.49222	0.10498
1499.20645	0.10266
1497.92068	0.10033
1496.63491	0.09799
1495.34915	0.09569
1494.06338	0.09345
1492.77761	0.09126
1491.49184	0.08913
1490.20607	0.08709
1488.92030	0.08524
1487.63453	0.08364
1486.34876	0.08229
1485.06299	0.08114
1483.77723	0.08017
1482.49146	0.07941
1481.20569	0.07890
1479.91992	0.07864
1478.63415	0.07861
1477.34838	0.07878
1476.06261	0.07920
1474.77684	0.07992
1473.49108	0.08094
1472.20531	0.08222
1470.91954	0.08362
1469.63377	0.08502
1468.34800	0.08635
1467.06223	0.08765
1465.77646	0.08897
1464.49069	0.09034
1463.20492	0.09175
1461.91916	0.09318
1460.63339	0.09463
1459.34762	0.09613
1458.06185	0.09770
1456.77608	0.09931
1455.49031	0.10084
1454.20454	0.10214
1452.91877	0.10313
1451.63301	0.10383
1450.34724	0.10429
1449.06147	0.10454
1447.77570	0.10458
1446.48993	0.10440
1445.20416	0.10402
1443.91839	0.10349
1442.63262	0.10286
1441.34685	0.10212
1440.06109	0.10126
1438.77532	0.10027
1437.48955	0.09916
1436.20378	0.09792
1434.91801	0.09657
1433.63224	0.09516
1432.34647	0.09375
1431.06070	0.09243
1429.77494	0.09129
1428.48917	0.09034
1427.20340	0.08955
1425.91763	0.08889
1424.63186	0.08833
1423.34609	0.08790
1422.06032	0.08758
1420.77455	0.08739
1419.48878	0.08728
1418.20302	0.08722
1416.91725	0.08720
1415.63148	0.08721
1414.34571	0.08726
1413.05994	0.08742
1411.77417	0.08768
1410.48840	0.08802
1409.20263	0.08844
1407.91687	0.08890
1406.63110	0.08939
1405.34533	0.08986
1404.05956	0.09026
1402.77379	0.09055
1401.48802	0.09073
1400.20225	0.09078
1398.91648	0.09072
1397.63071	0.09056
1396.34495	0.09036
1395.05918	0.09014
1393.77341	0.08993
1392.48764	0.08970
1391.20187	0.08945
1389.91610	0.08918
1388.63033	0.08891
1387.34456	0.08862
1386.05880	0.08830
1384.77303	0.08792
1383.48726	0.08752
1382.20149	0.08714
1380.91572	0.08678
1379.62995	0.08642
1378.34418	0.08601
1377.05841	0.08553
1375.77264	0.08502
1374.48688	0.08447
1373.20111	0.08383
1371.91534	0.08311
1370.62957	0.08231
1369.34380	0.08146
1368.05803	0.08055
1366.77226	0.07958
1365.48649	0.07858
1364.20073	0.07761
1362.91496	0.07671
1361.62919	0.07591
1360.34342	0.07521
1359.05765	0.07466
1357.77188	0.07429
1356.48611	0.07410
1355.20034	0.07407
1353.91457	0.07419
1352.62881	0.07452
1351.34304	0.07504
1350.05727	0.07574
1348.77150	0.07653
1347.48573	0.07736
1346.19996	0.07819
1344.91419	0.07902
1343.62842	0.07983
1342.34266	0.08061
1341.05689	0.08131
1339.77112	0.08192
1338.48535	0.08241
1337.19958	0.08277
1335.91381	0.08295
1334.62804	0.08292
1333.34227	0.08266
1332.05650	0.08221
1330.77074	0.08163
1329.48497	0.08098
1328.19920	0.08030
1326.91343	0.07963
1325.62766	0.07898
1324.34189	0.07838
1323.05612	0.07785
1321.77035	0.07745
1320.48459	0.07719
1319.19882	0.07704
1317.91305	0.07692
1316.62728	0.07677
1315.34151	0.07659
1314.05574	0.07635
1312.76997	0.07603
1311.48420	0.07562
1310.19843	0.07515
1308.91267	0.07468
1307.62690	0.07425
1306.34113	0.07389
1305.05536	0.07358
1303.76959	0.07328
1302.48382	0.07298
1301.19805	0.07268
1299.91228	0.07239
1298.62652	0.07214
1297.34075	0.07195
1296.05498	0.07186
1294.76921	0.07189
1293.48344	0.07205
1292.19767	0.07233
1290.91190	0.07269
1289.62613	0.07312
1288.34036	0.07358
1287.05460	0.07408
1285.76883	0.07460
1284.48306	0.07515
1283.19729	0.07569
1281.91152	0.07615
1280.62575	0.07647
1279.33998	0.07665
1278.05421	0.07672
1276.76845	0.07674
1275.48268	0.07673
1274.19691	0.07671
1272.91114	0.07667
1271.62537	0.07664
1270.33960	0.07667
1269.05383	0.07679
1267.76806	0.07701
1266.48229	0.07731
1265.19653	0.07767
1263.91076	0.07805
1262.62499	0.07846
1261.33922	0.07891
1260.05345	0.07941
1258.76768	0.07995
1257.48191	0.08054
1256.19614	0.08115
1254.91037	0.08183
1253.62461	0.08257
1252.33884	0.08337
1251.05307	0.08421
1249.76730	0.08509
1248.48153	0.08604
1247.19576	0.08707
1245.90999	0.08817
1244.62422	0.08930
1243.33846	0.09041
1242.05269	0.09142
1240.76692	0.09228
1239.48115	0.09295
1238.19538	0.09347
1236.90961	0.09384
1235.62384	0.09409
1234.33807	0.09420
1233.05230	0.09416
1231.76654	0.09393
1230.48077	0.09347
1229.19500	0.09277
1227.90923	0.09186
1226.62346	0.09080
1225.33769	0.08963
1224.05192	0.08834
1222.76615	0.08695
1221.48039	0.08551
1220.19462	0.08412
1218.90885	0.08285
1217.62308	0.08171
1216.33731	0.08075
1215.05154	0.07999
1213.76577	0.07948
1212.48000	0.07920
1211.19423	0.07910
1209.90847	0.07915
1208.62270	0.07935
1207.33693	0.07967
1206.05116	0.08004
1204.76539	0.08035
1203.47962	0.08048
1202.19385	0.08038
1200.90808	0.08006
1199.62232	0.07954
1198.33655	0.07887
1197.05078	0.07804
1195.76501	0.07708
1194.47924	0.07601
1193.19347	0.07491
1191.90770	0.07384
1190.62193	0.07281
1189.33616	0.07182
1188.05040	0.07089
1186.76463	0.07002
1185.47886	0.06923
1184.19309	0.06853
1182.90732	0.06790
1181.62155	0.06734
1180.33578	0.06689
1179.05001	0.06655
1177.76425	0.06627
1176.47848	0.06600
1175.19271	0.06572
1173.90694	0.06545
1172.62117	0.06523
1171.33540	0.06509
1170.04963	0.06503
1168.76386	0.06500
1167.47809	0.06500
1166.19233	0.06502
1164.90656	0.06508
1163.62079	0.06515
1162.33502	0.06518
1161.04925	0.06512
1159.76348	0.06498
1158.47771	0.06473
1157.19194	0.06437
1155.90618	0.06386
1154.62041	0.06324
1153.33464	0.06260
1152.04887	0.06201
1150.76310	0.06145
1149.47733	0.06088
1148.19156	0.06023
1146.90579	0.05951
1145.62002	0.05880
1144.33426	0.05815
1143.04849	0.05760
1141.76272	0.05713
1140.47695	0.05669
1139.19118	0.05624
1137.90541	0.05576
1136.61964	0.05532
1135.33387	0.05499
1134.04811	0.05480
1132.76234	0.05467
1131.47657	0.05452
1130.19080	0.05432
1128.90503	0.05411
1127.61926	0.05397
1126.33349	0.05390
1125.04772	0.05386
1123.76195	0.05383
1122.47619	0.05380
1121.19042	0.05378
1119.90465	0.05375
1118.61888	0.05369
1117.33311	0.05360
1116.04734	0.05355
1114.76157	0.05355
1113.47580	0.05362
1112.19004	0.05372
1110.90427	0.05386
1109.61850	0.05398
1108.33273	0.05408
1107.04696	0.05416
1105.76119	0.05427
1104.47542	0.05444
1103.18965	0.05468
1101.90388	0.05497
1100.61812	0.05528
1099.33235	0.05556
1098.04658	0.05579
1096.76081	0.05598
1095.47504	0.05620
1094.18927	0.05654
1092.90350	0.05702
1091.61773	0.05758
1090.33197	0.05818
1089.04620	0.05880
1087.76043	0.05952
1086.47466	0.06035
1085.18889	0.06119
1083.90312	0.06189
1082.61735	0.06234
1081.33158	0.06257
1080.04581	0.06261
1078.76005	0.06252
1077.47428	0.06228
1076.18851	0.06191
1074.90274	0.06145
1073.61697	0.06099
1072.33120	0.06059
1071.04543	0.06028
1069.75966	0.06005
1068.47390	0.05988
1067.18813	0.05974
1065.90236	0.05962
1064.61659	0.05951
1063.33082	0.05939
1062.04505	0.05923
1060.75928	0.05904
1059.47351	0.05886
1058.18774	0.05871
1056.90198	0.05853
1055.61621	0.05826
1054.33044	0.05791
1053.04467	0.05755
1051.75890	0.05724
1050.47313	0.05694
1049.18736	0.05665
1047.90159	0.05641
1046.61583	0.05627
1045.33006	0.05621
1044.04429	0.05616
1042.75852	0.05609
1041.47275	0.05605
1040.18698	0.05610
1038.90121	0.05631
1037.61544	0.05668
1036.32967	0.05716
1035.04391	0.05769
1033.75814	0.05822
1032.47237	0.05868
1031.18660	0.05898
1029.90083	0.05906
1028.61506	0.05889
1027.32929	0.05850
1026.04352	0.05795
1024.75775	0.05728
1023.47199	0.05655
1022.18622	0.05581
1020.90045	0.05512
1019.61468	0.05454
1018.32891	0.05408
1017.04314	0.05376
1015.75737	0.05352
1014.47160	0.05328
1013.18584	0.05296
1011.90007	0.05253
1010.61430	0.05202
1009.32853	0.05151
1008.04276	0.05103
1006.75699	0.05056
1005.47122	0.05003
1004.18545	0.04943
1002.89968	0.04881
1001.61392	0.04824
1000.32815	0.04774
999.04238	0.04728
997.75661	0.04681
996.47084	0.04637
995.18507	0.04602
993.89930	0.04571
992.61353	0.04538
991.32777	0.04498
990.04200	0.04454
988.75623	0.04415
987.47046	0.04391
986.18469	0.04383
984.89892	0.04382
983.61315	0.04379
982.32738	0.04370
981.04161	0.04365
979.75585	0.04374
978.47008	0.04400
977.18431	0.04432
975.89854	0.04456
974.61277	0.04467
973.32700	0.04466
972.04123	0.04454
970.75546	0.04433
969.46970	0.04402
968.18393	0.04370
966.89816	0.04341
965.61239	0.04318
964.32662	0.04300
963.04085	0.04286
961.75508	0.04275
960.46931	0.04263
959.18354	0.04247
957.89778	0.04227
956.61201	0.04207
955.32624	0.04189
954.04047	0.04173
952.75470	0.04154
951.46893	0.04136
950.18316	0.04125
948.89739	0.04129
947.61163	0.04142
946.32586	0.04152
945.04009	0.04155
943.75432	0.04156
942.46855	0.04160
941.18278	0.04168
939.89701	0.04172
938.61124	0.04170
937.32547	0.04162
936.03971	0.04154
934.75394	0.04144
933.46817	0.04133
932.18240	0.04118
930.89663	0.04097
929.61086	0.04076
928.32509	0.04061
927.03932	0.04056
925.75356	0.04058
924.46779	0.04059
923.18202	0.04055
921.89625	0.04044
920.61048	0.04028
919.32471	0.04010
918.03894	0.03989
916.75317	0.03963
915.46740	0.03927
914.18164	0.03887
912.89587	0.03851
911.61010	0.03824
910.32433	0.03806
909.03856	0.03797
907.75279	0.03794
906.46702	0.03794
905.18125	0.03790
903.89549	0.03779
902.60972	0.03764
901.32395	0.03749
900.03818	0.03739
898.75241	0.03732
897.46664	0.03724
896.18087	0.03707
894.89510	0.03681
893.60933	0.03656
892.32357	0.03642
891.03780	0.03641
889.75203	0.03646
888.46626	0.03652
887.18049	0.03658
885.89472	0.03670
884.60895	0.03690
883.32318	0.03714
882.03742	0.03731
880.75165	0.03735
879.46588	0.03730
878.18011	0.03729
876.89434	0.03742
875.60857	0.03763
874.32280	0.03776
873.03703	0.03771
871.75126	0.03754
870.46550	0.03739
869.17973	0.03733
867.89396	0.03731
866.60819	0.03726
865.32242	0.03718
864.03665	0.03709
862.75088	0.03701
861.46511	0.03697
860.17935	0.03697
858.89358	0.03699
857.60781	0.03702
856.32204	0.03708
855.03627	0.03718
853.75050	0.03731
852.46473	0.03745
851.17896	0.03758
849.89319	0.03764
848.60743	0.03759
847.32166	0.03742
846.03589	0.03717
844.75012	0.03691
843.46435	0.03671
842.17858	0.03657
840.89281	0.03646
839.60704	0.03636
838.32128	0.03627
837.03551	0.03620
835.74974	0.03615
834.46397	0.03609
833.17820	0.03602
831.89243	0.03599
830.60666	0.03603
829.32089	0.03610
828.03512	0.03616
826.74936	0.03619
825.46359	0.03620
824.17782	0.03626
822.89205	0.03640
821.60628	0.03661
820.32051	0.03685
819.03474	0.03708
817.74897	0.03729
816.46321	0.03748
815.17744	0.03765
813.89167	0.03776
812.60590	0.03786
811.32013	0.03800
810.03436	0.03820
808.74859	0.03840
807.46282	0.03855
806.17705	0.03867
804.89129	0.03875
803.60552	0.03880
802.31975	0.03879
801.03398	0.03876
799.74821	0.03874
798.46244	0.03876
797.17667	0.03886
795.89090	0.03903
794.60513	0.03921
793.31937	0.03936
792.03360	0.03947
790.74783	0.03955
789.46206	0.03964
788.17629	0.03979
786.89052	0.04001
785.60475	0.04027
784.31898	0.04050
783.03322	0.04064
781.74745	0.04071
780.46168	0.04077
779.17591	0.04087
777.89014	0.04102
776.60437	0.04114
775.31860	0.04119
774.03283	0.04122
772.74706	0.04134
771.46130	0.04157
770.17553	0.04181
768.88976	0.04196
767.60399	0.04206
766.31822	0.04219
765.03245	0.04236
763.74668	0.04250
762.46091	0.04261
761.17515	0.04274
759.88938	0.04291
758.60361	0.04308
757.31784	0.04326
756.03207	0.04346
754.74630	0.04363
753.46053	0.04374
752.17476	0.04380
750.88899	0.04389
749.60323	0.04412
748.31746	0.04444
747.03169	0.04476
745.74592	0.04503
744.46015	0.04523
743.17438	0.04538
741.88861	0.04549
740.60284	0.04560
739.31708	0.04577
738.03131	0.04601
736.74554	0.04629
735.45977	0.04658
734.17400	0.04682
732.88823	0.04695
731.60246	0.04703
730.31669	0.04719
729.03092	0.04751
727.74516	0.04790
726.45939	0.04825
725.17362	0.04856
723.88785	0.04883
722.60208	0.04924
721.31631	0.04967
720.03054	0.04999
718.74477	0.05019
717.45901	0.05028
716.17324	0.05033
714.88747	0.05037
713.60170	0.05044
712.31593	0.05057
711.03016	0.05076
709.74439	0.05099
708.45862	0.05124
707.17285	0.05154
705.88709	0.05189
704.60132	0.05223
703.31555	0.05253
702.02978	0.05276
700.74401	0.05296
699.45824	0.05316
698.17247	0.05335
696.88670	0.05353
695.60094	0.05366
694.31517	0.05375
693.02940	0.05378
691.74363	0.05380
690.45786	0.05383
689.17209	0.05390
687.88632	0.05400
686.60055	0.05409
685.31478	0.05420
684.02902	0.05432
682.74325	0.05445
681.45748	0.05461
680.17171	0.05480
678.88594	0.05503
677.60017	0.05527
676.31440	0.05548
675.02863	0.05563
673.74287	0.05570
672.45710	0.05576
671.17133	0.05584
669.88556	0.05599
668.59979	0.05616
667.31402	0.05631
666.02825	0.05642
664.74248	0.05650
663.45671	0.05658
662.17095	0.05668
660.88518	0.05681
659.59941	0.05696
658.31364	0.05712
657.02787	0.05724
655.74210	0.05732
654.45633	0.05738
653.17056	0.05745
651.88480	0.05755
650.59903	0.05766
649.31326	0.05774
648.02749	0.05779
646.74172	0.05783
645.45595	0.05787
644.17018	0.05791
642.88441	0.05794
641.59864	0.05792
640.31288	0.05786
639.02711	0.05781
637.74134	0.05783
636.45557	0.05789
635.16980	0.05798
633.88403	0.05806
632.59826	0.05809
631.31249	0.05810
630.02673	0.05810
628.74096	0.05807
627.45519	0.05788
626.16942	0.05765
624.88365	0.05730
623.59788	0.05675
622.31211	0.05597
621.02634	0.05501
619.74057	0.05424
618.45481	0.05440
617.16904	0.05577
615.88327	0.05756
614.59750	0.05856
613.31173	0.05827
612.02596	0.05717
610.74019	0.05600
609.45442	0.05525
608.16866	0.05505
606.88289	0.05524
605.59712	0.05549
604.31135	0.05575
603.02558	0.05626
601.73981	0.05709
600.45404	0.05794
599.16827	0.05849
597.88250	0.05877
596.59674	0.05902
595.31097	0.05933
594.02520	0.05958
592.73943	0.05963
591.45366	0.05948
590.16789	0.05931
588.88212	0.05926
587.59635	0.05932
586.31059	0.05935
585.02482	0.05929
583.73905	0.05923
582.45328	0.05923
581.16751	0.05927
579.88174	0.05926
578.59597	0.05918
577.31020	0.05915
576.02443	0.05925
574.73867	0.05946
573.45290	0.05969
572.16713	0.05985
570.88136	0.05998
569.59559	0.06015
568.30982	0.06041
567.02405	0.06067
565.73828	0.06083
564.45251	0.06086
563.16675	0.06084
561.88098	0.06086
560.59521	0.06091
559.30944	0.06091
558.02367	0.06081
556.73790	0.06066
555.45213	0.06058
554.16636	0.06060
552.88060	0.06067
551.59483	0.06071
550.30906	0.06068
549.02329	0.06059
547.73752	0.06051
546.45175	0.06044
545.16598	0.06039
543.88021	0.06036
542.59444	0.06032
541.30868	0.06024
540.02291	0.06013
538.73714	0.06005
537.45137	0.06003
536.16560	0.06010
534.87983	0.06022
533.59406	0.06037
532.30829	0.06049
531.02253	0.06056
529.73676	0.06055
528.45099	0.06049
527.16522	0.06039
525.87945	0.06025
524.59368	0.06006
523.30791	0.05988
522.02214	0.05976
520.73637	0.05969
519.45061	0.05961
518.16484	0.05945
516.87907	0.05924
515.59330	0.05905
514.30753	0.05892
513.02176	0.05885
511.73599	0.05880
510.45022	0.05873
509.16446	0.05856
507.87869	0.05827
506.59292	0.05788
505.30715	0.05747
504.02138	0.05713
502.73561	0.05689
501.44984	0.05671
500.16407	0.05656
498.87830	0.05643
497.59254	0.05633
496.30677	0.05626
495.02100	0.05616
493.73523	0.05597
492.44946	0.05571
491.16369	0.05546
489.87792	0.05532
488.59215	0.05527
487.30639	0.05521
486.02062	0.05509
484.73485	0.05495
483.44908	0.05490
482.16331	0.05492
480.87754	0.05493
479.59177	0.05487
478.30600	0.05476
477.02023	0.05465
475.73447	0.05455
474.44870	0.05437
473.16293	0.05409
471.87716	0.05372
470.59139	0.05337
469.30562	0.05311
468.01985	0.05301
466.73408	0.05304
465.44832	0.05308
464.16255	0.05297
462.87678	0.05266
461.59101	0.05225
460.30524	0.05189
459.01947	0.05162
457.73370	0.05141
456.44793	0.05120
455.16216	0.05099
453.87640	0.05081
452.59063	0.05065
451.30486	0.05048
450.01909	0.05026
448.73332	0.04997
447.44755	0.04964
446.16178	0.04929
444.87601	0.04900
443.59025	0.04877
442.30448	0.04859
441.01871	0.04840
439.73294	0.04815
438.44717	0.04785
437.16140	0.04758
435.87563	0.04739
434.58986	0.04730
433.30409	0.04724
432.01833	0.04715
430.73256	0.04701
429.44679	0.04683
428.16102	0.04661
426.87525	0.04639
425.58948	0.04618
424.30371	0.04599
423.01794	0.04581
421.73218	0.04563
420.44641	0.04544
419.16064	0.04522
417.87487	0.04498
416.58910	0.04474
415.30333	0.04453
414.01756	0.04436
412.73179	0.04423
411.44602	0.04412
410.16026	0.04398
408.87449	0.04381
407.58872	0.04360
406.30295	0.04338
405.01718	0.04316
403.73141	0.04298
402.44564	0.04284
401.15987	0.04272
399.87411	0.04260
