3996.16951	0.04724
3994.24086	0.04750
3992.31221	0.04781
3990.38355	0.04798
3988.45490	0.04824
3986.52625	0.04904
3984.59759	0.04979
3982.66894	0.04981
3980.74029	0.04943
3978.81163	0.04917
3976.88298	0.04881
3974.95433	0.04800
3973.02567	0.04734
3971.09702	0.04744
3969.16837	0.04770
3967.23972	0.04754
3965.31106	0.04733
3963.38241	0.04736
3961.45376	0.04735
3959.52510	0.04701
3957.59645	0.04664
3955.66780	0.04682
3953.73914	0.04761
3951.81049	0.04822
3949.88184	0.04801
3947.95318	0.04740
3946.02453	0.04697
3944.09588	0.04691
3942.16722	0.04695
3940.23857	0.04658
3938.30992	0.04581
3936.38126	0.04536
3934.45261	0.04563
3932.52396	0.04616
3930.59530	0.04646
3928.66665	0.04650
3926.73800	0.04615
3924.80934	0.04552
3922.88069	0.04517
3920.95204	0.04530
3919.02338	0.04569
3917.09473	0.04613
3915.16608	0.04634
3913.23742	0.04620
3911.30877	0.04600
3909.38012	0.04598
3907.45146	0.04594
3905.52281	0.04583
3903.59416	0.04580
3901.66550	0.04561
3899.73685	0.04523
3897.80820	0.04522
3895.87955	0.04582
3893.95089	0.04615
3892.02224	0.04545
3890.09359	0.04460
3888.16493	0.04445
3886.23628	0.04462
3884.30763	0.04475
3882.37897	0.04486
3880.45032	0.04461
3878.52167	0.04382
3876.59301	0.04341
3874.66436	0.04389
3872.73571	0.04437
3870.80705	0.04409
3868.87840	0.04334
3866.94975	0.04305
3865.02109	0.04342
3863.09244	0.04385
3861.16379	0.04409
3859.23513	0.04420
3857.30648	0.04403
3855.37783	0.04367
3853.44917	0.04356
3851.52052	0.04370
3849.59187	0.04360
3847.66321	0.04329
3845.73456	0.04342
3843.80591	0.04412
3841.87725	0.04453
3839.94860	0.04428
3838.01995	0.04397
3836.09129	0.04372
3834.16264	0.04323
3832.23399	0.04291
3830.30534	0.04310
3828.37668	0.04315
3826.44803	0.04286
3824.51938	0.04289
3822.59072	0.04335
3820.66207	0.04361
3818.73342	0.04320
3816.80476	0.04237
3814.87611	0.04214
3812.94746	0.04288
3811.01880	0.04370
3809.09015	0.04370
3807.16150	0.04278
3805.23284	0.04172
3803.30419	0.04123
3801.37554	0.04092
3799.44688	0.04056
3797.51823	0.04057
3795.58958	0.04107
3793.66092	0.04177
3791.73227	0.04216
3789.80362	0.04193
3787.87496	0.04141
3785.94631	0.04116
3784.01766	0.04147
3782.08900	0.04220
3780.16035	0.04264
3778.23170	0.04229
3776.30304	0.04155
3774.37439	0.04120
3772.44574	0.04138
3770.51708	0.04150
3768.58843	0.04102
3766.65978	0.04031
3764.73112	0.04006
3762.80247	0.04010
3760.87382	0.03991
3758.94517	0.03973
3757.01651	0.03979
3755.08786	0.03962
3753.15921	0.03940
3751.23055	0.03989
3749.30190	0.04083
3747.37325	0.04133
3745.44459	0.04116
3743.51594	0.04065
3741.58729	0.04021
3739.65863	0.03996
3737.72998	0.03983
3735.80133	0.03971
3733.87267	0.03938
3731.94402	0.03882
3730.01537	0.03847
3728.08671	0.03875
3726.15806	0.03921
3724.22941	0.03923
3722.30075	0.03893
3720.37210	0.03866
3718.44345	0.03829
3716.51479	0.03805
3714.58614	0.03846
3712.65749	0.03895
3710.72883	0.03866
3708.80018	0.03789
3706.87153	0.03730
3704.94287	0.03733
3703.01422	0.03808
3701.08557	0.03911
3699.15691	0.03968
3697.22826	0.03932
3695.29961	0.03851
3693.37095	0.03808
3691.44230	0.03788
3689.51365	0.03752
3687.58500	0.03746
3685.65634	0.03781
3683.72769	0.03806
3681.79904	0.03837
3679.87038	0.03918
3677.94173	0.04002
3676.01308	0.04001
3674.08442	0.03934
3672.15577	0.03873
3670.22712	0.03840
3668.29846	0.03858
3666.36981	0.03921
3664.44116	0.03961
3662.51250	0.03955
3660.58385	0.03966
3658.65520	0.04049
3656.72654	0.04165
3654.79789	0.04235
3652.86924	0.04252
3650.94058	0.04237
3649.01193	0.04218
3647.08328	0.04246
3645.15462	0.04310
3643.22597	0.04335
3641.29732	0.04331
3639.36866	0.04374
3637.44001	0.04448
3635.51136	0.04495
3633.58270	0.04527
3631.65405	0.04558
3629.72540	0.04559
3627.79674	0.04555
3625.86809	0.04595
3623.93944	0.04640
3622.01079	0.04644
3620.08213	0.04652
3618.15348	0.04726
3616.22483	0.04864
3614.29617	0.04978
3612.36752	0.04996
3610.43887	0.04958
3608.51021	0.04934
3606.58156	0.04952
3604.65291	0.05013
3602.72425	0.05100
3600.79560	0.05173
3598.86695	0.05236
3596.93829	0.05325
3595.00964	0.05432
3593.08099	0.05525
3591.15233	0.05592
3589.22368	0.05624
3587.29503	0.05615
3585.36637	0.05606
3583.43772	0.05664
3581.50907	0.05771
3579.58041	0.05860
3577.65176	0.05926
3575.72311	0.05996
3573.79445	0.06082
3571.86580	0.06175
3569.93715	0.06259
3568.00849	0.06333
3566.07984	0.06386
3564.15119	0.06420
3562.22253	0.06478
3560.29388	0.06581
3558.36523	0.06681
3556.43657	0.06726
3554.50792	0.06721
3552.57927	0.06725
3550.65062	0.06785
3548.72196	0.06887
3546.79331	0.07014
3544.86466	0.07176
3542.93600	0.07320
3541.00735	0.07387
3539.07870	0.07411
3537.15004	0.07451
3535.22139	0.07509
3533.29274	0.07559
3531.36408	0.07602
3529.43543	0.07649
3527.50678	0.07721
3525.57812	0.07821
3523.64947	0.07928
3521.72082	0.08028
3519.79216	0.08105
3517.86351	0.08153
3515.93486	0.08213
3514.00620	0.08285
3512.07755	0.08334
3510.14890	0.08364
3508.22024	0.08412
3506.29159	0.08508
3504.36294	0.08635
3502.43428	0.08727
3500.50563	0.08739
3498.57698	0.08719
3496.64832	0.08720
3494.71967	0.08743
3492.79102	0.08802
3490.86236	0.08906
3488.93371	0.08996
3487.00506	0.09030
3485.07641	0.09027
3483.14775	0.09034
3481.21910	0.09083
3479.29045	0.09167
3477.36179	0.09248
3475.43314	0.09311
3473.50449	0.09380
3471.57583	0.09474
3469.64718	0.09545
3467.71853	0.09555
3465.78987	0.09572
3463.86122	0.09671
3461.93257	0.09799
3460.00391	0.09866
3458.07526	0.09888
3456.14661	0.09925
3454.21795	0.09966
3452.28930	0.09981
3450.36065	0.10008
3448.43199	0.10090
3446.50334	0.10189
3444.57469	0.10252
3442.64603	0.10288
3440.71738	0.10322
3438.78873	0.10358
3436.86007	0.10398
3434.93142	0.10453
3433.00277	0.10506
3431.07411	0.10521
3429.14546	0.10538
3427.21681	0.10606
3425.28815	0.10686
3423.35950	0.10732
3421.43085	0.10769
3419.50219	0.10831
3417.57354	0.10891
3415.64489	0.10918
3413.71624	0.10944
3411.78758	0.10987
3409.85893	0.11035
3407.93028	0.11098
3406.00162	0.11169
3404.07297	0.11212
3402.14432	0.11247
3400.21566	0.11318
3398.28701	0.11392
3396.35836	0.11419
3394.42970	0.11415
3392.50105	0.11416
3390.57240	0.11440
3388.64374	0.11505
3386.71509	0.11598
3384.78644	0.11663
3382.85778	0.11689
3380.92913	0.11719
3379.00048	0.11778
3377.07182	0.11854
3375.14317	0.11938
3373.21452	0.12013
3371.28586	0.12067
3369.35721	0.12118
3367.42856	0.12189
3365.49990	0.12267
3363.57125	0.12354
3361.64260	0.12484
3359.71394	0.12651
3357.78529	0.12784
3355.85664	0.12853
3353.92798	0.12907
3351.99933	0.12983
3350.07068	0.13080
3348.14202	0.13203
3346.21337	0.13358
3344.28472	0.13515
3342.35607	0.13630
3340.42741	0.13705
3338.49876	0.13793
3336.57011	0.13904
3334.64145	0.13990
3332.71280	0.14051
3330.78415	0.14120
3328.85549	0.14198
3326.92684	0.14267
3324.99819	0.14313
3323.06953	0.14342
3321.14088	0.14397
3319.21223	0.14489
3317.28357	0.14567
3315.35492	0.14603
3313.42627	0.14615
3311.49761	0.14612
3309.56896	0.14602
3307.64031	0.14617
3305.71165	0.14682
3303.78300	0.14777
3301.85435	0.14852
3299.92569	0.14864
3297.99704	0.14820
3296.06839	0.14781
3294.13973	0.14781
3292.21108	0.14789
3290.28243	0.14789
3288.35377	0.14767
3286.42512	0.14719
3284.49647	0.14680
3282.56781	0.14671
3280.63916	0.14658
3278.71051	0.14624
3276.78186	0.14587
3274.85320	0.14552
3272.92455	0.14487
3270.99590	0.14389
3269.06724	0.14319
3267.13859	0.14312
3265.20994	0.14319
3263.28128	0.14270
3261.35263	0.14184
3259.42398	0.14125
3257.49532	0.14087
3255.56667	0.14028
3253.63802	0.13967
3251.70936	0.13936
3249.78071	0.13917
3247.85206	0.13885
3245.92340	0.13836
3243.99475	0.13783
3242.06610	0.13738
3240.13744	0.13695
3238.20879	0.13630
3236.28014	0.13562
3234.35148	0.13519
3232.42283	0.13477
3230.49418	0.13427
3228.56552	0.13408
3226.63687	0.13415
3224.70822	0.13401
3222.77956	0.13337
3220.85091	0.13239
3218.92226	0.13163
3216.99360	0.13134
3215.06495	0.13111
3213.13630	0.13065
3211.20764	0.13027
3209.27899	0.13011
3207.35034	0.12981
3205.42169	0.12922
3203.49303	0.12845
3201.56438	0.12772
3199.63573	0.12732
3197.70707	0.12726
3195.77842	0.12702
3193.84977	0.12619
3191.92111	0.12508
3189.99246	0.12429
3188.06381	0.12379
3186.13515	0.12291
3184.20650	0.12170
3182.27785	0.12081
3180.34919	0.12026
3178.42054	0.11966
3176.49189	0.11894
3174.56323	0.11807
3172.63458	0.11711
3170.70593	0.11634
3168.77727	0.11578
3166.84862	0.11522
3164.91997	0.11443
3162.99131	0.11325
3161.06266	0.11195
3159.13401	0.11114
3157.20535	0.11076
3155.27670	0.11024
3153.34805	0.10938
3151.41939	0.10840
3149.49074	0.10759
3147.56209	0.10693
3145.63343	0.10622
3143.70478	0.10551
3141.77613	0.10496
3139.84748	0.10454
3137.91882	0.10412
3135.99017	0.10357
3134.06152	0.10308
3132.13286	0.10269
3130.20421	0.10203
3128.27556	0.10103
3126.34690	0.10014
3124.41825	0.09968
3122.48960	0.09961
3120.56094	0.09962
3118.63229	0.09940
3116.70364	0.09896
3114.77498	0.09861
3112.84633	0.09868
3110.91768	0.09905
3108.98902	0.09916
3107.06037	0.09878
3105.13172	0.09826
3103.20306	0.09801
3101.27441	0.09810
3099.34576	0.09841
3097.41710	0.09882
3095.48845	0.09930
3093.55980	0.09971
3091.63114	0.09994
3089.70249	0.10014
3087.77384	0.10060
3085.84518	0.10117
3083.91653	0.10160
3081.98788	0.10192
3080.05922	0.10212
3078.13057	0.10197
3076.20192	0.10148
3074.27326	0.10107
3072.34461	0.10096
3070.41596	0.10110
3068.48731	0.10127
3066.55865	0.10118
3064.63000	0.10083
3062.70135	0.10037
3060.77269	0.10005
3058.84404	0.09991
3056.91539	0.09956
3054.98673	0.09886
3053.05808	0.09790
3051.12943	0.09693
3049.20077	0.09631
3047.27212	0.09604
3045.34347	0.09566
3043.41481	0.09483
3041.48616	0.09369
3039.55751	0.09284
3037.62885	0.09266
3035.70020	0.09265
3033.77155	0.09197
3031.84289	0.09065
3029.91424	0.08957
3027.98559	0.08908
3026.05693	0.08867
3024.12828	0.08811
3022.19963	0.08761
3020.27097	0.08723
3018.34232	0.08679
3016.41367	0.08632
3014.48501	0.08604
3012.55636	0.08599
3010.62771	0.08600
3008.69905	0.08577
3006.77040	0.08526
3004.84175	0.08474
3002.91309	0.08433
3000.98444	0.08401
2999.05579	0.08393
2997.12714	0.08408
2995.19848	0.08425
2993.26983	0.08454
2991.34118	0.08526
2989.41252	0.08616
2987.48387	0.08669
2985.55522	0.08670
2983.62656	0.08667
2981.69791	0.08692
2979.76926	0.08741
2977.84060	0.08810
2975.91195	0.08889
2973.98330	0.08952
2972.05464	0.09000
2970.12599	0.09055
2968.19734	0.09126
2966.26868	0.09196
2964.34003	0.09245
2962.41138	0.09286
2960.48272	0.09329
2958.55407	0.09362
2956.62542	0.09393
2954.69676	0.09427
2952.76811	0.09444
2950.83946	0.09438
2948.91080	0.09428
2946.98215	0.09447
2945.05350	0.09518
2943.12484	0.09612
2941.19619	0.09706
2939.26754	0.09816
2937.33888	0.09928
2935.41023	0.10031
2933.48158	0.10144
2931.55293	0.10265
2929.62427	0.10378
2927.69562	0.10459
2925.76697	0.10493
2923.83831	0.10497
2921.90966	0.10478
2919.98101	0.10418
2918.05235	0.10306
2916.12370	0.10134
2914.19505	0.09911
2912.26639	0.09668
2910.33774	0.09455
2908.40909	0.09307
2906.48043	0.09188
2904.55178	0.09047
2902.62313	0.08912
2900.69447	0.08816
2898.76582	0.08735
2896.83717	0.08649
2894.90851	0.08567
2892.97986	0.08489
2891.05121	0.08422
2889.12255	0.08392
2887.19390	0.08381
2885.26525	0.08351
2883.33659	0.08318
2881.40794	0.08315
2879.47929	0.08333
2877.55063	0.08345
2875.62198	0.08356
2873.69333	0.08367
2871.76467	0.08349
2869.83602	0.08293
2867.90737	0.08220
2865.97871	0.08155
2864.05006	0.08136
2862.12141	0.08173
2860.19276	0.08224
2858.26410	0.08259
2856.33545	0.08293
2854.40680	0.08354
2852.47814	0.08405
2850.54949	0.08362
2848.62084	0.08204
2846.69218	0.07995
2844.76353	0.07800
2842.83488	0.07636
2840.90622	0.07511
2838.97757	0.07422
2837.04892	0.07340
2835.12026	0.07242
2833.19161	0.07145
2831.26296	0.07072
2829.33430	0.07026
2827.40565	0.07001
2825.47700	0.06978
2823.54834	0.06928
2821.61969	0.06867
2819.69104	0.06834
2817.76238	0.06827
2815.83373	0.06826
2813.90508	0.06830
2811.97642	0.06835
2810.04777	0.06814
2808.11912	0.06756
2806.19046	0.06686
2804.26181	0.06638
2802.33316	0.06614
2800.40450	0.06590
2798.47585	0.06555
2796.54720	0.06521
2794.61855	0.06489
2792.68989	0.06459
2790.76124	0.06448
2788.83259	0.06453
2786.90393	0.06438
2784.97528	0.06392
2783.04663	0.06349
2781.11797	0.06338
2779.18932	0.06345
2777.26067	0.06335
2775.33201	0.06296
2773.40336	0.06249
2771.47471	0.06214
2769.54605	0.06197
2767.61740	0.06191
2765.68875	0.06187
2763.76009	0.06160
2761.83144	0.06110
2759.90279	0.06077
2757.97413	0.06078
2756.04548	0.06090
2754.11683	0.06086
2752.18817	0.06056
2750.25952	0.06014
2748.33087	0.05974
2746.40221	0.05947
2744.47356	0.05943
2742.54491	0.05947
2740.61625	0.05928
2738.68760	0.05891
2736.75895	0.05872
2734.83029	0.05873
2732.90164	0.05874
2730.97299	0.05863
2729.04433	0.05840
2727.11568	0.05819
2725.18703	0.05800
2723.25838	0.05767
2721.32972	0.05724
2719.40107	0.05688
2717.47242	0.05666
2715.54376	0.05655
2713.61511	0.05652
2711.68646	0.05649
2709.75780	0.05637
2707.82915	0.05612
2705.90050	0.05583
2703.97184	0.05566
2702.04319	0.05566
2700.11454	0.05570
2698.18588	0.05561
2696.25723	0.05540
2694.32858	0.05524
2692.39992	0.05515
2690.47127	0.05504
2688.54262	0.05479
2686.61396	0.05448
2684.68531	0.05425
2682.75666	0.05420
2680.82800	0.05425
2678.89935	0.05425
2676.97070	0.05421
2675.04204	0.05420
2673.11339	0.05417
2671.18474	0.05408
2669.25608	0.05400
2667.32743	0.05400
2665.39878	0.05397
2663.47012	0.05384
2661.54147	0.05378
2659.61282	0.05387
2657.68417	0.05385
2655.75551	0.05353
2653.82686	0.05310
2651.89821	0.05275
2649.96955	0.05248
2648.04090	0.05219
2646.11225	0.05200
2644.18359	0.05202
2642.25494	0.05208
2640.32629	0.05198
2638.39763	0.05165
2636.46898	0.05130
2634.54033	0.05112
2632.61167	0.05102
2630.68302	0.05076
2628.75437	0.05034
2626.82571	0.05011
2624.89706	0.04999
2622.96841	0.04958
2621.03975	0.04910
2619.11110	0.04882
2617.18245	0.04843
2615.25379	0.04799
2613.32514	0.04793
2611.39649	0.04817
2609.46783	0.04822
2607.53918	0.04793
2605.61053	0.04754
2603.68187	0.04728
2601.75322	0.04718
2599.82457	0.04702
2597.89591	0.04664
2595.96726	0.04614
2594.03861	0.04558
2592.10995	0.04519
2590.18130	0.04504
2588.25265	0.04485
2586.32400	0.04450
2584.39534	0.04428
2582.46669	0.04441
2580.53804	0.04468
2578.60938	0.04475
2576.68073	0.04460
2574.75208	0.04443
2572.82342	0.04431
2570.89477	0.04419
2568.96612	0.04404
2567.03746	0.04397
2565.10881	0.04406
2563.18016	0.04422
2561.25150	0.04413
2559.32285	0.04376
2557.39420	0.04342
2555.46554	0.04327
2553.53689	0.04325
2551.60824	0.04308
2549.67958	0.04279
2547.75093	0.04279
2545.82228	0.04288
2543.89362	0.04273
2541.96497	0.04249
2540.03632	0.04206
2538.10766	0.04149
2536.17901	0.04124
2534.25036	0.04137
2532.32170	0.04147
2530.39305	0.04135
2528.46440	0.04127
2526.53574	0.04137
2524.60709	0.04143
2522.67844	0.04129
2520.74978	0.04103
2518.82113	0.04083
2516.89248	0.04092
2514.96383	0.04128
2513.03517	0.04136
2511.10652	0.04086
2509.17787	0.04016
2507.24921	0.03987
2505.32056	0.04004
2503.39191	0.04009
2501.46325	0.03998
2499.53460	0.04006
2497.60595	0.04015
2495.67729	0.03994
2493.74864	0.03962
2491.81999	0.03935
2489.89133	0.03904
2487.96268	0.03870
2486.03403	0.03839
2484.10537	0.03816
2482.17672	0.03824
2480.24807	0.03850
2478.31941	0.03863
2476.39076	0.03856
2474.46211	0.03818
2472.53345	0.03768
2470.60480	0.03766
2468.67615	0.03800
2466.74749	0.03823
2464.81884	0.03832
2462.89019	0.03818
2460.96153	0.03786
2459.03288	0.03783
2457.10423	0.03791
2455.17557	0.03770
2453.24692	0.03755
2451.31827	0.03762
2449.38962	0.03753
2447.46096	0.03739
2445.53231	0.03737
2443.60366	0.03711
2441.67500	0.03660
2439.74635	0.03634
2437.81770	0.03645
2435.88904	0.03685
2433.96039	0.03739
2432.03174	0.03748
2430.10308	0.03686
2428.17443	0.03635
2426.24578	0.03638
2424.31712	0.03655
2422.38847	0.03678
2420.45982	0.03708
2418.53116	0.03703
2416.60251	0.03658
2414.67386	0.03613
2412.74520	0.03605
2410.81655	0.03638
2408.88790	0.03673
2406.95924	0.03677
2405.03059	0.03655
2403.10194	0.03627
2401.17328	0.03618
2399.24463	0.03638
2397.31598	0.03668
2395.38732	0.03678
2393.45867	0.03668
2391.53002	0.03640
2389.60136	0.03609
2387.67271	0.03588
2385.74406	0.03573
2383.81540	0.03557
2381.88675	0.03549
2379.95810	0.03568
2378.02945	0.03607
2376.10079	0.03641
2374.17214	0.03662
2372.24349	0.03671
2370.31483	0.03667
2368.38618	0.03645
2366.45753	0.03615
2364.52887	0.03600
2362.60022	0.03598
2360.67157	0.03600
2358.74291	0.03613
2356.81426	0.03643
2354.88561	0.03676
2352.95695	0.03699
2351.02830	0.03705
2349.09965	0.03693
2347.17099	0.03684
2345.24234	0.03685
2343.31369	0.03669
2341.38503	0.03621
2339.45638	0.03583
2337.52773	0.03584
2335.59907	0.03604
2333.67042	0.03615
2331.74177	0.03601
2329.81311	0.03566
2327.88446	0.03562
2325.95581	0.03630
2324.02715	0.03709
2322.09850	0.03712
2320.16985	0.03660
2318.24119	0.03613
2316.31254	0.03571
2314.38389	0.03521
2312.45524	0.03471
2310.52658	0.03442
2308.59793	0.03432
2306.66928	0.03404
2304.74062	0.03349
2302.81197	0.03304
2300.88332	0.03289
2298.95466	0.03292
2297.02601	0.03294
2295.09736	0.03289
2293.16870	0.03272
2291.24005	0.03249
2289.31140	0.03250
2287.38274	0.03264
2285.45409	0.03242
2283.52544	0.03192
2281.59678	0.03147
2279.66813	0.03102
2277.73948	0.03038
2275.81082	0.02957
2273.88217	0.02911
2271.95352	0.02939
2270.02486	0.02985
2268.09621	0.02969
2266.16756	0.02893
2264.23890	0.02795
2262.31025	0.02719
2260.38160	0.02709
2258.45294	0.02744
2256.52429	0.02748
2254.59564	0.02690
2252.66698	0.02636
2250.73833	0.02657
2248.80968	0.02724
2246.88102	0.02706
2244.95237	0.02688
2243.02372	0.02680
2241.09507	0.02664
2239.16641	0.02672
2237.23776	0.02691
2235.30911	0.02684
2233.38045	0.02633
2231.45180	0.02553
2229.52315	0.02525
2227.59449	0.02558
2225.66584	0.02579
2223.73719	0.02571
2221.80853	0.02546
2219.87988	0.02477
2217.95123	0.02415
2216.02257	0.02458
2214.09392	0.02489
2212.16527	0.02406
2210.23661	0.02356
2208.30796	0.02354
2206.37931	0.02276
2204.45065	0.02188
2202.52200	0.02193
2200.59335	0.02255
2198.66469	0.02321
2196.73604	0.02378
2194.80739	0.02396
2192.87873	0.02359
2190.95008	0.02311
2189.02143	0.02279
2187.09277	0.02260
2185.16412	0.02241
2183.23547	0.02226
2181.30681	0.02256
2179.37816	0.02322
2177.44951	0.02337
2175.52085	0.02216
2173.59220	0.02019
2171.66355	0.01925
2169.73490	0.01937
2167.80624	0.01929
2165.87759	0.01933
2163.94894	0.01927
2162.02028	0.01764
2160.09163	0.01494
2158.16298	0.01345
2156.23432	0.01434
2154.30567	0.01660
2152.37702	0.01836
2150.44836	0.01921
2148.51971	0.01941
2146.59106	0.01931
2144.66240	0.01967
2142.73375	0.02037
2140.80510	0.02080
2138.87644	0.02083
2136.94779	0.02031
2135.01914	0.01962
2133.09048	0.01975
2131.16183	0.02099
2129.23318	0.02263
2127.30452	0.02416
2125.37587	0.02512
2123.44722	0.02497
2121.51856	0.02435
2119.58991	0.02447
2117.66126	0.02515
2115.73260	0.02525
2113.80395	0.02476
2111.87530	0.02446
2109.94664	0.02440
2108.01799	0.02429
2106.08934	0.02403
2104.16069	0.02368
2102.23203	0.02370
2100.30338	0.02415
2098.37473	0.02443
2096.44607	0.02429
2094.51742	0.02413
2092.58877	0.02405
2090.66011	0.02398
2088.73146	0.02402
2086.80281	0.02416
2084.87415	0.02411
2082.94550	0.02377
2081.01685	0.02335
2079.08819	0.02313
2077.15954	0.02292
2075.23089	0.02257
2073.30223	0.02260
2071.37358	0.02285
2069.44493	0.02229
2067.51627	0.02123
2065.58762	0.02104
2063.65897	0.02149
2061.73031	0.02128
2059.80166	0.02038
2057.87301	0.01961
2055.94435	0.01924
2054.01570	0.01917
2052.08705	0.01915
2050.15839	0.01914
2048.22974	0.01930
2046.30109	0.01937
2044.37243	0.01929
2042.44378	0.01949
2040.51513	0.01962
2038.58647	0.01874
2036.65782	0.01733
2034.72917	0.01690
2032.80052	0.01726
2030.87186	0.01706
2028.94321	0.01655
2027.01456	0.01680
2025.08590	0.01770
2023.15725	0.01826
2021.22860	0.01814
2019.29994	0.01763
2017.37129	0.01664
2015.44264	0.01582
2013.51398	0.01633
2011.58533	0.01723
2009.65668	0.01689
2007.72802	0.01572
2005.79937	0.01523
2003.87072	0.01599
2001.94206	0.01731
2000.01341	0.01837
1998.08476	0.01892
1996.15610	0.01884
1994.22745	0.01816
1992.29880	0.01712
1990.37014	0.01631
1988.44149	0.01628
1986.51284	0.01672
1984.58418	0.01677
1982.65553	0.01635
1980.72688	0.01658
1978.79822	0.01792
1976.86957	0.01923
1974.94092	0.01984
1973.01226	0.01965
1971.08361	0.01858
1969.15496	0.01752
1967.22631	0.01681
1965.29765	0.01592
1963.36900	0.01529
1961.44035	0.01550
1959.51169	0.01612
1957.58304	0.01665
1955.65439	0.01700
1953.72573	0.01733
1951.79708	0.01754
1949.86843	0.01742
1947.93977	0.01743
1946.01112	0.01789
1944.08247	0.01831
1942.15381	0.01880
1940.22516	0.01964
1938.29651	0.02016
1936.36785	0.01986
1934.43920	0.01939
1932.51055	0.01924
1930.58189	0.01926
1928.65324	0.01958
1926.72459	0.01996
1924.79593	0.01982
1922.86728	0.01932
1920.93863	0.01906
1919.00997	0.01915
1917.08132	0.01934
1915.15267	0.01955
1913.22401	0.01974
1911.29536	0.01994
1909.36671	0.02013
1907.43805	0.02014
1905.50940	0.02011
1903.58075	0.02020
1901.65209	0.02026
1899.72344	0.02016
1897.79479	0.02007
1895.86614	0.02034
1893.93748	0.02080
1892.00883	0.02072
1890.08018	0.02001
1888.15152	0.01945
1886.22287	0.01959
1884.29422	0.02009
1882.36556	0.02033
1880.43691	0.02018
1878.50826	0.01988
1876.57960	0.01985
1874.65095	0.02027
1872.72230	0.02063
1870.79364	0.02043
1868.86499	0.01989
1866.93634	0.01945
1865.00768	0.01927
1863.07903	0.01926
1861.15038	0.01924
1859.22172	0.01922
1857.29307	0.01926
1855.36442	0.01944
1853.43576	0.01965
1851.50711	0.01974
1849.57846	0.01960
1847.64980	0.01937
1845.72115	0.01926
1843.79250	0.01924
1841.86384	0.01918
1839.93519	0.01914
1838.00654	0.01913
1836.07788	0.01919
1834.14923	0.01930
1832.22058	0.01935
1830.29192	0.01932
1828.36327	0.01929
1826.43462	0.01931
1824.50597	0.01930
1822.57731	0.01924
1820.64866	0.01920
1818.72001	0.01909
1816.79135	0.01888
1814.86270	0.01870
1812.93405	0.01865
1811.00539	0.01870
1809.07674	0.01879
1807.14809	0.01877
1805.21943	0.01863
1803.29078	0.01858
1801.36213	0.01867
1799.43347	0.01882
1797.50482	0.01897
1795.57617	0.01903
1793.64751	0.01887
1791.71886	0.01862
1789.79021	0.01860
1787.86155	0.01871
1785.93290	0.01868
1784.00425	0.01852
1782.07559	0.01844
1780.14694	0.01839
1778.21829	0.01829
1776.28963	0.01819
1774.36098	0.01814
1772.43233	0.01807
1770.50367	0.01791
1768.57502	0.01778
1766.64637	0.01777
1764.71771	0.01784
1762.78906	0.01793
1760.86041	0.01805
1758.93176	0.01827
1757.00310	0.01863
1755.07445	0.01898
1753.14580	0.01924
1751.21714	0.01952
1749.28849	0.01993
1747.35984	0.02037
1745.43118	0.02074
1743.50253	0.02113
1741.57388	0.02168
1739.64522	0.02238
1737.71657	0.02308
1735.78792	0.02378
1733.85926	0.02455
1731.93061	0.02526
1730.00196	0.02580
1728.07330	0.02632
1726.14465	0.02701
1724.21600	0.02788
1722.28734	0.02878
1720.35869	0.02971
1718.43004	0.03072
1716.50138	0.03177
1714.57273	0.03283
1712.64408	0.03392
1710.71542	0.03496
1708.78677	0.03594
1706.85812	0.03701
1704.92946	0.03834
1703.00081	0.04001
1701.07216	0.04204
1699.14350	0.04431
1697.21485	0.04672
1695.28620	0.04934
1693.35754	0.05208
1691.42889	0.05487
1689.50024	0.05781
1687.57159	0.06094
1685.64293	0.06435
1683.71428	0.06815
1681.78563	0.07228
1679.85697	0.07671
1677.92832	0.08140
1675.99967	0.08632
1674.07101	0.09146
1672.14236	0.09681
1670.21371	0.10236
1668.28505	0.10797
1666.35640	0.11343
1664.42775	0.11869
1662.49909	0.12377
1660.57044	0.12860
1658.64179	0.13301
1656.71313	0.13682
1654.78448	0.14000
1652.85583	0.14270
1650.92717	0.14499
1648.99852	0.14696
1647.06987	0.14871
1645.14121	0.15024
1643.21256	0.15164
1641.28391	0.15305
1639.35525	0.15441
1637.42660	0.15560
1635.49795	0.15670
1633.56929	0.15768
1631.64064	0.15822
1629.71199	0.15799
1627.78333	0.15686
1625.85468	0.15488
1623.92603	0.15208
1621.99738	0.14852
1620.06872	0.14436
1618.14007	0.13970
1616.21142	0.13459
1614.28276	0.12935
1612.35411	0.12421
1610.42546	0.11907
1608.49680	0.11386
1606.56815	0.10871
1604.63950	0.10382
1602.71084	0.09923
1600.78219	0.09488
1598.85354	0.09084
1596.92488	0.08725
1594.99623	0.08415
1593.06758	0.08147
1591.13892	0.07920
1589.21027	0.07736
1587.28162	0.07595
1585.35296	0.07499
1583.42431	0.07451
1581.49566	0.07450
1579.56700	0.07495
1577.63835	0.07598
1575.70970	0.07767
1573.78104	0.07985
1571.85239	0.08240
1569.92374	0.08534
1567.99508	0.08864
1566.06643	0.09217
1564.13778	0.09582
1562.20912	0.09947
1560.28047	0.10316
1558.35182	0.10677
1556.42316	0.10995
1554.49451	0.11266
1552.56586	0.11505
1550.63721	0.11708
1548.70855	0.11870
1546.77990	0.11992
1544.85125	0.12074
1542.92259	0.12118
1540.99394	0.12121
1539.06529	0.12079
1537.13663	0.11997
1535.20798	0.11888
1533.27933	0.11757
1531.35067	0.11606
1529.42202	0.11443
1527.49337	0.11277
1525.56471	0.11103
1523.63606	0.10910
1521.70741	0.10703
1519.77875	0.10497
1517.85010	0.10290
1515.92145	0.10065
1513.99279	0.09802
1512.06414	0.09505
1510.13549	0.09202
1508.20683	0.08900
1506.27818	0.08589
1504.34953	0.08274
1502.42087	0.07974
1500.49222	0.07691
1498.56357	0.07422
1496.63491	0.07162
1494.70626	0.06910
1492.77761	0.06681
1490.84895	0.06486
1488.92030	0.06314
1486.99165	0.06167
1485.06299	0.06067
1483.13434	0.06025
1481.20569	0.06036
1479.27704	0.06082
1477.34838	0.06160
1475.41973	0.06278
1473.49108	0.06441
1471.56242	0.06640
1469.63377	0.06854
1467.70512	0.07069
1465.77646	0.07275
1463.84781	0.07475
1461.91916	0.07674
1459.99050	0.07881
1458.06185	0.08095
1456.13320	0.08285
1454.20454	0.08425
1452.27589	0.08509
1450.34724	0.08538
1448.41858	0.08516
1446.48993	0.08457
1444.56128	0.08371
1442.63262	0.08261
1440.70397	0.08137
1438.77532	0.08001
1436.84666	0.07844
1434.91801	0.07668
1432.98936	0.07493
1431.06070	0.07338
1429.13205	0.07213
1427.20340	0.07121
1425.27474	0.07059
1423.34609	0.07018
1421.41744	0.06990
1419.48878	0.06969
1417.56013	0.06958
1415.63148	0.06960
1413.70283	0.06976
1411.77417	0.06995
1409.84552	0.07011
1407.91687	0.07021
1405.98821	0.07019
1404.05956	0.06995
1402.13091	0.06947
1400.20225	0.06874
1398.27360	0.06782
1396.34495	0.06688
1394.41629	0.06612
1392.48764	0.06559
1390.55899	0.06522
1388.63033	0.06499
1386.70168	0.06484
1384.77303	0.06472
1382.84437	0.06462
1380.91572	0.06453
1378.98707	0.06443
1377.05841	0.06425
1375.12976	0.06387
1373.20111	0.06327
1371.27245	0.06253
1369.34380	0.06172
1367.41515	0.06080
1365.48649	0.05982
1363.55784	0.05893
1361.62919	0.05820
1359.70053	0.05769
1357.77188	0.05746
1355.84323	0.05762
1353.91457	0.05811
1351.98592	0.05882
1350.05727	0.05971
1348.12861	0.06083
1346.19996	0.06211
1344.27131	0.06333
1342.34266	0.06430
1340.41400	0.06505
1338.48535	0.06564
1336.55670	0.06598
1334.62804	0.06592
1332.69939	0.06543
1330.77074	0.06460
1328.84208	0.06353
1326.91343	0.06242
1324.98478	0.06146
1323.05612	0.06072
1321.12747	0.06015
1319.19882	0.05964
1317.27016	0.05921
1315.34151	0.05893
1313.41286	0.05870
1311.48420	0.05839
1309.55555	0.05801
1307.62690	0.05772
1305.69824	0.05756
1303.76959	0.05744
1301.84094	0.05731
1299.91228	0.05717
1297.98363	0.05710
1296.05498	0.05723
1294.12632	0.05765
1292.19767	0.05832
1290.26902	0.05916
1288.34036	0.06005
1286.41171	0.06092
1284.48306	0.06168
1282.55440	0.06228
1280.62575	0.06259
1278.69710	0.06265
1276.76845	0.06261
1274.83979	0.06259
1272.91114	0.06262
1270.98249	0.06278
1269.05383	0.06309
1267.12518	0.06348
1265.19653	0.06398
1263.26787	0.06461
1261.33922	0.06533
1259.41057	0.06612
1257.48191	0.06697
1255.55326	0.06790
1253.62461	0.06896
1251.69595	0.07025
1249.76730	0.07174
1247.83865	0.07325
1245.90999	0.07471
1243.98134	0.07620
1242.05269	0.07769
1240.12403	0.07891
1238.19538	0.07975
1236.26673	0.08018
1234.33807	0.08018
1232.40942	0.07979
1230.48077	0.07901
1228.55211	0.07780
1226.62346	0.07620
1224.69481	0.07436
1222.76615	0.07252
1220.83750	0.07083
1218.90885	0.06935
1216.98019	0.06815
1215.05154	0.06735
1213.12289	0.06705
1211.19423	0.06717
1209.26558	0.06758
1207.33693	0.06814
1205.40828	0.06870
1203.47962	0.06910
1201.55097	0.06915
1199.62232	0.06866
1197.69366	0.06781
1195.76501	0.06671
1193.83636	0.06552
1191.90770	0.06436
1189.97905	0.06330
1188.05040	0.06234
1186.12174	0.06146
1184.19309	0.06068
1182.26444	0.06014
1180.33578	0.05989
1178.40713	0.05975
1176.47848	0.05957
1174.54982	0.05936
1172.62117	0.05921
1170.69252	0.05909
1168.76386	0.05901
1166.83521	0.05905
1164.90656	0.05914
1162.97790	0.05919
1161.04925	0.05915
1159.12060	0.05886
1157.19194	0.05833
1155.26329	0.05782
1153.33464	0.05728
1151.40598	0.05661
1149.47733	0.05587
1147.54868	0.05510
1145.62002	0.05435
1143.69137	0.05373
1141.76272	0.05321
1139.83406	0.05270
1137.90541	0.05222
1135.97676	0.05179
1134.04811	0.05146
1132.11945	0.05131
1130.19080	0.05135
1128.26215	0.05142
1126.33349	0.05139
1124.40484	0.05127
1122.47619	0.05115
1120.54753	0.05113
1118.61888	0.05127
1116.69023	0.05151
1114.76157	0.05165
1112.83292	0.05156
1110.90427	0.05146
1108.97561	0.05151
1107.04696	0.05168
1105.11831	0.05198
1103.18965	0.05240
1101.26100	0.05286
1099.33235	0.05323
1097.40369	0.05356
1095.47504	0.05395
1093.54639	0.05438
1091.61773	0.05488
1089.68908	0.05561
1087.76043	0.05663
1085.83177	0.05777
1083.90312	0.05878
1081.97447	0.05953
1080.04581	0.05990
1078.11716	0.05979
1076.18851	0.05940
1074.25985	0.05903
1072.33120	0.05865
1070.40255	0.05812
1068.47390	0.05758
1066.54524	0.05724
1064.61659	0.05709
1062.68794	0.05704
1060.75928	0.05690
1058.83063	0.05653
1056.90198	0.05599
1054.97332	0.05551
1053.04467	0.05511
1051.11602	0.05466
1049.18736	0.05422
1047.25871	0.05384
1045.33006	0.05348
1043.40140	0.05322
1041.47275	0.05314
1039.54410	0.05317
1037.61544	0.05335
1035.68679	0.05373
1033.75814	0.05417
1031.82948	0.05437
1029.90083	0.05410
1027.97218	0.05334
1026.04352	0.05231
1024.11487	0.05132
1022.18622	0.05048
1020.25756	0.04980
1018.32891	0.04930
1016.40026	0.04891
1014.47160	0.04844
1012.54295	0.04779
1010.61430	0.04702
1008.68564	0.04618
1006.75699	0.04532
1004.82834	0.04454
1002.89968	0.04395
1000.97103	0.04349
999.04238	0.04297
997.11373	0.04234
995.18507	0.04172
993.25642	0.04123
991.32777	0.04088
989.39911	0.04055
987.47046	0.04018
985.54181	0.03983
983.61315	0.03963
981.68450	0.03965
979.75585	0.03982
977.82719	0.04004
975.89854	0.04026
973.96989	0.04037
972.04123	0.04029
970.11258	0.04010
968.18393	0.03994
966.25527	0.03982
964.32662	0.03961
962.39797	0.03931
960.46931	0.03902
958.54066	0.03886
956.61201	0.03876
954.68335	0.03861
952.75470	0.03845
950.82605	0.03835
948.89739	0.03831
946.96874	0.03829
945.04009	0.03836
943.11143	0.03854
941.18278	0.03862
939.25413	0.03848
937.32547	0.03820
935.39682	0.03795
933.46817	0.03786
931.53952	0.03776
929.61086	0.03743
927.68221	0.03698
925.75356	0.03669
923.82490	0.03660
921.89625	0.03654
919.96760	0.03629
918.03894	0.03583
916.11029	0.03530
914.18164	0.03481
912.25298	0.03433
910.32433	0.03389
908.39568	0.03374
906.46702	0.03387
904.53837	0.03394
902.60972	0.03374
900.68106	0.03338
898.75241	0.03309
896.82376	0.03294
894.89510	0.03282
892.96645	0.03255
891.03780	0.03208
889.10914	0.03176
887.18049	0.03180
885.25184	0.03198
883.32318	0.03211
881.39453	0.03211
879.46588	0.03210
877.53722	0.03238
875.60857	0.03269
873.67992	0.03264
871.75126	0.03242
869.82261	0.03226
867.89396	0.03213
865.96530	0.03194
864.03665	0.03170
862.10800	0.03155
860.17935	0.03148
858.25069	0.03141
856.32204	0.03153
854.39339	0.03181
852.46473	0.03186
850.53608	0.03154
848.60743	0.03111
846.67877	0.03082
844.75012	0.03068
842.82147	0.03055
840.89281	0.03035
838.96416	0.03013
837.03551	0.02993
835.10685	0.02984
833.17820	0.02988
831.24955	0.02990
829.32089	0.02980
827.39224	0.02979
825.46359	0.03003
823.53493	0.03036
821.60628	0.03067
819.67763	0.03100
817.74897	0.03116
815.82032	0.03112
813.89167	0.03128
811.96301	0.03169
810.03436	0.03195
808.10571	0.03194
806.17705	0.03193
804.24840	0.03207
802.31975	0.03230
800.39109	0.03263
798.46244	0.03294
796.53379	0.03297
794.60513	0.03279
792.67648	0.03270
790.74783	0.03283
788.81918	0.03307
786.89052	0.03332
784.96187	0.03370
783.03322	0.03414
781.10456	0.03445
779.17591	0.03461
777.24726	0.03468
775.31860	0.03465
773.38995	0.03455
771.46130	0.03441
769.53264	0.03436
767.60399	0.03453
765.67534	0.03482
763.74668	0.03504
761.81803	0.03524
759.88938	0.03565
757.96072	0.03620
756.03207	0.03659
754.10342	0.03657
752.17476	0.03637
750.24611	0.03645
748.31746	0.03680
746.38880	0.03714
744.46015	0.03746
742.53150	0.03784
740.60284	0.03809
738.67419	0.03818
736.74554	0.03839
734.81688	0.03866
732.88823	0.03882
730.95958	0.03920
729.03092	0.03993
727.10227	0.04051
725.17362	0.04075
723.24497	0.04080
721.31631	0.04126
719.38766	0.04161
717.45901	0.04183
715.53035	0.04200
713.60170	0.04212
711.67305	0.04231
709.74439	0.04268
707.81574	0.04310
705.88709	0.04344
703.95843	0.04375
702.02978	0.04400
700.10113	0.04421
698.17247	0.04452
696.24382	0.04487
694.31517	0.04507
692.38651	0.04503
690.45786	0.04493
688.52921	0.04498
686.60055	0.04525
684.67190	0.04562
682.74325	0.04595
680.81459	0.04613
678.88594	0.04618
676.95729	0.04628
675.02863	0.04658
673.09998	0.04693
671.17133	0.04716
669.24267	0.04737
667.31402	0.04754
665.38537	0.04762
663.45671	0.04774
661.52806	0.04797
659.59941	0.04818
657.67075	0.04837
655.74210	0.04862
653.81345	0.04896
651.88480	0.04941
649.95614	0.04976
648.02749	0.04949
646.09884	0.04889
644.17018	0.04882
642.24153	0.04924
640.31288	0.04964
638.38422	0.04993
636.45557	0.05013
634.52692	0.05011
632.59826	0.04991
630.66961	0.04947
628.74096	0.04845
626.81230	0.04951
624.88365	0.05146
622.95500	0.05284
621.02634	0.05221
619.09769	0.05086
617.16904	0.04928
615.24038	0.04611
613.31173	0.04431
611.38308	0.04682
609.45442	0.05065
607.52577	0.05281
605.59712	0.05310
603.66846	0.05202
601.73981	0.05079
599.81116	0.05038
597.88250	0.05029
595.95385	0.04993
594.02520	0.04979
592.09654	0.05028
590.16789	0.05082
588.23924	0.05103
586.31059	0.05124
584.38193	0.05155
582.45328	0.05150
580.52463	0.05101
578.59597	0.05060
576.66732	0.05052
574.73867	0.05050
572.81001	0.05053
570.88136	0.05092
568.95271	0.05142
567.02405	0.05173
565.09540	0.05207
563.16675	0.05253
561.23809	0.05300
559.30944	0.05331
557.38079	0.05321
555.45213	0.05281
553.52348	0.05249
551.59483	0.05220
549.66617	0.05180
547.73752	0.05145
545.80887	0.05131
543.88021	0.05135
541.95156	0.05140
540.02291	0.05128
538.09425	0.05123
536.16560	0.05157
534.23695	0.05196
532.30829	0.05208
530.37964	0.05219
528.45099	0.05241
526.52233	0.05227
524.59368	0.05169
522.66503	0.05122
520.73637	0.05083
518.80772	0.05019
516.87907	0.04962
514.95042	0.04949
513.02176	0.04964
511.09311	0.04985
509.16446	0.04994
507.23580	0.04977
505.30715	0.04923
503.37850	0.04827
501.44984	0.04720
499.52119	0.04670
497.59254	0.04697
495.66388	0.04739
493.73523	0.04734
491.80658	0.04683
489.87792	0.04626
487.94927	0.04588
486.02062	0.04570
484.09196	0.04566
482.16331	0.04577
480.23466	0.04596
478.30600	0.04603
476.37735	0.04582
474.44870	0.04543
472.52004	0.04508
470.59139	0.04498
468.66274	0.04509
466.73408	0.04518
464.80543	0.04509
462.87678	0.04477
460.94812	0.04419
459.01947	0.04358
457.09082	0.04326
455.16216	0.04303
453.23351	0.04267
451.30486	0.04227
449.37620	0.04186
447.44755	0.04144
445.51890	0.04106
443.59025	0.04064
441.66159	0.04019
439.73294	0.03989
437.80429	0.03976
435.87563	0.03964
433.94698	0.03944
432.01833	0.03920
430.08967	0.03888
428.16102	0.03847
426.23237	0.03809
424.30371	0.03778
422.37506	0.03748
420.44641	0.03719
418.51775	0.03686
416.58910	0.03651
414.66045	0.03624
412.73179	0.03608
410.80314	0.03596
408.87449	0.03577
406.94583	0.03550
405.01718	0.03514
403.08853	0.03473
401.15987	0.03436
399.23122	0.03402
