3997.45528	0.04504
3996.16951	0.04458
3994.88374	0.04418
3993.59798	0.04382
3992.31221	0.04361
3991.02644	0.04364
3989.74067	0.04384
3988.45490	0.04407
3987.16913	0.04419
3985.88336	0.04411
3984.59759	0.04388
3983.31183	0.04368
3982.02606	0.04362
3980.74029	0.04358
3979.45452	0.04341
3978.16875	0.04318
3976.88298	0.04306
3975.59721	0.04310
3974.31144	0.04311
3973.02567	0.04302
3971.73991	0.04295
3970.45414	0.04309
3969.16837	0.04353
3967.88260	0.04420
3966.59683	0.04490
3965.31106	0.04537
3964.02529	0.04546
3962.73952	0.04521
3961.45376	0.04475
3960.16799	0.04417
3958.88222	0.04359
3957.59645	0.04323
3956.31068	0.04316
3955.02491	0.04323
3953.73914	0.04319
3952.45337	0.04304
3951.16760	0.04289
3949.88184	0.04276
3948.59607	0.04250
3947.31030	0.04213
3946.02453	0.04188
3944.73876	0.04186
3943.45299	0.04185
3942.16722	0.04155
3940.88145	0.04107
3939.59569	0.04081
3938.30992	0.04105
3937.02415	0.04161
3935.73838	0.04206
3934.45261	0.04207
3933.16684	0.04162
3931.88107	0.04089
3930.59530	0.04014
3929.30953	0.03958
3928.02377	0.03942
3926.73800	0.03980
3925.45223	0.04066
3924.16646	0.04169
3922.88069	0.04258
3921.59492	0.04322
3920.30915	0.04358
3919.02338	0.04354
3917.73762	0.04294
3916.45185	0.04195
3915.16608	0.04106
3913.88031	0.04069
3912.59454	0.04083
3911.30877	0.04121
3910.02300	0.04159
3908.73723	0.04172
3907.45146	0.04140
3906.16570	0.04072
3904.87993	0.04010
3903.59416	0.03998
3902.30839	0.04048
3901.02262	0.04131
3899.73685	0.04203
3898.45108	0.04232
3897.16531	0.04207
3895.87955	0.04150
3894.59378	0.04093
3893.30801	0.04062
3892.02224	0.04062
3890.73647	0.04082
3889.45070	0.04124
3888.16493	0.04188
3886.87916	0.04238
3885.59339	0.04237
3884.30763	0.04204
3883.02186	0.04201
3881.73609	0.04243
3880.45032	0.04278
3879.16455	0.04259
3877.87878	0.04196
3876.59301	0.04140
3875.30724	0.04125
3874.02148	0.04146
3872.73571	0.04177
3871.44994	0.04197
3870.16417	0.04195
3868.87840	0.04185
3867.59263	0.04195
3866.30686	0.04219
3865.02109	0.04225
3863.73532	0.04203
3862.44956	0.04178
3861.16379	0.04167
3859.87802	0.04159
3858.59225	0.04141
3857.30648	0.04126
3856.02071	0.04129
3854.73494	0.04123
3853.44917	0.04071
3852.16341	0.03992
3850.87764	0.03951
3849.59187	0.03979
3848.30610	0.04036
3847.02033	0.04078
3845.73456	0.04089
3844.44879	0.04081
3843.16302	0.04071
3841.87725	0.04072
3840.59149	0.04096
3839.30572	0.04121
3838.01995	0.04101
3836.73418	0.04018
3835.44841	0.03915
3834.16264	0.03860
3832.87687	0.03879
3831.59110	0.03942
3830.30534	0.03998
3829.01957	0.04023
3827.73380	0.04024
3826.44803	0.04028
3825.16226	0.04061
3823.87649	0.04129
3822.59072	0.04198
3821.30495	0.04212
3820.01918	0.04155
3818.73342	0.04070
3817.44765	0.03997
3816.16188	0.03936
3814.87611	0.03885
3813.59034	0.03871
3812.30457	0.03894
3811.01880	0.03920
3809.73303	0.03925
3808.44726	0.03913
3807.16150	0.03884
3805.87573	0.03855
3804.58996	0.03870
3803.30419	0.03936
3802.01842	0.03996
3800.73265	0.03988
3799.44688	0.03931
3798.16111	0.03878
3796.87535	0.03845
3795.58958	0.03816
3794.30381	0.03800
3793.01804	0.03815
3791.73227	0.03857
3790.44650	0.03901
3789.16073	0.03925
3787.87496	0.03930
3786.58919	0.03933
3785.30343	0.03945
3784.01766	0.03956
3782.73189	0.03951
3781.44612	0.03924
3780.16035	0.03884
3778.87458	0.03840
3777.58881	0.03808
3776.30304	0.03801
3775.01728	0.03816
3773.73151	0.03835
3772.44574	0.03840
3771.15997	0.03820
3769.87420	0.03782
3768.58843	0.03746
3767.30266	0.03732
3766.01689	0.03733
3764.73112	0.03730
3763.44536	0.03722
3762.15959	0.03726
3760.87382	0.03746
3759.58805	0.03766
3758.30228	0.03770
3757.01651	0.03752
3755.73074	0.03726
3754.44497	0.03718
3753.15921	0.03731
3751.87344	0.03742
3750.58767	0.03741
3749.30190	0.03755
3748.01613	0.03819
3746.73036	0.03931
3745.44459	0.04028
3744.15882	0.04036
3742.87305	0.03977
3741.58729	0.03937
3740.30152	0.03939
3739.01575	0.03934
3737.72998	0.03883
3736.44421	0.03789
3735.15844	0.03684
3733.87267	0.03602
3732.58690	0.03561
3731.30114	0.03566
3730.01537	0.03623
3728.72960	0.03721
3727.44383	0.03815
3726.15806	0.03854
3724.87229	0.03837
3723.58652	0.03795
3722.30075	0.03746
3721.01498	0.03688
3719.72922	0.03633
3718.44345	0.03602
3717.15768	0.03595
3715.87191	0.03584
3714.58614	0.03549
3713.30037	0.03487
3712.01460	0.03418
3710.72883	0.03372
3709.44307	0.03371
3708.15730	0.03411
3706.87153	0.03470
3705.58576	0.03524
3704.29999	0.03559
3703.01422	0.03568
3701.72845	0.03554
3700.44268	0.03529
3699.15691	0.03510
3697.87115	0.03509
3696.58538	0.03525
3695.29961	0.03549
3694.01384	0.03567
3692.72807	0.03573
3691.44230	0.03571
3690.15653	0.03577
3688.87076	0.03589
3687.58500	0.03577
3686.29923	0.03519
3685.01346	0.03438
3683.72769	0.03387
3682.44192	0.03404
3681.15615	0.03482
3679.87038	0.03569
3678.58461	0.03611
3677.29884	0.03593
3676.01308	0.03531
3674.72731	0.03467
3673.44154	0.03463
3672.15577	0.03541
3670.87000	0.03639
3669.58423	0.03673
3668.29846	0.03632
3667.01269	0.03570
3665.72693	0.03534
3664.44116	0.03525
3663.15539	0.03524
3661.86962	0.03521
3660.58385	0.03522
3659.29808	0.03529
3658.01231	0.03520
3656.72654	0.03479
3655.44077	0.03433
3654.15501	0.03452
3652.86924	0.03568
3651.58347	0.03720
3650.29770	0.03803
3649.01193	0.03774
3647.72616	0.03680
3646.44039	0.03595
3645.15462	0.03558
3643.86886	0.03564
3642.58309	0.03599
3641.29732	0.03654
3640.01155	0.03721
3638.72578	0.03792
3637.44001	0.03862
3636.15424	0.03927
3634.86847	0.03968
3633.58270	0.03959
3632.29694	0.03897
3631.01117	0.03803
3629.72540	0.03713
3628.43963	0.03665
3627.15386	0.03691
3625.86809	0.03787
3624.58232	0.03897
3623.29655	0.03969
3622.01079	0.03999
3620.72502	0.04015
3619.43925	0.04034
3618.15348	0.04056
3616.86771	0.04079
3615.58194	0.04099
3614.29617	0.04108
3613.01040	0.04113
3611.72463	0.04128
3610.43887	0.04168
3609.15310	0.04232
3607.86733	0.04313
3606.58156	0.04404
3605.29579	0.04490
3604.01002	0.04549
3602.72425	0.04566
3601.43848	0.04538
3600.15272	0.04475
3598.86695	0.04412
3597.58118	0.04405
3596.29541	0.04477
3595.00964	0.04582
3593.72387	0.04643
3592.43810	0.04641
3591.15233	0.04617
3589.86656	0.04607
3588.58080	0.04593
3587.29503	0.04543
3586.00926	0.04465
3584.72349	0.04410
3583.43772	0.04432
3582.15195	0.04544
3580.86618	0.04708
3579.58041	0.04871
3578.29464	0.04991
3577.00888	0.05057
3575.72311	0.05079
3574.43734	0.05077
3573.15157	0.05076
3571.86580	0.05091
3570.58003	0.05125
3569.29426	0.05164
3568.00849	0.05194
3566.72273	0.05215
3565.43696	0.05245
3564.15119	0.05289
3562.86542	0.05322
3561.57965	0.05313
3560.29388	0.05269
3559.00811	0.05234
3557.72234	0.05249
3556.43657	0.05312
3555.15081	0.05379
3553.86504	0.05411
3552.57927	0.05407
3551.29350	0.05415
3550.00773	0.05483
3548.72196	0.05608
3547.43619	0.05725
3546.15042	0.05775
3544.86466	0.05765
3543.57889	0.05748
3542.29312	0.05766
3541.00735	0.05820
3539.72158	0.05895
3538.43581	0.05967
3537.15004	0.06015
3535.86427	0.06031
3534.57850	0.06032
3533.29274	0.06047
3532.00697	0.06086
3530.72120	0.06134
3529.43543	0.06175
3528.14966	0.06208
3526.86389	0.06240
3525.57812	0.06275
3524.29235	0.06314
3523.00659	0.06358
3521.72082	0.06402
3520.43505	0.06433
3519.14928	0.06445
3517.86351	0.06447
3516.57774	0.06460
3515.29197	0.06501
3514.00620	0.06559
3512.72043	0.06610
3511.43467	0.06631
3510.14890	0.06627
3508.86313	0.06621
3507.57736	0.06642
3506.29159	0.06702
3505.00582	0.06789
3503.72005	0.06872
3502.43428	0.06924
3501.14852	0.06930
3499.86275	0.06902
3498.57698	0.06868
3497.29121	0.06859
3496.00544	0.06884
3494.71967	0.06933
3493.43390	0.06983
3492.14813	0.07018
3490.86236	0.07040
3489.57660	0.07059
3488.29083	0.07076
3487.00506	0.07083
3485.71929	0.07079
3484.43352	0.07080
3483.14775	0.07114
3481.86198	0.07187
3480.57621	0.07271
3479.29045	0.07324
3478.00468	0.07332
3476.71891	0.07324
3475.43314	0.07333
3474.14737	0.07364
3472.86160	0.07404
3471.57583	0.07437
3470.29006	0.07463
3469.00429	0.07487
3467.71853	0.07514
3466.43276	0.07543
3465.14699	0.07575
3463.86122	0.07613
3462.57545	0.07650
3461.28968	0.07671
3460.00391	0.07672
3458.71814	0.07671
3457.43238	0.07689
3456.14661	0.07729
3454.86084	0.07766
3453.57507	0.07788
3452.28930	0.07804
3451.00353	0.07833
3449.71776	0.07879
3448.43199	0.07932
3447.14622	0.07977
3445.86046	0.08006
3444.57469	0.08013
3443.28892	0.07997
3442.00315	0.07971
3440.71738	0.07954
3439.43161	0.07960
3438.14584	0.07990
3436.86007	0.08032
3435.57431	0.08079
3434.28854	0.08126
3433.00277	0.08174
3431.71700	0.08220
3430.43123	0.08263
3429.14546	0.08299
3427.85969	0.08326
3426.57392	0.08340
3425.28815	0.08343
3424.00239	0.08341
3422.71662	0.08351
3421.43085	0.08389
3420.14508	0.08452
3418.85931	0.08509
3417.57354	0.08531
3416.28777	0.08517
3415.00200	0.08501
3413.71624	0.08518
3412.43047	0.08573
3411.14470	0.08650
3409.85893	0.08730
3408.57316	0.08805
3407.28739	0.08875
3406.00162	0.08939
3404.71585	0.08997
3403.43008	0.09043
3402.14432	0.09058
3400.85855	0.09028
3399.57278	0.08963
3398.28701	0.08892
3397.00124	0.08849
3395.71547	0.08845
3394.42970	0.08878
3393.14393	0.08941
3391.85817	0.09020
3390.57240	0.09095
3389.28663	0.09146
3388.00086	0.09175
3386.71509	0.09198
3385.42932	0.09233
3384.14355	0.09276
3382.85778	0.09316
3381.57201	0.09343
3380.28625	0.09364
3379.00048	0.09392
3377.71471	0.09433
3376.42894	0.09483
3375.14317	0.09530
3373.85740	0.09573
3372.57163	0.09610
3371.28586	0.09635
3370.00010	0.09638
3368.71433	0.09637
3367.42856	0.09666
3366.14279	0.09746
3364.85702	0.09857
3363.57125	0.09955
3362.28548	0.10016
3360.99971	0.10059
3359.71394	0.10115
3358.42818	0.10194
3357.14241	0.10274
3355.85664	0.10325
3354.57087	0.10342
3353.28510	0.10354
3351.99933	0.10394
3350.71356	0.10469
3349.42779	0.10561
3348.14202	0.10640
3346.85626	0.10692
3345.57049	0.10724
3344.28472	0.10758
3342.99895	0.10810
3341.71318	0.10876
3340.42741	0.10943
3339.14164	0.10995
3337.85587	0.11028
3336.57011	0.11049
3335.28434	0.11074
3333.99857	0.11112
3332.71280	0.11157
3331.42703	0.11199
3330.14126	0.11238
3328.85549	0.11281
3327.56972	0.11330
3326.28395	0.11375
3324.99819	0.11406
3323.71242	0.11422
3322.42665	0.11433
3321.14088	0.11449
3319.85511	0.11483
3318.56934	0.11540
3317.28357	0.11613
3315.99780	0.11683
3314.71204	0.11731
3313.42627	0.11753
3312.14050	0.11752
3310.85473	0.11739
3309.56896	0.11731
3308.28319	0.11747
3306.99742	0.11796
3305.71165	0.11863
3304.42588	0.11921
3303.14012	0.11945
3301.85435	0.11934
3300.56858	0.11905
3299.28281	0.11887
3297.99704	0.11897
3296.71127	0.11933
3295.42550	0.11974
3294.13973	0.11995
3292.85397	0.11988
3291.56820	0.11967
3290.28243	0.11948
3288.99666	0.11937
3287.71089	0.11933
3286.42512	0.11938
3285.13935	0.11949
3283.85358	0.11956
3282.56781	0.11943
3281.28205	0.11904
3279.99628	0.11846
3278.71051	0.11791
3277.42474	0.11761
3276.13897	0.11764
3274.85320	0.11782
3273.56743	0.11785
3272.28166	0.11760
3270.99590	0.11725
3269.71013	0.11711
3268.42436	0.11726
3267.13859	0.11748
3265.85282	0.11750
3264.56705	0.11725
3263.28128	0.11685
3261.99551	0.11645
3260.70974	0.11604
3259.42398	0.11555
3258.13821	0.11504
3256.85244	0.11457
3255.56667	0.11414
3254.28090	0.11369
3252.99513	0.11319
3251.70936	0.11275
3250.42359	0.11251
3249.13783	0.11243
3247.85206	0.11240
3246.56629	0.11233
3245.28052	0.11218
3243.99475	0.11187
3242.70898	0.11138
3241.42321	0.11085
3240.13744	0.11051
3238.85167	0.11046
3237.56591	0.11054
3236.28014	0.11057
3234.99437	0.11049
3233.70860	0.11036
3232.42283	0.11016
3231.13706	0.10973
3229.85129	0.10901
3228.56552	0.10811
3227.27976	0.10725
3225.99399	0.10661
3224.70822	0.10634
3223.42245	0.10651
3222.13668	0.10703
3220.85091	0.10758
3219.56514	0.10781
3218.27937	0.10761
3216.99360	0.10709
3215.70784	0.10655
3214.42207	0.10628
3213.13630	0.10641
3211.85053	0.10674
3210.56476	0.10688
3209.27899	0.10662
3207.99322	0.10609
3206.70745	0.10560
3205.42169	0.10534
3204.13592	0.10530
3202.85015	0.10529
3201.56438	0.10513
3200.27861	0.10470
3198.99284	0.10407
3197.70707	0.10346
3196.42130	0.10303
3195.13553	0.10279
3193.84977	0.10258
3192.56400	0.10232
3191.27823	0.10198
3189.99246	0.10162
3188.70669	0.10126
3187.42092	0.10093
3186.13515	0.10064
3184.84938	0.10041
3183.56362	0.10021
3182.27785	0.10003
3180.99208	0.09981
3179.70631	0.09950
3178.42054	0.09911
3177.13477	0.09865
3175.84900	0.09819
3174.56323	0.09781
3173.27746	0.09765
3171.99170	0.09776
3170.70593	0.09803
3169.42016	0.09809
3168.13439	0.09762
3166.84862	0.09663
3165.56285	0.09548
3164.27708	0.09466
3162.99131	0.09439
3161.70555	0.09454
3160.41978	0.09476
3159.13401	0.09471
3157.84824	0.09430
3156.56247	0.09365
3155.27670	0.09298
3153.99093	0.09244
3152.70516	0.09205
3151.41939	0.09176
3150.13363	0.09152
3148.84786	0.09128
3147.56209	0.09095
3146.27632	0.09051
3144.99055	0.08999
3143.70478	0.08945
3142.41901	0.08889
3141.13324	0.08828
3139.84748	0.08770
3138.56171	0.08729
3137.27594	0.08715
3135.99017	0.08719
3134.70440	0.08723
3133.41863	0.08715
3132.13286	0.08695
3130.84709	0.08667
3129.56132	0.08635
3128.27556	0.08601
3126.98979	0.08567
3125.70402	0.08537
3124.41825	0.08519
3123.13248	0.08520
3121.84671	0.08538
3120.56094	0.08557
3119.27517	0.08559
3117.98940	0.08545
3116.70364	0.08530
3115.41787	0.08526
3114.13210	0.08534
3112.84633	0.08544
3111.56056	0.08553
3110.27479	0.08555
3108.98902	0.08545
3107.70325	0.08517
3106.41749	0.08475
3105.13172	0.08442
3103.84595	0.08442
3102.56018	0.08479
3101.27441	0.08532
3099.98864	0.08580
3098.70287	0.08617
3097.41710	0.08645
3096.13133	0.08663
3094.84557	0.08665
3093.55980	0.08653
3092.27403	0.08633
3090.98826	0.08617
3089.70249	0.08616
3088.41672	0.08631
3087.13095	0.08651
3085.84518	0.08658
3084.55942	0.08650
3083.27365	0.08640
3081.98788	0.08647
3080.70211	0.08668
3079.41634	0.08690
3078.13057	0.08699
3076.84480	0.08694
3075.55903	0.08679
3074.27326	0.08661
3072.98750	0.08640
3071.70173	0.08622
3070.41596	0.08616
3069.13019	0.08635
3067.84442	0.08680
3066.55865	0.08734
3065.27288	0.08774
3063.98711	0.08783
3062.70135	0.08760
3061.41558	0.08711
3060.12981	0.08643
3058.84404	0.08566
3057.55827	0.08489
3056.27250	0.08425
3054.98673	0.08385
3053.70096	0.08376
3052.41519	0.08397
3051.12943	0.08433
3049.84366	0.08450
3048.55789	0.08426
3047.27212	0.08367
3045.98635	0.08305
3044.70058	0.08269
3043.41481	0.08264
3042.12904	0.08265
3040.84328	0.08247
3039.55751	0.08207
3038.27174	0.08158
3036.98597	0.08114
3035.70020	0.08078
3034.41443	0.08048
3033.12866	0.08022
3031.84289	0.08000
3030.55712	0.07979
3029.27136	0.07957
3027.98559	0.07933
3026.69982	0.07902
3025.41405	0.07865
3024.12828	0.07820
3022.84251	0.07773
3021.55674	0.07727
3020.27097	0.07685
3018.98521	0.07647
3017.69944	0.07615
3016.41367	0.07592
3015.12790	0.07582
3013.84213	0.07588
3012.55636	0.07599
3011.27059	0.07594
3009.98482	0.07560
3008.69905	0.07510
3007.41329	0.07469
3006.12752	0.07447
3004.84175	0.07433
3003.55598	0.07414
3002.27021	0.07393
3000.98444	0.07389
2999.69867	0.07416
2998.41290	0.07475
2997.12714	0.07541
2995.84137	0.07584
2994.55560	0.07590
2993.26983	0.07570
2991.98406	0.07551
2990.69829	0.07556
2989.41252	0.07595
2988.12675	0.07656
2986.84098	0.07712
2985.55522	0.07743
2984.26945	0.07763
2982.98368	0.07796
2981.69791	0.07849
2980.41214	0.07904
2979.12637	0.07939
2977.84060	0.07954
2976.55483	0.07963
2975.26907	0.07973
2973.98330	0.07982
2972.69753	0.07993
2971.41176	0.08014
2970.12599	0.08048
2968.84022	0.08087
2967.55445	0.08120
2966.26868	0.08146
2964.98291	0.08174
2963.69715	0.08207
2962.41138	0.08242
2961.12561	0.08271
2959.83984	0.08296
2958.55407	0.08325
2957.26830	0.08362
2955.98253	0.08397
2954.69676	0.08423
2953.41100	0.08435
2952.12523	0.08434
2950.83946	0.08419
2949.55369	0.08398
2948.26792	0.08389
2946.98215	0.08408
2945.69638	0.08451
2944.41061	0.08494
2943.12484	0.08524
2941.83908	0.08543
2940.55331	0.08568
2939.26754	0.08614
2937.98177	0.08683
2936.69600	0.08756
2935.41023	0.08814
2934.12446	0.08854
2932.83869	0.08895
2931.55293	0.08945
2930.26716	0.09001
2928.98139	0.09051
2927.69562	0.09090
2926.40985	0.09123
2925.12408	0.09158
2923.83831	0.09196
2922.55254	0.09231
2921.26677	0.09258
2919.98101	0.09278
2918.69524	0.09292
2917.40947	0.09284
2916.12370	0.09227
2914.83793	0.09105
2913.55216	0.08936
2912.26639	0.08755
2910.98062	0.08589
2909.69486	0.08455
2908.40909	0.08359
2907.12332	0.08300
2905.83755	0.08257
2904.55178	0.08204
2903.26601	0.08131
2901.98024	0.08052
2900.69447	0.07976
2899.40870	0.07902
2898.12294	0.07837
2896.83717	0.07797
2895.55140	0.07792
2894.26563	0.07808
2892.97986	0.07821
2891.69409	0.07817
2890.40832	0.07792
2889.12255	0.07749
2887.83678	0.07696
2886.55102	0.07652
2885.26525	0.07629
2883.97948	0.07621
2882.69371	0.07614
2881.40794	0.07605
2880.12217	0.07600
2878.83640	0.07608
2877.55063	0.07625
2876.26487	0.07647
2874.97910	0.07665
2873.69333	0.07666
2872.40756	0.07643
2871.12179	0.07602
2869.83602	0.07555
2868.55025	0.07507
2867.26448	0.07459
2865.97871	0.07415
2864.69295	0.07388
2863.40718	0.07385
2862.12141	0.07400
2860.83564	0.07424
2859.54987	0.07455
2858.26410	0.07497
2856.97833	0.07546
2855.69256	0.07592
2854.40680	0.07634
2853.12103	0.07679
2851.83526	0.07729
2850.54949	0.07769
2849.26372	0.07768
2847.97795	0.07698
2846.69218	0.07556
2845.40641	0.07372
2844.12064	0.07196
2842.83488	0.07067
2841.54911	0.06988
2840.26334	0.06941
2838.97757	0.06905
2837.69180	0.06865
2836.40603	0.06814
2835.12026	0.06754
2833.83449	0.06691
2832.54873	0.06634
2831.26296	0.06589
2829.97719	0.06563
2828.69142	0.06558
2827.40565	0.06573
2826.11988	0.06594
2824.83411	0.06603
2823.54834	0.06592
2822.26257	0.06562
2820.97681	0.06522
2819.69104	0.06482
2818.40527	0.06448
2817.11950	0.06423
2815.83373	0.06403
2814.54796	0.06384
2813.26219	0.06364
2811.97642	0.06342
2810.69066	0.06322
2809.40489	0.06305
2808.11912	0.06291
2806.83335	0.06279
2805.54758	0.06270
2804.26181	0.06259
2802.97604	0.06246
2801.69027	0.06233
2800.40450	0.06228
2799.11874	0.06233
2797.83297	0.06233
2796.54720	0.06210
2795.26143	0.06165
2793.97566	0.06119
2792.68989	0.06093
2791.40412	0.06088
2790.11835	0.06086
2788.83259	0.06076
2787.54682	0.06058
2786.26105	0.06039
2784.97528	0.06026
2783.68951	0.06021
2782.40374	0.06022
2781.11797	0.06023
2779.83220	0.06019
2778.54643	0.06005
2777.26067	0.05985
2775.97490	0.05969
2774.68913	0.05963
2773.40336	0.05963
2772.11759	0.05956
2770.83182	0.05937
2769.54605	0.05915
2768.26028	0.05902
2766.97452	0.05898
2765.68875	0.05889
2764.40298	0.05864
2763.11721	0.05834
2761.83144	0.05819
2760.54567	0.05829
2759.25990	0.05846
2757.97413	0.05850
2756.68836	0.05837
2755.40260	0.05817
2754.11683	0.05800
2752.83106	0.05784
2751.54529	0.05767
2750.25952	0.05743
2748.97375	0.05715
2747.68798	0.05682
2746.40221	0.05648
2745.11645	0.05620
2743.83068	0.05611
2742.54491	0.05625
2741.25914	0.05650
2739.97337	0.05662
2738.68760	0.05647
2737.40183	0.05615
2736.11606	0.05586
2734.83029	0.05571
2733.54453	0.05566
2732.25876	0.05561
2730.97299	0.05555
2729.68722	0.05547
2728.40145	0.05535
2727.11568	0.05522
2725.82991	0.05507
2724.54414	0.05491
2723.25838	0.05469
2721.97261	0.05444
2720.68684	0.05423
2719.40107	0.05413
2718.11530	0.05407
2716.82953	0.05401
2715.54376	0.05394
2714.25799	0.05388
2712.97222	0.05382
2711.68646	0.05373
2710.40069	0.05360
2709.11492	0.05347
2707.82915	0.05333
2706.54338	0.05319
2705.25761	0.05306
2703.97184	0.05299
2702.68607	0.05296
2701.40031	0.05295
2700.11454	0.05287
2698.82877	0.05273
2697.54300	0.05258
2696.25723	0.05250
2694.97146	0.05250
2693.68569	0.05249
2692.39992	0.05242
2691.11415	0.05230
2689.82839	0.05221
2688.54262	0.05216
2687.25685	0.05212
2685.97108	0.05209
2684.68531	0.05203
2683.39954	0.05193
2682.11377	0.05184
2680.82800	0.05187
2679.54224	0.05211
2678.25647	0.05245
2676.97070	0.05267
2675.68493	0.05265
2674.39916	0.05245
2673.11339	0.05220
2671.82762	0.05199
2670.54185	0.05184
2669.25608	0.05176
2667.97032	0.05171
2666.68455	0.05170
2665.39878	0.05168
2664.11301	0.05167
2662.82724	0.05169
2661.54147	0.05177
2660.25570	0.05187
2658.96993	0.05191
2657.68417	0.05182
2656.39840	0.05159
2655.11263	0.05127
2653.82686	0.05093
2652.54109	0.05072
2651.25532	0.05072
2649.96955	0.05084
2648.68378	0.05085
2647.39801	0.05055
2646.11225	0.05003
2644.82648	0.04955
2643.54071	0.04929
2642.25494	0.04918
2640.96917	0.04903
2639.68340	0.04876
2638.39763	0.04844
2637.11186	0.04823
2635.82609	0.04819
2634.54033	0.04822
2633.25456	0.04817
2631.96879	0.04792
2630.68302	0.04756
2629.39725	0.04724
2628.11148	0.04708
2626.82571	0.04703
2625.53994	0.04696
2624.25418	0.04680
2622.96841	0.04660
2621.68264	0.04641
2620.39687	0.04624
2619.11110	0.04606
2617.82533	0.04583
2616.53956	0.04559
2615.25379	0.04537
2613.96802	0.04521
2612.68226	0.04512
2611.39649	0.04508
2610.11072	0.04503
2608.82495	0.04492
2607.53918	0.04474
2606.25341	0.04453
2604.96764	0.04429
2603.68187	0.04397
2602.39611	0.04359
2601.11034	0.04324
2599.82457	0.04306
2598.53880	0.04306
2597.25303	0.04313
2595.96726	0.04315
2594.68149	0.04306
2593.39572	0.04291
2592.10995	0.04282
2590.82419	0.04290
2589.53842	0.04309
2588.25265	0.04314
2586.96688	0.04286
2585.68111	0.04237
2584.39534	0.04199
2583.10957	0.04193
2581.82380	0.04210
2580.53804	0.04229
2579.25227	0.04240
2577.96650	0.04244
2576.68073	0.04247
2575.39496	0.04246
2574.10919	0.04234
2572.82342	0.04209
2571.53765	0.04185
2570.25188	0.04176
2568.96612	0.04181
2567.68035	0.04185
2566.39458	0.04180
2565.10881	0.04168
2563.82304	0.04158
2562.53727	0.04149
2561.25150	0.04131
2559.96573	0.04100
2558.67997	0.04054
2557.39420	0.04002
2556.10843	0.03955
2554.82266	0.03925
2553.53689	0.03915
2552.25112	0.03917
2550.96535	0.03917
2549.67958	0.03914
2548.39381	0.03916
2547.10805	0.03927
2545.82228	0.03946
2544.53651	0.03963
2543.25074	0.03972
2541.96497	0.03965
2540.67920	0.03945
2539.39343	0.03916
2538.10766	0.03885
2536.82190	0.03848
2535.53613	0.03809
2534.25036	0.03784
2532.96459	0.03784
2531.67882	0.03800
2530.39305	0.03813
2529.10728	0.03815
2527.82151	0.03812
2526.53574	0.03806
2525.24998	0.03788
2523.96421	0.03754
2522.67844	0.03716
2521.39267	0.03687
2520.10690	0.03675
2518.82113	0.03676
2517.53536	0.03686
2516.24959	0.03697
2514.96383	0.03705
2513.67806	0.03706
2512.39229	0.03696
2511.10652	0.03676
2509.82075	0.03654
2508.53498	0.03637
2507.24921	0.03634
2505.96344	0.03648
2504.67767	0.03675
2503.39191	0.03698
2502.10614	0.03702
2500.82037	0.03690
2499.53460	0.03680
2498.24883	0.03675
2496.96306	0.03659
2495.67729	0.03615
2494.39152	0.03556
2493.10576	0.03512
2491.81999	0.03497
2490.53422	0.03501
2489.24845	0.03508
2487.96268	0.03515
2486.67691	0.03520
2485.39114	0.03520
2484.10537	0.03512
2482.81960	0.03503
2481.53384	0.03502
2480.24807	0.03508
2478.96230	0.03520
2477.67653	0.03539
2476.39076	0.03562
2475.10499	0.03578
2473.81922	0.03578
2472.53345	0.03568
2471.24769	0.03554
2469.96192	0.03530
2468.67615	0.03484
2467.39038	0.03422
2466.10461	0.03375
2464.81884	0.03375
2463.53307	0.03425
2462.24730	0.03497
2460.96153	0.03554
2459.67577	0.03569
2458.39000	0.03545
2457.10423	0.03511
2455.81846	0.03501
2454.53269	0.03522
2453.24692	0.03555
2451.96115	0.03574
2450.67538	0.03571
2449.38962	0.03556
2448.10385	0.03545
2446.81808	0.03539
2445.53231	0.03529
2444.24654	0.03512
2442.96077	0.03501
2441.67500	0.03508
2440.38923	0.03532
2439.10346	0.03552
2437.81770	0.03554
2436.53193	0.03540
2435.24616	0.03520
2433.96039	0.03499
2432.67462	0.03477
2431.38885	0.03451
2430.10308	0.03431
2428.81731	0.03427
2427.53155	0.03437
2426.24578	0.03448
2424.96001	0.03448
2423.67424	0.03440
2422.38847	0.03437
2421.10270	0.03445
2419.81693	0.03459
2418.53116	0.03474
2417.24539	0.03487
2415.95963	0.03501
2414.67386	0.03516
2413.38809	0.03526
2412.10232	0.03521
2410.81655	0.03493
2409.53078	0.03444
2408.24501	0.03383
2406.95924	0.03327
2405.67347	0.03294
2404.38771	0.03295
2403.10194	0.03329
2401.81617	0.03382
2400.53040	0.03429
2399.24463	0.03428
2397.95886	0.03415
2396.67309	0.03400
2395.38732	0.03392
2394.10156	0.03394
2392.81579	0.03399
2391.53002	0.03393
2390.24425	0.03380
2388.95848	0.03369
2387.67271	0.03370
2386.38694	0.03380
2385.10117	0.03394
2383.81540	0.03413
2382.52964	0.03436
2381.24387	0.03453
2379.95810	0.03454
2378.67233	0.03438
2377.38656	0.03412
2376.10079	0.03388
2374.81502	0.03376
2373.52925	0.03387
2372.24349	0.03417
2370.95772	0.03447
2369.67195	0.03463
2368.38618	0.03467
2367.10041	0.03471
2365.81464	0.03471
2364.52887	0.03468
2363.24310	0.03467
2361.95733	0.03483
2360.67157	0.03522
2359.38580	0.03562
2358.10003	0.03578
2356.81426	0.03570
2355.52849	0.03552
2354.24272	0.03532
2352.95695	0.03511
2351.67118	0.03496
2350.38542	0.03481
2349.09965	0.03469
2347.81388	0.03477
2346.52811	0.03523
2345.24234	0.03567
2343.95657	0.03561
2342.67080	0.03525
2341.38503	0.03541
2340.09926	0.03597
2338.81350	0.03582
2337.52773	0.03497
2336.24196	0.03468
2334.95619	0.03487
2333.67042	0.03446
2332.38465	0.03369
2331.09888	0.03359
2329.81311	0.03344
2328.52735	0.03296
2327.24158	0.03346
2325.95581	0.03479
2324.67004	0.03595
2323.38427	0.03699
2322.09850	0.03787
2320.81273	0.03800
2319.52696	0.03782
2318.24119	0.03752
2316.95543	0.03693
2315.66966	0.03640
2314.38389	0.03589
2313.09812	0.03525
2311.81235	0.03468
2310.52658	0.03413
2309.24081	0.03373
2307.95504	0.03358
2306.66928	0.03347
2305.38351	0.03338
2304.09774	0.03335
2302.81197	0.03338
2301.52620	0.03341
2300.24043	0.03321
2298.95466	0.03279
2297.66889	0.03234
2296.38312	0.03203
2295.09736	0.03185
2293.81159	0.03168
2292.52582	0.03144
2291.24005	0.03114
2289.95428	0.03089
2288.66851	0.03083
2287.38274	0.03100
2286.09697	0.03132
2284.81121	0.03157
2283.52544	0.03161
2282.23967	0.03150
2280.95390	0.03138
2279.66813	0.03134
2278.38236	0.03136
2277.09659	0.03135
2275.81082	0.03119
2274.52505	0.03075
2273.23929	0.03011
2271.95352	0.02954
2270.66775	0.02932
2269.38198	0.02933
2268.09621	0.02920
2266.81044	0.02869
2265.52467	0.02794
2264.23890	0.02731
2262.95314	0.02704
2261.66737	0.02714
2260.38160	0.02748
2259.09583	0.02782
2257.81006	0.02796
2256.52429	0.02776
2255.23852	0.02727
2253.95275	0.02663
2252.66698	0.02595
2251.38122	0.02539
2250.09545	0.02541
2248.80968	0.02627
2247.52391	0.02669
2246.23814	0.02725
2244.95237	0.02769
2243.66660	0.02779
2242.38083	0.02753
2241.09507	0.02716
2239.80930	0.02696
2238.52353	0.02698
2237.23776	0.02699
2235.95199	0.02671
2234.66622	0.02610
2233.38045	0.02543
2232.09468	0.02502
2230.80891	0.02494
2229.52315	0.02500
2228.23738	0.02498
2226.95161	0.02474
2225.66584	0.02426
2224.38007	0.02360
2223.09430	0.02301
2221.80853	0.02278
2220.52276	0.02291
2219.23700	0.02314
2217.95123	0.02323
2216.66546	0.02314
2215.37969	0.02288
2214.09392	0.02240
2212.80815	0.02178
2211.52238	0.02146
2210.23661	0.02192
2208.95084	0.02316
2207.66508	0.02458
2206.37931	0.02539
2205.09354	0.02543
2203.80777	0.02507
2202.52200	0.02453
2201.23623	0.02352
2199.95046	0.02185
2198.66469	0.02008
2197.37893	0.01912
2196.09316	0.01932
2194.80739	0.02022
2193.52162	0.02112
2192.23585	0.02164
2190.95008	0.02166
2189.66431	0.02114
2188.37854	0.02023
2187.09277	0.01933
2185.80701	0.01878
2184.52124	0.01857
2183.23547	0.01861
2181.94970	0.01895
2180.66393	0.01969
2179.37816	0.02056
2178.09239	0.02108
2176.80662	0.02101
2175.52085	0.02055
2174.23509	0.02005
2172.94932	0.01964
2171.66355	0.01925
2170.37778	0.01880
2169.09201	0.01827
2167.80624	0.01764
2166.52047	0.01685
2165.23470	0.01578
2163.94894	0.01452
2162.66317	0.01338
2161.37740	0.01268
2160.09163	0.01241
2158.80586	0.01235
2157.52009	0.01242
2156.23432	0.01279
2154.94855	0.01359
2153.66278	0.01480
2152.37702	0.01618
2151.09125	0.01735
2149.80548	0.01809
2148.51971	0.01843
2147.23394	0.01855
2145.94817	0.01850
2144.66240	0.01823
2143.37663	0.01775
2142.09087	0.01720
2140.80510	0.01679
2139.51933	0.01665
2138.23356	0.01674
2136.94779	0.01697
2135.66202	0.01727
2134.37625	0.01766
2133.09048	0.01812
2131.80471	0.01855
2130.51895	0.01893
2129.23318	0.01930
2127.94741	0.01973
2126.66164	0.02028
2125.37587	0.02091
2124.09010	0.02154
2122.80433	0.02210
2121.51856	0.02259
2120.23280	0.02301
2118.94703	0.02334
2117.66126	0.02352
2116.37549	0.02359
2115.08972	0.02358
2113.80395	0.02352
2112.51818	0.02341
2111.23241	0.02319
2109.94664	0.02279
2108.66088	0.02232
2107.37511	0.02205
2106.08934	0.02217
2104.80357	0.02258
2103.51780	0.02299
2102.23203	0.02325
2100.94626	0.02335
2099.66049	0.02323
2098.37473	0.02283
2097.08896	0.02216
2095.80319	0.02137
2094.51742	0.02077
2093.23165	0.02062
2091.94588	0.02087
2090.66011	0.02128
2089.37434	0.02160
2088.08857	0.02183
2086.80281	0.02200
2085.51704	0.02201
2084.23127	0.02178
2082.94550	0.02141
2081.65973	0.02120
2080.37396	0.02133
2079.08819	0.02172
2077.80242	0.02209
2076.51666	0.02220
2075.23089	0.02194
2073.94512	0.02139
2072.65935	0.02074
2071.37358	0.02013
2070.08781	0.01961
2068.80204	0.01925
2067.51627	0.01918
2066.23050	0.01943
2064.94474	0.01982
2063.65897	0.02003
2062.37320	0.01982
2061.08743	0.01925
2059.80166	0.01858
2058.51589	0.01805
2057.23012	0.01777
2055.94435	0.01769
2054.65859	0.01775
2053.37282	0.01790
2052.08705	0.01812
2050.80128	0.01829
2049.51551	0.01830
2048.22974	0.01806
2046.94397	0.01753
2045.65820	0.01684
2044.37243	0.01621
2043.08667	0.01582
2041.80090	0.01567
2040.51513	0.01556
2039.22936	0.01529
2037.94359	0.01490
2036.65782	0.01468
2035.37205	0.01487
2034.08628	0.01537
2032.80052	0.01575
2031.51475	0.01563
2030.22898	0.01508
2028.94321	0.01468
2027.65744	0.01505
2026.37167	0.01627
2025.08590	0.01782
2023.80013	0.01884
2022.51436	0.01877
2021.22860	0.01763
2019.94283	0.01606
2018.65706	0.01474
2017.37129	0.01400
2016.08552	0.01379
2014.79975	0.01394
2013.51398	0.01438
2012.22821	0.01498
2010.94245	0.01543
2009.65668	0.01537
2008.37091	0.01474
2007.08514	0.01387
2005.79937	0.01325
2004.51360	0.01311
2003.22783	0.01340
2001.94206	0.01386
2000.65629	0.01435
1999.37053	0.01487
1998.08476	0.01545
1996.79899	0.01606
1995.51322	0.01655
1994.22745	0.01684
1992.94168	0.01693
1991.65591	0.01689
1990.37014	0.01679
1989.08438	0.01668
1987.79861	0.01657
1986.51284	0.01652
1985.22707	0.01659
1983.94130	0.01688
1982.65553	0.01718
1981.36976	0.01703
1980.08399	0.01604
1978.79822	0.01431
1977.51246	0.01249
1976.22669	0.01143
1974.94092	0.01159
1973.65515	0.01277
1972.36938	0.01431
1971.08361	0.01562
1969.79784	0.01640
1968.51207	0.01662
1967.22631	0.01634
1965.94054	0.01580
1964.65477	0.01536
1963.36900	0.01529
1962.08323	0.01556
1960.79746	0.01580
1959.51169	0.01559
1958.22592	0.01492
1956.94015	0.01423
1955.65439	0.01397
1954.36862	0.01419
1953.08285	0.01463
1951.79708	0.01508
1950.51131	0.01560
1949.22554	0.01625
1947.93977	0.01681
1946.65400	0.01701
1945.36823	0.01676
1944.08247	0.01640
1942.79670	0.01632
1941.51093	0.01659
1940.22516	0.01694
1938.93939	0.01700
1937.65362	0.01673
1936.36785	0.01637
1935.08208	0.01615
1933.79632	0.01614
1932.51055	0.01626
1931.22478	0.01645
1929.93901	0.01670
1928.65324	0.01695
1927.36747	0.01709
1926.08170	0.01707
1924.79593	0.01699
1923.51016	0.01699
1922.22440	0.01717
1920.93863	0.01743
1919.65286	0.01763
1918.36709	0.01770
1917.08132	0.01773
1915.79555	0.01786
1914.50978	0.01811
1913.22401	0.01835
1911.93825	0.01852
1910.65248	0.01865
1909.36671	0.01875
1908.08094	0.01877
1906.79517	0.01869
1905.50940	0.01861
1904.22363	0.01867
1902.93786	0.01889
1901.65209	0.01915
1900.36633	0.01931
1899.08056	0.01931
1897.79479	0.01919
1896.50902	0.01903
1895.22325	0.01883
1893.93748	0.01860
1892.65171	0.01840
1891.36594	0.01827
1890.08018	0.01821
1888.79441	0.01823
1887.50864	0.01832
1886.22287	0.01845
1884.93710	0.01859
1883.65133	0.01867
1882.36556	0.01866
1881.07979	0.01853
1879.79402	0.01834
1878.50826	0.01819
1877.22249	0.01815
1875.93672	0.01821
1874.65095	0.01835
1873.36518	0.01860
1872.07941	0.01894
1870.79364	0.01925
1869.50787	0.01934
1868.22211	0.01919
1866.93634	0.01889
1865.65057	0.01857
1864.36480	0.01826
1863.07903	0.01798
1861.79326	0.01782
1860.50749	0.01783
1859.22172	0.01793
1857.93595	0.01797
1856.65019	0.01789
1855.36442	0.01780
1854.07865	0.01777
1852.79288	0.01778
1851.50711	0.01779
1850.22134	0.01782
1848.93557	0.01796
1847.64980	0.01816
1846.36404	0.01838
1845.07827	0.01850
1843.79250	0.01848
1842.50673	0.01833
1841.22096	0.01816
1839.93519	0.01807
1838.64942	0.01805
1837.36365	0.01804
1836.07788	0.01798
1834.79212	0.01786
1833.50635	0.01775
1832.22058	0.01773
1830.93481	0.01781
1829.64904	0.01792
1828.36327	0.01797
1827.07750	0.01798
1825.79173	0.01795
1824.50597	0.01783
1823.22020	0.01761
1821.93443	0.01739
1820.64866	0.01727
1819.36289	0.01727
1818.07712	0.01728
1816.79135	0.01722
1815.50558	0.01712
1814.21981	0.01706
1812.93405	0.01705
1811.64828	0.01707
1810.36251	0.01709
1809.07674	0.01711
1807.79097	0.01716
1806.50520	0.01720
1805.21943	0.01722
1803.93366	0.01724
1802.64790	0.01730
1801.36213	0.01739
1800.07636	0.01745
1798.79059	0.01744
1797.50482	0.01739
1796.21905	0.01739
1794.93328	0.01744
1793.64751	0.01751
1792.36174	0.01750
1791.07598	0.01738
1789.79021	0.01721
1788.50444	0.01704
1787.21867	0.01692
1785.93290	0.01689
1784.64713	0.01693
1783.36136	0.01698
1782.07559	0.01699
1780.78983	0.01697
1779.50406	0.01694
1778.21829	0.01692
1776.93252	0.01690
1775.64675	0.01690
1774.36098	0.01692
1773.07521	0.01690
1771.78944	0.01677
1770.50367	0.01661
1769.21791	0.01653
1767.93214	0.01656
1766.64637	0.01662
1765.36060	0.01668
1764.07483	0.01674
1762.78906	0.01673
1761.50329	0.01663
1760.21752	0.01648
1758.93176	0.01638
1757.64599	0.01637
1756.36022	0.01637
1755.07445	0.01639
1753.78868	0.01649
1752.50291	0.01665
1751.21714	0.01678
1749.93137	0.01680
1748.64560	0.01679
1747.35984	0.01679
1746.07407	0.01677
1744.78830	0.01673
1743.50253	0.01670
1742.21676	0.01671
1740.93099	0.01676
1739.64522	0.01684
1738.35945	0.01695
1737.07369	0.01719
1735.78792	0.01752
1734.50215	0.01770
1733.21638	0.01763
1731.93061	0.01747
1730.64484	0.01748
1729.35907	0.01764
1728.07330	0.01784
1726.78753	0.01806
1725.50177	0.01836
1724.21600	0.01874
1722.93023	0.01913
1721.64446	0.01949
1720.35869	0.01990
1719.07292	0.02044
1717.78715	0.02103
1716.50138	0.02159
1715.21561	0.02216
1713.92985	0.02284
1712.64408	0.02371
1711.35831	0.02478
1710.07254	0.02602
1708.78677	0.02734
1707.50100	0.02869
1706.21523	0.03004
1704.92946	0.03137
1703.64370	0.03276
1702.35793	0.03432
1701.07216	0.03596
1699.78639	0.03753
1698.50062	0.03909
1697.21485	0.04086
1695.92908	0.04274
1694.64331	0.04447
1693.35754	0.04605
1692.07178	0.04768
1690.78601	0.04940
1689.50024	0.05115
1688.21447	0.05295
1686.92870	0.05493
1685.64293	0.05709
1684.35716	0.05916
1683.07139	0.06104
1681.78563	0.06290
1680.49986	0.06494
1679.21409	0.06717
1677.92832	0.06951
1676.64255	0.07194
1675.35678	0.07438
1674.07101	0.07684
1672.78524	0.07940
1671.49947	0.08214
1670.21371	0.08498
1668.92794	0.08773
1667.64217	0.09033
1666.35640	0.09286
1665.07063	0.09540
1663.78486	0.09794
1662.49909	0.10036
1661.21332	0.10262
1659.92756	0.10475
1658.64179	0.10673
1657.35602	0.10859
1656.07025	0.11046
1654.78448	0.11238
1653.49871	0.11416
1652.21294	0.11553
1650.92717	0.11662
1649.64140	0.11776
1648.35564	0.11908
1647.06987	0.12038
1645.78410	0.12146
1644.49833	0.12236
1643.21256	0.12324
1641.92679	0.12419
1640.64102	0.12517
1639.35525	0.12614
1638.06949	0.12708
1636.78372	0.12794
1635.49795	0.12859
1634.21218	0.12899
1632.92641	0.12925
1631.64064	0.12946
1630.35487	0.12955
1629.06910	0.12940
1627.78333	0.12891
1626.49757	0.12810
1625.21180	0.12701
1623.92603	0.12566
1622.64026	0.12405
1621.35449	0.12220
1620.06872	0.12023
1618.78295	0.11820
1617.49718	0.11606
1616.21142	0.11371
1614.92565	0.11121
1613.63988	0.10874
1612.35411	0.10633
1611.06834	0.10388
1609.78257	0.10132
1608.49680	0.09872
1607.21103	0.09615
1605.92526	0.09370
1604.63950	0.09140
1603.35373	0.08925
1602.06796	0.08724
1600.78219	0.08536
1599.49642	0.08363
1598.21065	0.08204
1596.92488	0.08058
1595.63911	0.07921
1594.35335	0.07792
1593.06758	0.07675
1591.78181	0.07573
1590.49604	0.07489
1589.21027	0.07422
1587.92450	0.07372
1586.63873	0.07336
1585.35296	0.07314
1584.06719	0.07303
1582.78143	0.07301
1581.49566	0.07307
1580.20989	0.07325
1578.92412	0.07363
1577.63835	0.07425
1576.35258	0.07500
1575.06681	0.07577
1573.78104	0.07663
1572.49528	0.07769
1571.20951	0.07893
1569.92374	0.08022
1568.63797	0.08152
1567.35220	0.08289
1566.06643	0.08440
1564.78066	0.08600
1563.49489	0.08763
1562.20912	0.08932
1560.92336	0.09107
1559.63759	0.09273
1558.35182	0.09412
1557.06605	0.09536
1555.78028	0.09666
1554.49451	0.09805
1553.20874	0.09940
1551.92297	0.10064
1550.63721	0.10178
1549.35144	0.10282
1548.06567	0.10374
1546.77990	0.10457
1545.49413	0.10533
1544.20836	0.10601
1542.92259	0.10663
1541.63682	0.10719
1540.35105	0.10762
1539.06529	0.10782
1537.77952	0.10784
1536.49375	0.10787
1535.20798	0.10798
1533.92221	0.10806
1532.63644	0.10798
1531.35067	0.10777
1530.06490	0.10752
1528.77914	0.10726
1527.49337	0.10696
1526.20760	0.10660
1524.92183	0.10620
1523.63606	0.10583
1522.35029	0.10547
1521.06452	0.10500
1519.77875	0.10441
1518.49298	0.10378
1517.20722	0.10315
1515.92145	0.10240
1514.63568	0.10148
1513.34991	0.10044
1512.06414	0.09933
1510.77837	0.09814
1509.49260	0.09694
1508.20683	0.09570
1506.92107	0.09432
1505.63530	0.09268
1504.34953	0.09090
1503.06376	0.08919
1501.77799	0.08763
1500.49222	0.08616
1499.20645	0.08467
1497.92068	0.08308
1496.63491	0.08135
1495.34915	0.07950
1494.06338	0.07764
1492.77761	0.07593
1491.49184	0.07437
1490.20607	0.07289
1488.92030	0.07147
1487.63453	0.07016
1486.34876	0.06899
1485.06299	0.06797
1483.77723	0.06712
1482.49146	0.06649
1481.20569	0.06609
1479.91992	0.06590
1478.63415	0.06587
1477.34838	0.06596
1476.06261	0.06616
1474.77684	0.06652
1473.49108	0.06705
1472.20531	0.06769
1470.91954	0.06840
1469.63377	0.06918
1468.34800	0.07007
1467.06223	0.07104
1465.77646	0.07205
1464.49069	0.07304
1463.20492	0.07402
1461.91916	0.07500
1460.63339	0.07602
1459.34762	0.07713
1458.06185	0.07831
1456.77608	0.07942
1455.49031	0.08041
1454.20454	0.08130
1452.91877	0.08213
1451.63301	0.08282
1450.34724	0.08332
1449.06147	0.08362
1447.77570	0.08375
1446.48993	0.08371
1445.20416	0.08356
1443.91839	0.08335
1442.63262	0.08309
1441.34685	0.08277
1440.06109	0.08237
1438.77532	0.08190
1437.48955	0.08126
1436.20378	0.08041
1434.91801	0.07941
1433.63224	0.07842
1432.34647	0.07752
1431.06070	0.07666
1429.77494	0.07582
1428.48917	0.07504
1427.20340	0.07439
1425.91763	0.07387
1424.63186	0.07345
1423.34609	0.07312
1422.06032	0.07290
1420.77455	0.07283
1419.48878	0.07281
1418.20302	0.07273
1416.91725	0.07260
1415.63148	0.07251
1414.34571	0.07251
1413.05994	0.07259
1411.77417	0.07273
1410.48840	0.07289
1409.20263	0.07305
1407.91687	0.07320
1406.63110	0.07334
1405.34533	0.07348
1404.05956	0.07361
1402.77379	0.07373
1401.48802	0.07381
1400.20225	0.07380
1398.91648	0.07364
1397.63071	0.07337
1396.34495	0.07309
1395.05918	0.07284
1393.77341	0.07258
1392.48764	0.07229
1391.20187	0.07201
1389.91610	0.07178
1388.63033	0.07157
1387.34456	0.07132
1386.05880	0.07101
1384.77303	0.07064
1383.48726	0.07024
1382.20149	0.06984
1380.91572	0.06945
1379.62995	0.06906
1378.34418	0.06864
1377.05841	0.06819
1375.77264	0.06772
1374.48688	0.06723
1373.20111	0.06671
1371.91534	0.06618
1370.62957	0.06563
1369.34380	0.06506
1368.05803	0.06442
1366.77226	0.06369
1365.48649	0.06295
1364.20073	0.06227
1362.91496	0.06165
1361.62919	0.06108
1360.34342	0.06055
1359.05765	0.06011
1357.77188	0.05980
1356.48611	0.05966
1355.20034	0.05966
1353.91457	0.05978
1352.62881	0.05997
1351.34304	0.06022
1350.05727	0.06053
1348.77150	0.06095
1347.48573	0.06145
1346.19996	0.06201
1344.91419	0.06260
1343.62842	0.06319
1342.34266	0.06377
1341.05689	0.06431
1339.77112	0.06477
1338.48535	0.06511
1337.19958	0.06533
1335.91381	0.06545
1334.62804	0.06543
1333.34227	0.06528
1332.05650	0.06499
1330.77074	0.06462
1329.48497	0.06420
1328.19920	0.06376
1326.91343	0.06332
1325.62766	0.06289
1324.34189	0.06250
1323.05612	0.06216
1321.77035	0.06188
1320.48459	0.06165
1319.19882	0.06149
1317.91305	0.06137
1316.62728	0.06128
1315.34151	0.06118
1314.05574	0.06103
1312.76997	0.06082
1311.48420	0.06056
1310.19843	0.06028
1308.91267	0.05996
1307.62690	0.05960
1306.34113	0.05924
1305.05536	0.05891
1303.76959	0.05864
1302.48382	0.05842
1301.19805	0.05822
1299.91228	0.05802
1298.62652	0.05782
1297.34075	0.05762
1296.05498	0.05745
1294.76921	0.05736
1293.48344	0.05734
1292.19767	0.05740
1290.91190	0.05752
1289.62613	0.05770
1288.34036	0.05796
1287.05460	0.05829
1285.76883	0.05869
1284.48306	0.05912
1283.19729	0.05952
1281.91152	0.05983
1280.62575	0.06003
1279.33998	0.06014
1278.05421	0.06020
1276.76845	0.06026
1275.48268	0.06031
1274.19691	0.06031
1272.91114	0.06029
1271.62537	0.06027
1270.33960	0.06031
1269.05383	0.06040
1267.76806	0.06052
1266.48229	0.06066
1265.19653	0.06083
1263.91076	0.06106
1262.62499	0.06135
1261.33922	0.06168
1260.05345	0.06203
1258.76768	0.06240
1257.48191	0.06280
1256.19614	0.06323
1254.91037	0.06368
1253.62461	0.06416
1252.33884	0.06466
1251.05307	0.06520
1249.76730	0.06581
1248.48153	0.06649
1247.19576	0.06721
1245.90999	0.06795
1244.62422	0.06867
1243.33846	0.06938
1242.05269	0.07005
1240.76692	0.07068
1239.48115	0.07121
1238.19538	0.07163
1236.90961	0.07193
1235.62384	0.07214
1234.33807	0.07230
1233.05230	0.07239
1231.76654	0.07240
1230.48077	0.07228
1229.19500	0.07202
1227.90923	0.07162
1226.62346	0.07106
1225.33769	0.07036
1224.05192	0.06954
1222.76615	0.06867
1221.48039	0.06779
1220.19462	0.06695
1218.90885	0.06613
1217.62308	0.06536
1216.33731	0.06466
1215.05154	0.06411
1213.76577	0.06372
1212.48000	0.06352
1211.19423	0.06346
1209.90847	0.06350
1208.62270	0.06360
1207.33693	0.06374
1206.05116	0.06393
1204.76539	0.06412
1203.47962	0.06426
1202.19385	0.06425
1200.90808	0.06407
1199.62232	0.06372
1198.33655	0.06322
1197.05078	0.06263
1195.76501	0.06198
1194.47924	0.06130
1193.19347	0.06062
1191.90770	0.05996
1190.62193	0.05931
1189.33616	0.05868
1188.05040	0.05808
1186.76463	0.05752
1185.47886	0.05700
1184.19309	0.05652
1182.90732	0.05608
1181.62155	0.05570
1180.33578	0.05541
1179.05001	0.05519
1177.76425	0.05500
1176.47848	0.05479
1175.19271	0.05458
1173.90694	0.05444
1172.62117	0.05438
1171.33540	0.05438
1170.04963	0.05440
1168.76386	0.05444
1167.47809	0.05451
1166.19233	0.05463
1164.90656	0.05479
1163.62079	0.05496
1162.33502	0.05509
1161.04925	0.05517
1159.76348	0.05519
1158.47771	0.05510
1157.19194	0.05491
1155.90618	0.05463
1154.62041	0.05433
1153.33464	0.05398
1152.04887	0.05358
1150.76310	0.05315
1149.47733	0.05272
1148.19156	0.05231
1146.90579	0.05194
1145.62002	0.05162
1144.33426	0.05134
1143.04849	0.05104
1141.76272	0.05072
1140.47695	0.05037
1139.19118	0.05002
1137.90541	0.04971
1136.61964	0.04945
1135.33387	0.04929
1134.04811	0.04926
1132.76234	0.04932
1131.47657	0.04940
1130.19080	0.04941
1128.90503	0.04933
1127.61926	0.04925
1126.33349	0.04924
1125.04772	0.04933
1123.76195	0.04948
1122.47619	0.04963
1121.19042	0.04977
1119.90465	0.04990
1118.61888	0.05003
1117.33311	0.05019
1116.04734	0.05043
1114.76157	0.05073
1113.47580	0.05105
1112.19004	0.05133
1110.90427	0.05155
1109.61850	0.05175
1108.33273	0.05197
1107.04696	0.05223
1105.76119	0.05249
1104.47542	0.05273
1103.18965	0.05297
1101.90388	0.05325
1100.61812	0.05357
1099.33235	0.05390
1098.04658	0.05421
1096.76081	0.05450
1095.47504	0.05481
1094.18927	0.05516
1092.90350	0.05553
1091.61773	0.05590
1090.33197	0.05628
1089.04620	0.05674
1087.76043	0.05733
1086.47466	0.05806
1085.18889	0.05882
1083.90312	0.05949
1082.61735	0.05998
1081.33158	0.06030
1080.04581	0.06050
1078.76005	0.06058
1077.47428	0.06053
1076.18851	0.06036
1074.90274	0.06015
1073.61697	0.05997
1072.33120	0.05986
1071.04543	0.05981
1069.75966	0.05985
1068.47390	0.05997
1067.18813	0.06015
1065.90236	0.06031
1064.61659	0.06040
1063.33082	0.06039
1062.04505	0.06031
1060.75928	0.06020
1059.47351	0.06010
1058.18774	0.06005
1056.90198	0.06001
1055.61621	0.05993
1054.33044	0.05979
1053.04467	0.05964
1051.75890	0.05950
1050.47313	0.05934
1049.18736	0.05916
1047.90159	0.05901
1046.61583	0.05892
1045.33006	0.05887
1044.04429	0.05884
1042.75852	0.05881
1041.47275	0.05885
1040.18698	0.05900
1038.90121	0.05928
1037.61544	0.05964
1036.32967	0.06004
1035.04391	0.06042
1033.75814	0.06078
1032.47237	0.06112
1031.18660	0.06144
1029.90083	0.06169
1028.61506	0.06179
1027.32929	0.06170
1026.04352	0.06140
1024.75775	0.06094
1023.47199	0.06040
1022.18622	0.05989
1020.90045	0.05945
1019.61468	0.05909
1018.32891	0.05879
1017.04314	0.05851
1015.75737	0.05821
1014.47160	0.05786
1013.18584	0.05747
1011.90007	0.05708
1010.61430	0.05666
1009.32853	0.05623
1008.04276	0.05578
1006.75699	0.05532
1005.47122	0.05482
1004.18545	0.05429
1002.89968	0.05375
1001.61392	0.05319
1000.32815	0.05260
999.04238	0.05194
997.75661	0.05127
996.47084	0.05068
995.18507	0.05021
993.89930	0.04983
992.61353	0.04947
991.32777	0.04907
990.04200	0.04864
988.75623	0.04822
987.47046	0.04785
986.18469	0.04755
984.89892	0.04726
983.61315	0.04694
982.32738	0.04660
981.04161	0.04631
979.75585	0.04612
978.47008	0.04606
977.18431	0.04606
975.89854	0.04607
974.61277	0.04601
973.32700	0.04584
972.04123	0.04556
970.75546	0.04522
969.46970	0.04485
968.18393	0.04448
966.89816	0.04412
965.61239	0.04386
964.32662	0.04373
963.04085	0.04373
961.75508	0.04376
960.46931	0.04374
959.18354	0.04359
957.89778	0.04336
956.61201	0.04313
955.32624	0.04296
954.04047	0.04283
952.75470	0.04267
951.46893	0.04244
950.18316	0.04219
948.89739	0.04200
947.61163	0.04187
946.32586	0.04178
945.04009	0.04170
943.75432	0.04161
942.46855	0.04151
941.18278	0.04139
939.89701	0.04124
938.61124	0.04106
937.32547	0.04087
936.03971	0.04069
934.75394	0.04053
933.46817	0.04041
932.18240	0.04029
930.89663	0.04014
929.61086	0.03995
928.32509	0.03977
927.03932	0.03965
925.75356	0.03958
924.46779	0.03953
923.18202	0.03947
921.89625	0.03942
920.61048	0.03933
919.32471	0.03916
918.03894	0.03888
916.75317	0.03850
915.46740	0.03807
914.18164	0.03764
912.89587	0.03724
911.61010	0.03694
910.32433	0.03678
909.03856	0.03670
907.75279	0.03661
906.46702	0.03646
905.18125	0.03626
903.89549	0.03606
902.60972	0.03589
901.32395	0.03578
900.03818	0.03572
898.75241	0.03571
897.46664	0.03571
896.18087	0.03564
894.89510	0.03549
893.60933	0.03530
892.32357	0.03515
891.03780	0.03509
889.75203	0.03512
888.46626	0.03520
887.18049	0.03526
885.89472	0.03527
884.60895	0.03522
883.32318	0.03515
882.03742	0.03508
880.75165	0.03502
879.46588	0.03499
878.18011	0.03506
876.89434	0.03527
875.60857	0.03563
874.32280	0.03600
873.03703	0.03624
871.75126	0.03628
870.46550	0.03616
869.17973	0.03598
867.89396	0.03577
866.60819	0.03557
865.32242	0.03537
864.03665	0.03520
862.75088	0.03502
861.46511	0.03484
860.17935	0.03467
858.89358	0.03455
857.60781	0.03447
856.32204	0.03441
855.03627	0.03435
853.75050	0.03430
852.46473	0.03431
851.17896	0.03436
849.89319	0.03439
848.60743	0.03432
847.32166	0.03415
846.03589	0.03392
844.75012	0.03369
843.46435	0.03348
842.17858	0.03328
840.89281	0.03309
839.60704	0.03290
838.32128	0.03276
837.03551	0.03267
835.74974	0.03260
834.46397	0.03250
833.17820	0.03241
831.89243	0.03238
830.60666	0.03241
829.32089	0.03247
828.03512	0.03254
826.74936	0.03258
825.46359	0.03255
824.17782	0.03244
822.89205	0.03233
821.60628	0.03233
820.32051	0.03248
819.03474	0.03268
817.74897	0.03280
816.46321	0.03276
815.17744	0.03259
813.89167	0.03242
812.60590	0.03237
811.32013	0.03250
810.03436	0.03275
808.74859	0.03300
807.46282	0.03316
806.17705	0.03321
804.89129	0.03319
803.60552	0.03315
802.31975	0.03313
801.03398	0.03312
799.74821	0.03314
798.46244	0.03319
797.17667	0.03326
795.89090	0.03334
794.60513	0.03341
793.31937	0.03347
792.03360	0.03352
790.74783	0.03355
789.46206	0.03360
788.17629	0.03369
786.89052	0.03382
785.60475	0.03397
784.31898	0.03408
783.03322	0.03412
781.74745	0.03408
780.46168	0.03400
779.17591	0.03395
777.89014	0.03399
776.60437	0.03413
775.31860	0.03430
774.03283	0.03450
772.74706	0.03469
771.46130	0.03485
770.17553	0.03492
768.88976	0.03490
767.60399	0.03484
766.31822	0.03480
765.03245	0.03484
763.74668	0.03499
762.46091	0.03520
761.17515	0.03540
759.88938	0.03549
758.60361	0.03549
757.31784	0.03550
756.03207	0.03563
754.74630	0.03586
753.46053	0.03609
752.17476	0.03620
750.88899	0.03621
749.60323	0.03622
748.31746	0.03632
747.03169	0.03655
745.74592	0.03682
744.46015	0.03706
743.17438	0.03722
741.88861	0.03729
740.60284	0.03725
739.31708	0.03715
738.03131	0.03707
736.74554	0.03711
735.45977	0.03729
734.17400	0.03753
732.88823	0.03778
731.60246	0.03806
730.31669	0.03841
729.03092	0.03883
727.74516	0.03920
726.45939	0.03940
725.17362	0.03943
723.88785	0.03921
722.60208	0.03953
721.31631	0.04018
720.03054	0.04080
718.74477	0.04126
717.45901	0.04151
716.17324	0.04157
714.88747	0.04147
713.60170	0.04127
712.31593	0.04107
711.03016	0.04095
709.74439	0.04095
708.45862	0.04105
707.17285	0.04124
705.88709	0.04148
704.60132	0.04172
703.31555	0.04194
702.02978	0.04211
700.74401	0.04226
699.45824	0.04245
698.17247	0.04269
696.88670	0.04294
695.60094	0.04317
694.31517	0.04335
693.02940	0.04344
691.74363	0.04344
690.45786	0.04338
689.17209	0.04330
687.88632	0.04325
686.60055	0.04326
685.31478	0.04332
684.02902	0.04342
682.74325	0.04353
681.45748	0.04358
680.17171	0.04358
678.88594	0.04356
677.60017	0.04358
676.31440	0.04365
675.02863	0.04376
673.74287	0.04389
672.45710	0.04405
671.17133	0.04426
669.88556	0.04446
668.59979	0.04459
667.31402	0.04464
666.02825	0.04473
664.74248	0.04487
663.45671	0.04503
662.17095	0.04516
660.88518	0.04523
659.59941	0.04524
658.31364	0.04521
657.02787	0.04517
655.74210	0.04516
654.45633	0.04520
653.17056	0.04530
651.88480	0.04541
650.59903	0.04552
649.31326	0.04560
648.02749	0.04562
646.74172	0.04558
645.45595	0.04549
644.17018	0.04542
642.88441	0.04542
641.59864	0.04549
640.31288	0.04560
639.02711	0.04566
637.74134	0.04567
636.45557	0.04566
635.16980	0.04570
633.88403	0.04578
632.59826	0.04581
631.31249	0.04572
630.02673	0.04552
628.74096	0.04529
627.45519	0.04511
626.16942	0.04475
624.88365	0.04397
623.59788	0.04277
622.31211	0.04162
621.02634	0.04125
619.74057	0.04193
618.45481	0.04335
617.16904	0.04505
615.88327	0.04635
614.59750	0.04656
613.31173	0.04559
612.02596	0.04423
610.74019	0.04366
609.45442	0.04449
608.16866	0.04628
606.88289	0.04805
605.59712	0.04904
604.31135	0.04916
603.02558	0.04881
601.73981	0.04852
600.45404	0.04844
599.16827	0.04848
597.88250	0.04855
596.59674	0.04866
595.31097	0.04881
594.02520	0.04889
592.73943	0.04884
591.45366	0.04876
590.16789	0.04880
588.88212	0.04901
587.59635	0.04930
586.31059	0.04956
585.02482	0.04979
583.73905	0.05002
582.45328	0.05027
581.16751	0.05049
579.88174	0.05066
578.59597	0.05074
577.31020	0.05078
576.02443	0.05081
574.73867	0.05085
573.45290	0.05095
572.16713	0.05110
570.88136	0.05129
569.59559	0.05151
568.30982	0.05178
567.02405	0.05212
565.73828	0.05253
564.45251	0.05297
563.16675	0.05335
561.88098	0.05361
560.59521	0.05374
559.30944	0.05373
558.02367	0.05360
556.73790	0.05337
555.45213	0.05309
554.16636	0.05284
552.88060	0.05268
551.59483	0.05260
550.30906	0.05258
549.02329	0.05254
547.73752	0.05241
546.45175	0.05215
545.16598	0.05184
543.88021	0.05157
542.59444	0.05139
541.30868	0.05123
540.02291	0.05103
538.73714	0.05083
537.45137	0.05073
536.16560	0.05078
534.87983	0.05091
533.59406	0.05097
532.30829	0.05091
531.02253	0.05081
529.73676	0.05082
528.45099	0.05099
527.16522	0.05123
525.87945	0.05137
524.59368	0.05129
523.30791	0.05102
522.02214	0.05068
520.73637	0.05035
519.45061	0.05007
518.16484	0.04985
516.87907	0.04970
515.59330	0.04963
514.30753	0.04961
513.02176	0.04956
511.73599	0.04939
510.45022	0.04905
509.16446	0.04858
507.87869	0.04811
506.59292	0.04777
505.30715	0.04764
504.02138	0.04763
502.73561	0.04758
501.44984	0.04743
500.16407	0.04722
498.87830	0.04701
497.59254	0.04679
496.30677	0.04651
495.02100	0.04615
493.73523	0.04574
492.44946	0.04531
491.16369	0.04490
489.87792	0.04455
488.59215	0.04431
487.30639	0.04420
486.02062	0.04421
484.73485	0.04425
483.44908	0.04429
482.16331	0.04426
480.87754	0.04417
479.59177	0.04402
478.30600	0.04385
477.02023	0.04370
475.73447	0.04357
474.44870	0.04345
473.16293	0.04331
471.87716	0.04310
470.59139	0.04284
469.30562	0.04259
468.01985	0.04240
466.73408	0.04227
465.44832	0.04213
464.16255	0.04192
462.87678	0.04165
461.59101	0.04137
460.30524	0.04112
459.01947	0.04090
457.73370	0.04069
456.44793	0.04048
455.16216	0.04032
453.87640	0.04017
452.59063	0.03999
451.30486	0.03976
450.01909	0.03952
448.73332	0.03926
447.44755	0.03899
446.16178	0.03874
444.87601	0.03854
443.59025	0.03841
442.30448	0.03833
441.01871	0.03826
439.73294	0.03816
438.44717	0.03801
437.16140	0.03782
435.87563	0.03759
434.58986	0.03737
433.30409	0.03719
432.01833	0.03707
430.73256	0.03698
429.44679	0.03688
428.16102	0.03675
426.87525	0.03657
425.58948	0.03634
424.30371	0.03608
423.01794	0.03577
421.73218	0.03545
420.44641	0.03518
419.16064	0.03498
417.87487	0.03485
416.58910	0.03475
415.30333	0.03461
414.01756	0.03444
412.73179	0.03424
411.44602	0.03406
410.16026	0.03387
408.87449	0.03366
407.58872	0.03344
406.30295	0.03324
405.01718	0.03310
403.73141	0.03301
402.44564	0.03293
401.15987	0.03286
399.87411	0.03277
