3996.16951	0.05220
3994.24086	0.05183
3992.31221	0.05224
3990.38355	0.05295
3988.45490	0.05330
3986.52625	0.05345
3984.59759	0.05367
3982.66894	0.05363
3980.74029	0.05327
3978.81163	0.05284
3976.88298	0.05221
3974.95433	0.05163
3973.02567	0.05173
3971.09702	0.05213
3969.16837	0.05224
3967.23972	0.05225
3965.31106	0.05229
3963.38241	0.05245
3961.45376	0.05298
3959.52510	0.05320
3957.59645	0.05255
3955.66780	0.05200
3953.73914	0.05234
3951.81049	0.05290
3949.88184	0.05290
3947.95318	0.05239
3946.02453	0.05177
3944.09588	0.05136
3942.16722	0.05153
3940.23857	0.05222
3938.30992	0.05259
3936.38126	0.05237
3934.45261	0.05196
3932.52396	0.05162
3930.59530	0.05135
3928.66665	0.05109
3926.73800	0.05067
3924.80934	0.05012
3922.88069	0.04974
3920.95204	0.04970
3919.02338	0.05005
3917.09473	0.05051
3915.16608	0.05087
3913.23742	0.05116
3911.30877	0.05133
3909.38012	0.05118
3907.45146	0.05088
3905.52281	0.05075
3903.59416	0.05082
3901.66550	0.05067
3899.73685	0.04999
3897.80820	0.04925
3895.87955	0.04893
3893.95089	0.04898
3892.02224	0.04922
3890.09359	0.04966
3888.16493	0.04996
3886.23628	0.04977
3884.30763	0.04949
3882.37897	0.04926
3880.45032	0.04931
3878.52167	0.04969
3876.59301	0.04961
3874.66436	0.04911
3872.73571	0.04900
3870.80705	0.04920
3868.87840	0.04963
3866.94975	0.05001
3865.02109	0.05022
3863.09244	0.05052
3861.16379	0.05034
3859.23513	0.04961
3857.30648	0.04924
3855.37783	0.04934
3853.44917	0.04947
3851.52052	0.04960
3849.59187	0.04948
3847.66321	0.04939
3845.73456	0.04952
3843.80591	0.04934
3841.87725	0.04879
3839.94860	0.04828
3838.01995	0.04794
3836.09129	0.04800
3834.16264	0.04831
3832.23399	0.04851
3830.30534	0.04832
3828.37668	0.04786
3826.44803	0.04754
3824.51938	0.04769
3822.59072	0.04806
3820.66207	0.04849
3818.73342	0.04854
3816.80476	0.04777
3814.87611	0.04725
3812.94746	0.04727
3811.01880	0.04720
3809.09015	0.04700
3807.16150	0.04701
3805.23284	0.04725
3803.30419	0.04693
3801.37554	0.04644
3799.44688	0.04641
3797.51823	0.04621
3795.58958	0.04627
3793.66092	0.04671
3791.73227	0.04683
3789.80362	0.04654
3787.87496	0.04622
3785.94631	0.04605
3784.01766	0.04596
3782.08900	0.04608
3780.16035	0.04625
3778.23170	0.04622
3776.30304	0.04618
3774.37439	0.04602
3772.44574	0.04558
3770.51708	0.04510
3768.58843	0.04490
3766.65978	0.04492
3764.73112	0.04505
3762.80247	0.04504
3760.87382	0.04460
3758.94517	0.04431
3757.01651	0.04478
3755.08786	0.04560
3753.15921	0.04608
3751.23055	0.04620
3749.30190	0.04606
3747.37325	0.04562
3745.44459	0.04461
3743.51594	0.04426
3741.58729	0.04486
3739.65863	0.04512
3737.72998	0.04468
3735.80133	0.04417
3733.87267	0.04413
3731.94402	0.04401
3730.01537	0.04370
3728.08671	0.04356
3726.15806	0.04374
3724.22941	0.04345
3722.30075	0.04268
3720.37210	0.04252
3718.44345	0.04287
3716.51479	0.04334
3714.58614	0.04376
3712.65749	0.04370
3710.72883	0.04330
3708.80018	0.04293
3706.87153	0.04289
3704.94287	0.04314
3703.01422	0.04322
3701.08557	0.04309
3699.15691	0.04269
3697.22826	0.04191
3695.29961	0.04160
3693.37095	0.04216
3691.44230	0.04291
3689.51365	0.04331
3687.58500	0.04344
3685.65634	0.04320
3683.72769	0.04241
3681.79904	0.04180
3679.87038	0.04189
3677.94173	0.04237
3676.01308	0.04278
3674.08442	0.04322
3672.15577	0.04330
3670.22712	0.04326
3668.29846	0.04327
3666.36981	0.04294
3664.44116	0.04289
3662.51250	0.04335
3660.58385	0.04375
3658.65520	0.04375
3656.72654	0.04347
3654.79789	0.04352
3652.86924	0.04411
3650.94058	0.04480
3649.01193	0.04522
3647.08328	0.04554
3645.15462	0.04590
3643.22597	0.04611
3641.29732	0.04630
3639.36866	0.04656
3637.44001	0.04675
3635.51136	0.04674
3633.58270	0.04661
3631.65405	0.04676
3629.72540	0.04728
3627.79674	0.04786
3625.86809	0.04795
3623.93944	0.04793
3622.01079	0.04843
3620.08213	0.04928
3618.15348	0.05026
3616.22483	0.05085
3614.29617	0.05091
3612.36752	0.05096
3610.43887	0.05090
3608.51021	0.05089
3606.58156	0.05138
3604.65291	0.05218
3602.72425	0.05306
3600.79560	0.05377
3598.86695	0.05412
3596.93829	0.05408
3595.00964	0.05400
3593.08099	0.05440
3591.15233	0.05524
3589.22368	0.05596
3587.29503	0.05625
3585.36637	0.05634
3583.43772	0.05658
3581.50907	0.05707
3579.58041	0.05777
3577.65176	0.05868
3575.72311	0.05973
3573.79445	0.06081
3571.86580	0.06171
3569.93715	0.06214
3568.00849	0.06237
3566.07984	0.06318
3564.15119	0.06424
3562.22253	0.06471
3560.29388	0.06486
3558.36523	0.06531
3556.43657	0.06589
3554.50792	0.06641
3552.57927	0.06708
3550.65062	0.06797
3548.72196	0.06868
3546.79331	0.06902
3544.86466	0.06955
3542.93600	0.07066
3541.00735	0.07175
3539.07870	0.07244
3537.15004	0.07304
3535.22139	0.07353
3533.29274	0.07368
3531.36408	0.07373
3529.43543	0.07422
3527.50678	0.07521
3525.57812	0.07620
3523.64947	0.07697
3521.72082	0.07752
3519.79216	0.07771
3517.86351	0.07793
3515.93486	0.07868
3514.00620	0.07976
3512.07755	0.08070
3510.14890	0.08136
3508.22024	0.08183
3506.29159	0.08216
3504.36294	0.08245
3502.43428	0.08279
3500.50563	0.08300
3498.57698	0.08306
3496.64832	0.08334
3494.71967	0.08414
3492.79102	0.08513
3490.86236	0.08574
3488.93371	0.08602
3487.00506	0.08634
3485.07641	0.08672
3483.14775	0.08709
3481.21910	0.08750
3479.29045	0.08780
3477.36179	0.08805
3475.43314	0.08857
3473.50449	0.08930
3471.57583	0.09004
3469.64718	0.09061
3467.71853	0.09098
3465.78987	0.09137
3463.86122	0.09190
3461.93257	0.09245
3460.00391	0.09284
3458.07526	0.09298
3456.14661	0.09326
3454.21795	0.09375
3452.28930	0.09427
3450.36065	0.09486
3448.43199	0.09555
3446.50334	0.09632
3444.57469	0.09706
3442.64603	0.09745
3440.71738	0.09756
3438.78873	0.09794
3436.86007	0.09869
3434.93142	0.09946
3433.00277	0.10013
3431.07411	0.10066
3429.14546	0.10095
3427.21681	0.10121
3425.28815	0.10166
3423.35950	0.10210
3421.43085	0.10245
3419.50219	0.10295
3417.57354	0.10353
3415.64489	0.10401
3413.71624	0.10438
3411.78758	0.10483
3409.85893	0.10564
3407.93028	0.10664
3406.00162	0.10746
3404.07297	0.10797
3402.14432	0.10821
3400.21566	0.10840
3398.28701	0.10861
3396.35836	0.10892
3394.42970	0.10938
3392.50105	0.10973
3390.57240	0.10989
3388.64374	0.11042
3386.71509	0.11146
3384.78644	0.11257
3382.85778	0.11361
3380.92913	0.11452
3379.00048	0.11519
3377.07182	0.11579
3375.14317	0.11629
3373.21452	0.11664
3371.28586	0.11714
3369.35721	0.11793
3367.42856	0.11885
3365.49990	0.11979
3363.57125	0.12098
3361.64260	0.12249
3359.71394	0.12379
3357.78529	0.12458
3355.85664	0.12528
3353.92798	0.12613
3351.99933	0.12717
3350.07068	0.12848
3348.14202	0.13000
3346.21337	0.13127
3344.28472	0.13206
3342.35607	0.13263
3340.42741	0.13332
3338.49876	0.13443
3336.57011	0.13593
3334.64145	0.13712
3332.71280	0.13795
3330.78415	0.13896
3328.85549	0.13999
3326.92684	0.14081
3324.99819	0.14159
3323.06953	0.14229
3321.14088	0.14270
3319.21223	0.14295
3317.28357	0.14341
3315.35492	0.14411
3313.42627	0.14466
3311.49761	0.14496
3309.56896	0.14515
3307.64031	0.14532
3305.71165	0.14555
3303.78300	0.14605
3301.85435	0.14672
3299.92569	0.14722
3297.99704	0.14726
3296.06839	0.14697
3294.13973	0.14670
3292.21108	0.14663
3290.28243	0.14670
3288.35377	0.14677
3286.42512	0.14693
3284.49647	0.14730
3282.56781	0.14753
3280.63916	0.14732
3278.71051	0.14719
3276.78186	0.14740
3274.85320	0.14729
3272.92455	0.14664
3270.99590	0.14589
3269.06724	0.14521
3267.13859	0.14442
3265.20994	0.14352
3263.28128	0.14266
3261.35263	0.14189
3259.42398	0.14124
3257.49532	0.14057
3255.56667	0.13979
3253.63802	0.13915
3251.70936	0.13875
3249.78071	0.13855
3247.85206	0.13844
3245.92340	0.13829
3243.99475	0.13814
3242.06610	0.13798
3240.13744	0.13752
3238.20879	0.13657
3236.28014	0.13561
3234.35148	0.13523
3232.42283	0.13511
3230.49418	0.13467
3228.56552	0.13406
3226.63687	0.13358
3224.70822	0.13311
3222.77956	0.13248
3220.85091	0.13187
3218.92226	0.13153
3216.99360	0.13132
3215.06495	0.13090
3213.13630	0.13045
3211.20764	0.13027
3209.27899	0.13014
3207.35034	0.12976
3205.42169	0.12924
3203.49303	0.12885
3201.56438	0.12864
3199.63573	0.12824
3197.70707	0.12749
3195.77842	0.12691
3193.84977	0.12671
3191.92111	0.12641
3189.99246	0.12574
3188.06381	0.12483
3186.13515	0.12384
3184.20650	0.12297
3182.27785	0.12229
3180.34919	0.12174
3178.42054	0.12118
3176.49189	0.12069
3174.56323	0.12042
3172.63458	0.12003
3170.70593	0.11922
3168.77727	0.11821
3166.84862	0.11736
3164.91997	0.11667
3162.99131	0.11578
3161.06266	0.11483
3159.13401	0.11427
3157.20535	0.11396
3155.27670	0.11348
3153.34805	0.11283
3151.41939	0.11201
3149.49074	0.11098
3147.56209	0.10994
3145.63343	0.10918
3143.70478	0.10876
3141.77613	0.10846
3139.84748	0.10788
3137.91882	0.10694
3135.99017	0.10617
3134.06152	0.10584
3132.13286	0.10575
3130.20421	0.10561
3128.27556	0.10525
3126.34690	0.10482
3124.41825	0.10448
3122.48960	0.10414
3120.56094	0.10392
3118.63229	0.10388
3116.70364	0.10378
3114.77498	0.10349
3112.84633	0.10323
3110.91768	0.10316
3108.98902	0.10311
3107.06037	0.10304
3105.13172	0.10317
3103.20306	0.10331
3101.27441	0.10325
3099.34576	0.10332
3097.41710	0.10365
3095.48845	0.10392
3093.55980	0.10405
3091.63114	0.10425
3089.70249	0.10456
3087.77384	0.10493
3085.84518	0.10529
3083.91653	0.10556
3081.98788	0.10578
3080.05922	0.10595
3078.13057	0.10602
3076.20192	0.10602
3074.27326	0.10602
3072.34461	0.10598
3070.41596	0.10596
3068.48731	0.10610
3066.55865	0.10611
3064.63000	0.10566
3062.70135	0.10502
3060.77269	0.10474
3058.84404	0.10473
3056.91539	0.10447
3054.98673	0.10386
3053.05808	0.10318
3051.12943	0.10262
3049.20077	0.10211
3047.27212	0.10143
3045.34347	0.10072
3043.41481	0.10011
3041.48616	0.09961
3039.55751	0.09918
3037.62885	0.09868
3035.70020	0.09794
3033.77155	0.09711
3031.84289	0.09647
3029.91424	0.09583
3027.98559	0.09498
3026.05693	0.09424
3024.12828	0.09376
3022.19963	0.09314
3020.27097	0.09237
3018.34232	0.09199
3016.41367	0.09204
3014.48501	0.09201
3012.55636	0.09165
3010.62771	0.09121
3008.69905	0.09098
3006.77040	0.09095
3004.84175	0.09093
3002.91309	0.09078
3000.98444	0.09064
2999.05579	0.09070
2997.12714	0.09091
2995.19848	0.09118
2993.26983	0.09141
2991.34118	0.09168
2989.41252	0.09210
2987.48387	0.09263
2985.55522	0.09313
2983.62656	0.09348
2981.69791	0.09377
2979.76926	0.09412
2977.84060	0.09463
2975.91195	0.09530
2973.98330	0.09584
2972.05464	0.09608
2970.12599	0.09631
2968.19734	0.09684
2966.26868	0.09753
2964.34003	0.09821
2962.41138	0.09884
2960.48272	0.09945
2958.55407	0.10003
2956.62542	0.10044
2954.69676	0.10066
2952.76811	0.10086
2950.83946	0.10103
2948.91080	0.10116
2946.98215	0.10139
2945.05350	0.10181
2943.12484	0.10235
2941.19619	0.10304
2939.26754	0.10401
2937.33888	0.10517
2935.41023	0.10615
2933.48158	0.10693
2931.55293	0.10777
2929.62427	0.10861
2927.69562	0.10937
2925.76697	0.10993
2923.83831	0.11003
2921.90966	0.10962
2919.98101	0.10887
2918.05235	0.10794
2916.12370	0.10674
2914.19505	0.10500
2912.26639	0.10272
2910.33774	0.10046
2908.40909	0.09881
2906.48043	0.09764
2904.55178	0.09671
2902.62313	0.09598
2900.69447	0.09544
2898.76582	0.09499
2896.83717	0.09448
2894.90851	0.09393
2892.97986	0.09339
2891.05121	0.09288
2889.12255	0.09251
2887.19390	0.09237
2885.26525	0.09231
2883.33659	0.09209
2881.40794	0.09181
2879.47929	0.09183
2877.55063	0.09207
2875.62198	0.09226
2873.69333	0.09227
2871.76467	0.09212
2869.83602	0.09176
2867.90737	0.09125
2865.97871	0.09076
2864.05006	0.09035
2862.12141	0.09009
2860.19276	0.09007
2858.26410	0.09020
2856.33545	0.09037
2854.40680	0.09062
2852.47814	0.09078
2850.54949	0.09040
2848.62084	0.08926
2846.69218	0.08751
2844.76353	0.08571
2842.83488	0.08428
2840.90622	0.08309
2838.97757	0.08207
2837.04892	0.08119
2835.12026	0.08038
2833.19161	0.07974
2831.26296	0.07944
2829.33430	0.07927
2827.40565	0.07875
2825.47700	0.07792
2823.54834	0.07738
2821.61969	0.07724
2819.69104	0.07718
2817.76238	0.07701
2815.83373	0.07675
2813.90508	0.07647
2811.97642	0.07622
2810.04777	0.07595
2808.11912	0.07560
2806.19046	0.07519
2804.26181	0.07482
2802.33316	0.07462
2800.40450	0.07465
2798.47585	0.07467
2796.54720	0.07441
2794.61855	0.07396
2792.68989	0.07357
2790.76124	0.07336
2788.83259	0.07325
2786.90393	0.07304
2784.97528	0.07273
2783.04663	0.07240
2781.11797	0.07205
2779.18932	0.07164
2777.26067	0.07133
2775.33201	0.07115
2773.40336	0.07095
2771.47471	0.07080
2769.54605	0.07065
2767.61740	0.07029
2765.68875	0.06988
2763.76009	0.06952
2761.83144	0.06916
2759.90279	0.06888
2757.97413	0.06867
2756.04548	0.06850
2754.11683	0.06836
2752.18817	0.06821
2750.25952	0.06810
2748.33087	0.06796
2746.40221	0.06765
2744.47356	0.06739
2742.54491	0.06742
2740.61625	0.06745
2738.68760	0.06723
2736.75895	0.06695
2734.83029	0.06670
2732.90164	0.06639
2730.97299	0.06611
2729.04433	0.06595
2727.11568	0.06577
2725.18703	0.06555
2723.25838	0.06529
2721.32972	0.06504
2719.40107	0.06483
2717.47242	0.06457
2715.54376	0.06424
2713.61511	0.06397
2711.68646	0.06383
2709.75780	0.06378
2707.82915	0.06382
2705.90050	0.06373
2703.97184	0.06334
2702.04319	0.06288
2700.11454	0.06270
2698.18588	0.06269
2696.25723	0.06249
2694.32858	0.06218
2692.39992	0.06213
2690.47127	0.06236
2688.54262	0.06255
2686.61396	0.06252
2684.68531	0.06229
2682.75666	0.06195
2680.82800	0.06164
2678.89935	0.06148
2676.97070	0.06139
2675.04204	0.06128
2673.11339	0.06120
2671.18474	0.06115
2669.25608	0.06110
2667.32743	0.06111
2665.39878	0.06112
2663.47012	0.06105
2661.54147	0.06086
2659.61282	0.06050
2657.68417	0.06005
2655.75551	0.05979
2653.82686	0.05963
2651.89821	0.05934
2649.96955	0.05890
2648.04090	0.05852
2646.11225	0.05827
2644.18359	0.05803
2642.25494	0.05780
2640.32629	0.05760
2638.39763	0.05728
2636.46898	0.05684
2634.54033	0.05648
2632.61167	0.05627
2630.68302	0.05598
2628.75437	0.05549
2626.82571	0.05501
2624.89706	0.05473
2622.96841	0.05449
2621.03975	0.05406
2619.11110	0.05341
2617.18245	0.05270
2615.25379	0.05221
2613.32514	0.05195
2611.39649	0.05176
2609.46783	0.05178
2607.53918	0.05206
2605.61053	0.05214
2603.68187	0.05178
2601.75322	0.05127
2599.82457	0.05087
2597.89591	0.05054
2595.96726	0.05016
2594.03861	0.04983
2592.10995	0.04961
2590.18130	0.04942
2588.25265	0.04918
2586.32400	0.04888
2584.39534	0.04842
2582.46669	0.04793
2580.53804	0.04775
2578.60938	0.04791
2576.68073	0.04795
2574.75208	0.04753
2572.82342	0.04679
2570.89477	0.04614
2568.96612	0.04591
2567.03746	0.04623
2565.10881	0.04676
2563.18016	0.04695
2561.25150	0.04667
2559.32285	0.04626
2557.39420	0.04584
2555.46554	0.04546
2553.53689	0.04544
2551.60824	0.04573
2549.67958	0.04578
2547.75093	0.04553
2545.82228	0.04517
2543.89362	0.04479
2541.96497	0.04469
2540.03632	0.04480
2538.10766	0.04481
2536.17901	0.04474
2534.25036	0.04465
2532.32170	0.04450
2530.39305	0.04441
2528.46440	0.04426
2526.53574	0.04388
2524.60709	0.04344
2522.67844	0.04317
2520.74978	0.04304
2518.82113	0.04301
2516.89248	0.04304
2514.96383	0.04296
2513.03517	0.04279
2511.10652	0.04262
2509.17787	0.04256
2507.24921	0.04274
2505.32056	0.04288
2503.39191	0.04290
2501.46325	0.04282
2499.53460	0.04252
2497.60595	0.04222
2495.67729	0.04217
2493.74864	0.04212
2491.81999	0.04184
2489.89133	0.04153
2487.96268	0.04143
2486.03403	0.04141
2484.10537	0.04128
2482.17672	0.04106
2480.24807	0.04076
2478.31941	0.04055
2476.39076	0.04046
2474.46211	0.04039
2472.53345	0.04045
2470.60480	0.04069
2468.67615	0.04086
2466.74749	0.04074
2464.81884	0.04046
2462.89019	0.04035
2460.96153	0.04049
2459.03288	0.04058
2457.10423	0.04041
2455.17557	0.04010
2453.24692	0.03978
2451.31827	0.03942
2449.38962	0.03921
2447.46096	0.03930
2445.53231	0.03949
2443.60366	0.03945
2441.67500	0.03918
2439.74635	0.03902
2437.81770	0.03930
2435.88904	0.03972
2433.96039	0.03986
2432.03174	0.03971
2430.10308	0.03937
2428.17443	0.03894
2426.24578	0.03874
2424.31712	0.03892
2422.38847	0.03911
2420.45982	0.03908
2418.53116	0.03902
2416.60251	0.03918
2414.67386	0.03941
2412.74520	0.03937
2410.81655	0.03907
2408.88790	0.03882
2406.95924	0.03878
2405.03059	0.03888
2403.10194	0.03893
2401.17328	0.03900
2399.24463	0.03913
2397.31598	0.03924
2395.38732	0.03931
2393.45867	0.03949
2391.53002	0.03970
2389.60136	0.03981
2387.67271	0.03983
2385.74406	0.03974
2383.81540	0.03951
2381.88675	0.03925
2379.95810	0.03918
2378.02945	0.03938
2376.10079	0.03969
2374.17214	0.03997
2372.24349	0.04011
2370.31483	0.04005
2368.38618	0.04000
2366.45753	0.04014
2364.52887	0.04041
2362.60022	0.04065
2360.67157	0.04070
2358.74291	0.04053
2356.81426	0.04050
2354.88561	0.04079
2352.95695	0.04108
2351.02830	0.04103
2349.09965	0.04087
2347.17099	0.04088
2345.24234	0.04103
2343.31369	0.04116
2341.38503	0.04126
2339.45638	0.04130
2337.52773	0.04117
2335.59907	0.04081
2333.67042	0.04040
2331.74177	0.04022
2329.81311	0.04029
2327.88446	0.04064
2325.95581	0.04123
2324.02715	0.04153
2322.09850	0.04119
2320.16985	0.04047
2318.24119	0.03969
2316.31254	0.03896
2314.38389	0.03851
2312.45524	0.03826
2310.52658	0.03792
2308.59793	0.03732
2306.66928	0.03662
2304.74062	0.03606
2302.81197	0.03575
2300.88332	0.03562
2298.95466	0.03545
2297.02601	0.03509
2295.09736	0.03467
2293.16870	0.03429
2291.24005	0.03397
2289.31140	0.03379
2287.38274	0.03360
2285.45409	0.03338
2283.52544	0.03325
2281.59678	0.03297
2279.66813	0.03237
2277.73948	0.03152
2275.81082	0.03051
2273.88217	0.02958
2271.95352	0.02913
2270.02486	0.02914
2268.09621	0.02915
2266.16756	0.02876
2264.23890	0.02819
2262.31025	0.02786
2260.38160	0.02763
2258.45294	0.02729
2256.52429	0.02701
2254.59564	0.02686
2252.66698	0.02664
2250.73833	0.02621
2248.80968	0.02560
2246.88102	0.02491
2244.95237	0.02454
2243.02372	0.02431
2241.09507	0.02413
2239.16641	0.02398
2237.23776	0.02352
2235.30911	0.02293
2233.38045	0.02280
2231.45180	0.02302
2229.52315	0.02319
2227.59449	0.02324
2225.66584	0.02315
2223.73719	0.02286
2221.80853	0.02242
2219.87988	0.02199
2217.95123	0.02174
2216.02257	0.02156
2214.09392	0.02129
2212.16527	0.02084
2210.23661	0.02034
2208.30796	0.01995
2206.37931	0.01951
2204.45065	0.01879
2202.52200	0.01796
2200.59335	0.01765
2198.66469	0.01803
2196.73604	0.01855
2194.80739	0.01881
2192.87873	0.01882
2190.95008	0.01843
2189.02143	0.01747
2187.09277	0.01655
2185.16412	0.01607
2183.23547	0.01571
2181.30681	0.01557
2179.37816	0.01603
2177.44951	0.01654
2175.52085	0.01642
2173.59220	0.01607
2171.66355	0.01572
2169.73490	0.01513
2167.80624	0.01450
2165.87759	0.01368
2163.94894	0.01263
2162.02028	0.01188
2160.09163	0.01134
2158.16298	0.01075
2156.23432	0.01115
2154.30567	0.01290
2152.37702	0.01454
2150.44836	0.01535
2148.51971	0.01563
2146.59106	0.01560
2144.66240	0.01572
2142.73375	0.01608
2140.80510	0.01618
2138.87644	0.01596
2136.94779	0.01594
2135.01914	0.01651
2133.09048	0.01760
2131.16183	0.01894
2129.23318	0.02007
2127.30452	0.02088
2125.37587	0.02150
2123.44722	0.02197
2121.51856	0.02211
2119.58991	0.02198
2117.66126	0.02222
2115.73260	0.02286
2113.80395	0.02306
2111.87530	0.02254
2109.94664	0.02201
2108.01799	0.02209
2106.08934	0.02244
2104.16069	0.02237
2102.23203	0.02229
2100.30338	0.02268
2098.37473	0.02287
2096.44607	0.02244
2094.51742	0.02196
2092.58877	0.02176
2090.66011	0.02167
2088.73146	0.02135
2086.80281	0.02074
2084.87415	0.02027
2082.94550	0.02024
2081.01685	0.02043
2079.08819	0.02062
2077.15954	0.02055
2075.23089	0.02021
2073.30223	0.02001
2071.37358	0.01979
2069.44493	0.01932
2067.51627	0.01893
2065.58762	0.01873
2063.65897	0.01861
2061.73031	0.01841
2059.80166	0.01779
2057.87301	0.01698
2055.94435	0.01653
2054.01570	0.01645
2052.08705	0.01629
2050.15839	0.01588
2048.22974	0.01547
2046.30109	0.01496
2044.37243	0.01434
2042.44378	0.01402
2040.51513	0.01377
2038.58647	0.01309
2036.65782	0.01229
2034.72917	0.01188
2032.80052	0.01175
2030.87186	0.01145
2028.94321	0.01097
2027.01456	0.01068
2025.08590	0.01051
2023.15725	0.01056
2021.22860	0.01103
2019.29994	0.01146
2017.37129	0.01157
2015.44264	0.01161
2013.51398	0.01159
2011.58533	0.01148
2009.65668	0.01141
2007.72802	0.01117
2005.79937	0.01086
2003.87072	0.01129
2001.94206	0.01271
2000.01341	0.01402
1998.08476	0.01434
1996.15610	0.01399
1994.22745	0.01347
1992.29880	0.01299
1990.37014	0.01273
1988.44149	0.01272
1986.51284	0.01299
1984.58418	0.01358
1982.65553	0.01397
1980.72688	0.01367
1978.79822	0.01286
1976.86957	0.01219
1974.94092	0.01205
1973.01226	0.01203
1971.08361	0.01176
1969.15496	0.01181
1967.22631	0.01244
1965.29765	0.01323
1963.36900	0.01386
1961.44035	0.01422
1959.51169	0.01407
1957.58304	0.01341
1955.65439	0.01294
1953.72573	0.01322
1951.79708	0.01391
1949.86843	0.01453
1947.93977	0.01519
1946.01112	0.01619
1944.08247	0.01722
1942.15381	0.01761
1940.22516	0.01737
1938.29651	0.01715
1936.36785	0.01730
1934.43920	0.01755
1932.51055	0.01748
1930.58189	0.01713
1928.65324	0.01694
1926.72459	0.01716
1924.79593	0.01765
1922.86728	0.01809
1920.93863	0.01830
1919.00997	0.01834
1917.08132	0.01832
1915.15267	0.01834
1913.22401	0.01847
1911.29536	0.01854
1909.36671	0.01859
1907.43805	0.01868
1905.50940	0.01870
1903.58075	0.01872
1901.65209	0.01881
1899.72344	0.01887
1897.79479	0.01892
1895.86614	0.01916
1893.93748	0.01968
1892.00883	0.02007
1890.08018	0.01999
1888.15152	0.01964
1886.22287	0.01930
1884.29422	0.01919
1882.36556	0.01922
1880.43691	0.01916
1878.50826	0.01913
1876.57960	0.01931
1874.65095	0.01949
1872.72230	0.01945
1870.79364	0.01946
1868.86499	0.01969
1866.93634	0.01982
1865.00768	0.01968
1863.07903	0.01955
1861.15038	0.01955
1859.22172	0.01950
1857.29307	0.01938
1855.36442	0.01938
1853.43576	0.01961
1851.50711	0.01989
1849.57846	0.01993
1847.64980	0.01984
1845.72115	0.01978
1843.79250	0.01986
1841.86384	0.02005
1839.93519	0.02004
1838.00654	0.01985
1836.07788	0.01966
1834.14923	0.01963
1832.22058	0.01974
1830.29192	0.01985
1828.36327	0.01997
1826.43462	0.02004
1824.50597	0.02008
1822.57731	0.02011
1820.64866	0.02005
1818.72001	0.01989
1816.79135	0.01972
1814.86270	0.01969
1812.93405	0.01973
1811.00539	0.01973
1809.07674	0.01970
1807.14809	0.01973
1805.21943	0.01981
1803.29078	0.01989
1801.36213	0.01985
1799.43347	0.01978
1797.50482	0.01982
1795.57617	0.01992
1793.64751	0.01992
1791.71886	0.01987
1789.79021	0.01980
1787.86155	0.01964
1785.93290	0.01953
1784.00425	0.01949
1782.07559	0.01949
1780.14694	0.01949
1778.21829	0.01944
1776.28963	0.01939
1774.36098	0.01944
1772.43233	0.01949
1770.50367	0.01941
1768.57502	0.01910
1766.64637	0.01888
1764.71771	0.01885
1762.78906	0.01884
1760.86041	0.01890
1758.93176	0.01902
1757.00310	0.01919
1755.07445	0.01947
1753.14580	0.01967
1751.21714	0.01977
1749.28849	0.01993
1747.35984	0.02003
1745.43118	0.02015
1743.50253	0.02050
1741.57388	0.02102
1739.64522	0.02153
1737.71657	0.02207
1735.78792	0.02254
1733.85926	0.02301
1731.93061	0.02355
1730.00196	0.02397
1728.07330	0.02443
1726.14465	0.02498
1724.21600	0.02549
1722.28734	0.02605
1720.35869	0.02675
1718.43004	0.02750
1716.50138	0.02846
1714.57273	0.02958
1712.64408	0.03077
1710.71542	0.03211
1708.78677	0.03360
1706.85812	0.03526
1704.92946	0.03717
1703.00081	0.03933
1701.07216	0.04168
1699.14350	0.04445
1697.21485	0.04717
1695.28620	0.04982
1693.35754	0.05281
1691.42889	0.05581
1689.50024	0.05889
1687.57159	0.06222
1685.64293	0.06562
1683.71428	0.06923
1681.78563	0.07299
1679.85697	0.07680
1677.92832	0.08099
1675.99967	0.08555
1674.07101	0.09047
1672.14236	0.09550
1670.21371	0.10054
1668.28505	0.10564
1666.35640	0.11060
1664.42775	0.11533
1662.49909	0.11997
1660.57044	0.12444
1658.64179	0.12854
1656.71313	0.13229
1654.78448	0.13557
1652.85583	0.13851
1650.92717	0.14131
1648.99852	0.14357
1647.06987	0.14552
1645.14121	0.14755
1643.21256	0.14947
1641.28391	0.15119
1639.35525	0.15288
1637.42660	0.15445
1635.49795	0.15585
1633.56929	0.15713
1631.64064	0.15791
1629.71199	0.15798
1627.78333	0.15730
1625.85468	0.15588
1623.92603	0.15366
1621.99738	0.15076
1620.06872	0.14731
1618.14007	0.14333
1616.21142	0.13903
1614.28276	0.13452
1612.35411	0.12970
1610.42546	0.12475
1608.49680	0.11982
1606.56815	0.11501
1604.63950	0.11041
1602.71084	0.10606
1600.78219	0.10200
1598.85354	0.09823
1596.92488	0.09481
1594.99623	0.09186
1593.06758	0.08937
1591.13892	0.08728
1589.21027	0.08553
1587.28162	0.08410
1585.35296	0.08299
1583.42431	0.08237
1581.49566	0.08231
1579.56700	0.08272
1577.63835	0.08348
1575.70970	0.08475
1573.78104	0.08653
1571.85239	0.08847
1569.92374	0.09073
1567.99508	0.09347
1566.06643	0.09642
1564.13778	0.09958
1562.20912	0.10295
1560.28047	0.10626
1558.35182	0.10956
1556.42316	0.11263
1554.49451	0.11516
1552.56586	0.11748
1550.63721	0.11969
1548.70855	0.12171
1546.77990	0.12342
1544.85125	0.12480
1542.92259	0.12592
1540.99394	0.12672
1539.06529	0.12724
1537.13663	0.12749
1535.20798	0.12734
1533.27933	0.12704
1531.35067	0.12668
1529.42202	0.12606
1527.49337	0.12522
1525.56471	0.12431
1523.63606	0.12332
1521.70741	0.12214
1519.77875	0.12093
1517.85010	0.11954
1515.92145	0.11786
1513.99279	0.11590
1512.06414	0.11360
1510.13549	0.11107
1508.20683	0.10825
1506.27818	0.10522
1504.34953	0.10214
1502.42087	0.09893
1500.49222	0.09570
1498.56357	0.09262
1496.63491	0.08957
1494.70626	0.08657
1492.77761	0.08360
1490.84895	0.08071
1488.92030	0.07810
1486.99165	0.07594
1485.06299	0.07429
1483.13434	0.07306
1481.20569	0.07231
1479.27704	0.07209
1477.34838	0.07238
1475.41973	0.07312
1473.49108	0.07425
1471.56242	0.07579
1469.63377	0.07757
1467.70512	0.07935
1465.77646	0.08113
1463.84781	0.08304
1461.91916	0.08503
1459.99050	0.08707
1458.06185	0.08923
1456.13320	0.09149
1454.20454	0.09344
1452.27589	0.09469
1450.34724	0.09543
1448.41858	0.09575
1446.48993	0.09567
1444.56128	0.09524
1442.63262	0.09456
1440.70397	0.09375
1438.77532	0.09274
1436.84666	0.09142
1434.91801	0.08984
1432.98936	0.08806
1431.06070	0.08627
1429.13205	0.08471
1427.20340	0.08341
1425.27474	0.08241
1423.34609	0.08175
1421.41744	0.08134
1419.48878	0.08105
1417.56013	0.08092
1415.63148	0.08084
1413.70283	0.08079
1411.77417	0.08086
1409.84552	0.08107
1407.91687	0.08133
1405.98821	0.08147
1404.05956	0.08145
1402.13091	0.08128
1400.20225	0.08091
1398.27360	0.08038
1396.34495	0.07976
1394.41629	0.07911
1392.48764	0.07855
1390.55899	0.07805
1388.63033	0.07762
1386.70168	0.07726
1384.77303	0.07696
1382.84437	0.07664
1380.91572	0.07633
1378.98707	0.07599
1377.05841	0.07555
1375.12976	0.07497
1373.20111	0.07435
1371.27245	0.07371
1369.34380	0.07288
1367.41515	0.07178
1365.48649	0.07056
1363.55784	0.06946
1361.62919	0.06864
1359.70053	0.06808
1357.77188	0.06772
1355.84323	0.06758
1353.91457	0.06776
1351.98592	0.06826
1350.05727	0.06898
1348.12861	0.06988
1346.19996	0.07092
1344.27131	0.07203
1342.34266	0.07319
1340.41400	0.07427
1338.48535	0.07506
1336.55670	0.07550
1334.62804	0.07561
1332.69939	0.07537
1330.77074	0.07478
1328.84208	0.07394
1326.91343	0.07299
1324.98478	0.07207
1323.05612	0.07126
1321.12747	0.07060
1319.19882	0.07013
1317.27016	0.06985
1315.34151	0.06960
1313.41286	0.06923
1311.48420	0.06873
1309.55555	0.06821
1307.62690	0.06775
1305.69824	0.06736
1303.76959	0.06702
1301.84094	0.06675
1299.91228	0.06653
1297.98363	0.06627
1296.05498	0.06606
1294.12632	0.06613
1292.19767	0.06651
1290.26902	0.06706
1288.34036	0.06767
1286.41171	0.06834
1284.48306	0.06905
1282.55440	0.06968
1280.62575	0.07012
1278.69710	0.07032
1276.76845	0.07032
1274.83979	0.07024
1272.91114	0.07023
1270.98249	0.07031
1269.05383	0.07044
1267.12518	0.07069
1265.19653	0.07109
1263.26787	0.07161
1261.33922	0.07222
1259.41057	0.07292
1257.48191	0.07370
1255.55326	0.07460
1253.62461	0.07563
1251.69595	0.07684
1249.76730	0.07818
1247.83865	0.07952
1245.90999	0.08079
1243.98134	0.08206
1242.05269	0.08340
1240.12403	0.08464
1238.19538	0.08557
1236.26673	0.08620
1234.33807	0.08654
1232.40942	0.08651
1230.48077	0.08609
1228.55211	0.08536
1226.62346	0.08434
1224.69481	0.08301
1222.76615	0.08143
1220.83750	0.07973
1218.90885	0.07815
1216.98019	0.07688
1215.05154	0.07597
1213.12289	0.07537
1211.19423	0.07510
1209.26558	0.07519
1207.33693	0.07557
1205.40828	0.07603
1203.47962	0.07633
1201.55097	0.07629
1199.62232	0.07576
1197.69366	0.07490
1195.76501	0.07374
1193.83636	0.07248
1191.90770	0.07129
1189.97905	0.07014
1188.05040	0.06901
1186.12174	0.06801
1184.19309	0.06718
1182.26444	0.06648
1180.33578	0.06593
1178.40713	0.06557
1176.47848	0.06535
1174.54982	0.06521
1172.62117	0.06515
1170.69252	0.06515
1168.76386	0.06521
1166.83521	0.06541
1164.90656	0.06569
1162.97790	0.06587
1161.04925	0.06587
1159.12060	0.06572
1157.19194	0.06541
1155.26329	0.06490
1153.33464	0.06421
1151.40598	0.06345
1149.47733	0.06266
1147.54868	0.06183
1145.62002	0.06100
1143.69137	0.06019
1141.76272	0.05945
1139.83406	0.05883
1137.90541	0.05840
1135.97676	0.05814
1134.04811	0.05794
1132.11945	0.05767
1130.19080	0.05738
1128.26215	0.05715
1126.33349	0.05693
1124.40484	0.05672
1122.47619	0.05662
1120.54753	0.05660
1118.61888	0.05657
1116.69023	0.05649
1114.76157	0.05640
1112.83292	0.05640
1110.90427	0.05655
1108.97561	0.05678
1107.04696	0.05693
1105.11831	0.05694
1103.18965	0.05699
1101.26100	0.05720
1099.33235	0.05747
1097.40369	0.05777
1095.47504	0.05816
1093.54639	0.05859
1091.61773	0.05912
1089.68908	0.05995
1087.76043	0.06101
1085.83177	0.06211
1083.90312	0.06316
1081.97447	0.06404
1080.04581	0.06454
1078.11716	0.06464
1076.18851	0.06450
1074.25985	0.06424
1072.33120	0.06389
1070.40255	0.06354
1068.47390	0.06328
1066.54524	0.06317
1064.61659	0.06319
1062.68794	0.06325
1060.75928	0.06314
1058.83063	0.06280
1056.90198	0.06240
1054.97332	0.06203
1053.04467	0.06155
1051.11602	0.06089
1049.18736	0.06018
1047.25871	0.05960
1045.33006	0.05919
1043.40140	0.05888
1041.47275	0.05868
1039.54410	0.05872
1037.61544	0.05905
1035.68679	0.05956
1033.75814	0.06006
1031.82948	0.06045
1029.90083	0.06053
1027.97218	0.06014
1026.04352	0.05937
1024.11487	0.05846
1022.18622	0.05759
1020.25756	0.05687
1018.32891	0.05625
1016.40026	0.05568
1014.47160	0.05519
1012.54295	0.05469
1010.61430	0.05405
1008.68564	0.05345
1006.75699	0.05304
1004.82834	0.05254
1002.89968	0.05181
1000.97103	0.05112
999.04238	0.05055
997.11373	0.04988
995.18507	0.04915
993.25642	0.04857
991.32777	0.04812
989.39911	0.04765
987.47046	0.04714
985.54181	0.04666
983.61315	0.04635
981.68450	0.04631
979.75585	0.04644
977.82719	0.04651
975.89854	0.04647
973.96989	0.04641
972.04123	0.04640
970.11258	0.04628
968.18393	0.04594
966.25527	0.04553
964.32662	0.04525
962.39797	0.04507
960.46931	0.04481
958.54066	0.04445
956.61201	0.04414
954.68335	0.04401
952.75470	0.04399
950.82605	0.04399
948.89739	0.04399
946.96874	0.04406
945.04009	0.04421
943.11143	0.04436
941.18278	0.04449
939.25413	0.04458
937.32547	0.04457
935.39682	0.04447
933.46817	0.04434
931.53952	0.04416
929.61086	0.04394
927.68221	0.04378
925.75356	0.04366
923.82490	0.04349
921.89625	0.04326
919.96760	0.04303
918.03894	0.04282
916.11029	0.04252
914.18164	0.04202
912.25298	0.04139
910.32433	0.04090
908.39568	0.04062
906.46702	0.04040
904.53837	0.04016
902.60972	0.03988
900.68106	0.03952
898.75241	0.03917
896.82376	0.03892
894.89510	0.03879
892.96645	0.03866
891.03780	0.03841
889.10914	0.03820
887.18049	0.03817
885.25184	0.03816
883.32318	0.03815
881.39453	0.03826
879.46588	0.03844
877.53722	0.03860
875.60857	0.03876
873.67992	0.03889
871.75126	0.03888
869.82261	0.03869
867.89396	0.03845
865.96530	0.03829
864.03665	0.03812
862.10800	0.03795
860.17935	0.03781
858.25069	0.03767
856.32204	0.03755
854.39339	0.03749
852.46473	0.03744
850.53608	0.03726
848.60743	0.03689
846.67877	0.03643
844.75012	0.03603
842.82147	0.03570
840.89281	0.03538
838.96416	0.03508
837.03551	0.03490
835.10685	0.03478
833.17820	0.03464
831.24955	0.03460
829.32089	0.03464
827.39224	0.03457
825.46359	0.03436
823.53493	0.03423
821.60628	0.03434
819.67763	0.03463
817.74897	0.03484
815.82032	0.03484
813.89167	0.03483
811.96301	0.03501
810.03436	0.03525
808.10571	0.03537
806.17705	0.03533
804.24840	0.03521
802.31975	0.03520
800.39109	0.03534
798.46244	0.03552
796.53379	0.03571
794.60513	0.03581
792.67648	0.03586
790.74783	0.03604
788.81918	0.03629
786.89052	0.03650
784.96187	0.03673
783.03322	0.03693
781.10456	0.03696
779.17591	0.03686
777.24726	0.03682
775.31860	0.03691
773.38995	0.03702
771.46130	0.03708
769.53264	0.03723
767.60399	0.03760
765.67534	0.03802
763.74668	0.03822
761.81803	0.03825
759.88938	0.03838
757.96072	0.03871
756.03207	0.03897
754.10342	0.03907
752.17476	0.03916
750.24611	0.03924
748.31746	0.03934
746.38880	0.03955
744.46015	0.03975
742.53150	0.03991
740.60284	0.04020
738.67419	0.04050
736.74554	0.04077
734.81688	0.04120
732.88823	0.04166
730.95958	0.04201
729.03092	0.04235
727.10227	0.04282
725.17362	0.04329
723.24497	0.04356
721.31631	0.04379
719.38766	0.04398
717.45901	0.04423
715.53035	0.04455
713.60170	0.04480
711.67305	0.04496
709.74439	0.04519
707.81574	0.04553
705.88709	0.04583
703.95843	0.04604
702.02978	0.04619
700.10113	0.04632
698.17247	0.04647
696.24382	0.04663
694.31517	0.04682
692.38651	0.04700
690.45786	0.04716
688.52921	0.04731
686.60055	0.04746
684.67190	0.04763
682.74325	0.04783
680.81459	0.04801
678.88594	0.04818
676.95729	0.04837
675.02863	0.04860
673.09998	0.04882
671.17133	0.04903
669.24267	0.04925
667.31402	0.04944
665.38537	0.04964
663.45671	0.04985
661.52806	0.05005
659.59941	0.05021
657.67075	0.05032
655.74210	0.05041
653.81345	0.05053
651.88480	0.05068
649.95614	0.05078
648.02749	0.05088
646.09884	0.05097
644.17018	0.05105
642.24153	0.05115
640.31288	0.05121
638.38422	0.05122
636.45557	0.05119
634.52692	0.05122
632.59826	0.05132
630.66961	0.05106
628.74096	0.04973
626.81230	0.05056
624.88365	0.05211
622.95500	0.05373
621.02634	0.05514
619.09769	0.05574
617.16904	0.05526
615.24038	0.05306
613.31173	0.04923
611.38308	0.04706
609.45442	0.04947
607.52577	0.05276
605.59712	0.05308
603.66846	0.05207
601.73981	0.05188
599.81116	0.05237
597.88250	0.05291
595.95385	0.05320
594.02520	0.05305
592.09654	0.05259
590.16789	0.05229
588.23924	0.05236
586.31059	0.05252
584.38193	0.05255
582.45328	0.05246
580.52463	0.05240
578.59597	0.05241
576.66732	0.05248
574.73867	0.05271
572.81001	0.05320
570.88136	0.05359
568.95271	0.05358
567.02405	0.05340
565.09540	0.05348
563.16675	0.05387
561.23809	0.05428
559.30944	0.05441
557.38079	0.05439
555.45213	0.05447
553.52348	0.05443
551.59483	0.05413
549.66617	0.05375
547.73752	0.05351
545.80887	0.05353
543.88021	0.05374
541.95156	0.05398
540.02291	0.05421
538.09425	0.05439
536.16560	0.05444
534.23695	0.05445
532.30829	0.05451
530.37964	0.05453
528.45099	0.05444
526.52233	0.05436
524.59368	0.05429
522.66503	0.05412
520.73637	0.05386
518.80772	0.05376
516.87907	0.05378
514.95042	0.05365
513.02176	0.05332
511.09311	0.05294
509.16446	0.05266
507.23580	0.05243
505.30715	0.05213
503.37850	0.05175
501.44984	0.05139
499.52119	0.05101
497.59254	0.05062
495.66388	0.05025
493.73523	0.04988
491.80658	0.04949
489.87792	0.04909
487.94927	0.04868
486.02062	0.04826
484.09196	0.04790
482.16331	0.04765
480.23466	0.04745
478.30600	0.04717
476.37735	0.04679
474.44870	0.04654
472.52004	0.04644
470.59139	0.04622
468.66274	0.04581
466.73408	0.04546
464.80543	0.04525
462.87678	0.04503
460.94812	0.04469
459.01947	0.04427
457.09082	0.04390
455.16216	0.04364
453.23351	0.04339
451.30486	0.04301
449.37620	0.04251
447.44755	0.04203
445.51890	0.04165
443.59025	0.04134
441.66159	0.04106
439.73294	0.04077
437.80429	0.04049
435.87563	0.04032
433.94698	0.04021
432.01833	0.04000
430.08967	0.03969
428.16102	0.03939
426.23237	0.03913
424.30371	0.03880
422.37506	0.03849
420.44641	0.03828
418.51775	0.03815
416.58910	0.03795
414.66045	0.03761
412.73179	0.03724
410.80314	0.03693
408.87449	0.03673
406.94583	0.03656
405.01718	0.03646
403.08853	0.03642
401.15987	0.03628
399.23122	0.03598
