3997.45528	0.07426
3996.16951	0.07366
3994.88374	0.07295
3993.59798	0.07228
3992.31221	0.07192
3991.02644	0.07193
3989.74067	0.07212
3988.45490	0.07222
3987.16913	0.07200
3985.88336	0.07140
3984.59759	0.07061
3983.31183	0.07021
3982.02606	0.07062
3980.74029	0.07162
3979.45452	0.07245
3978.16875	0.07263
3976.88298	0.07241
3975.59721	0.07236
3974.31144	0.07256
3973.02567	0.07267
3971.73991	0.07245
3970.45414	0.07210
3969.16837	0.07196
3967.88260	0.07216
3966.59683	0.07256
3965.31106	0.07294
3964.02529	0.07315
3962.73952	0.07311
3961.45376	0.07275
3960.16799	0.07217
3958.88222	0.07166
3957.59645	0.07155
3956.31068	0.07183
3955.02491	0.07214
3953.73914	0.07207
3952.45337	0.07159
3951.16760	0.07110
3949.88184	0.07096
3948.59607	0.07111
3947.31030	0.07120
3946.02453	0.07113
3944.73876	0.07111
3943.45299	0.07122
3942.16722	0.07121
3940.88145	0.07089
3939.59569	0.07045
3938.30992	0.07014
3937.02415	0.06992
3935.73838	0.06960
3934.45261	0.06916
3933.16684	0.06876
3931.88107	0.06863
3930.59530	0.06885
3929.30953	0.06932
3928.02377	0.06977
3926.73800	0.07003
3925.45223	0.07014
3924.16646	0.07029
3922.88069	0.07063
3921.59492	0.07107
3920.30915	0.07126
3919.02338	0.07090
3917.73762	0.07000
3916.45185	0.06883
3915.16608	0.06789
3913.88031	0.06751
3912.59454	0.06766
3911.30877	0.06806
3910.02300	0.06849
3908.73723	0.06878
3907.45146	0.06877
3906.16570	0.06847
3904.87993	0.06810
3903.59416	0.06795
3902.30839	0.06817
3901.02262	0.06867
3899.73685	0.06909
3898.45108	0.06912
3897.16531	0.06877
3895.87955	0.06820
3894.59378	0.06756
3893.30801	0.06696
3892.02224	0.06644
3890.73647	0.06594
3889.45070	0.06566
3888.16493	0.06603
3886.87916	0.06689
3885.59339	0.06751
3884.30763	0.06766
3883.02186	0.06785
3881.73609	0.06837
3880.45032	0.06874
3879.16455	0.06849
3877.87878	0.06786
3876.59301	0.06735
3875.30724	0.06702
3874.02148	0.06667
3872.73571	0.06634
3871.44994	0.06634
3870.16417	0.06654
3868.87840	0.06672
3867.59263	0.06708
3866.30686	0.06762
3865.02109	0.06788
3863.73532	0.06772
3862.44956	0.06760
3861.16379	0.06760
3859.87802	0.06726
3858.59225	0.06630
3857.30648	0.06533
3856.02071	0.06516
3854.73494	0.06571
3853.44917	0.06598
3852.16341	0.06550
3850.87764	0.06486
3849.59187	0.06460
3848.30610	0.06469
3847.02033	0.06492
3845.73456	0.06507
3844.44879	0.06499
3843.16302	0.06467
3841.87725	0.06434
3840.59149	0.06436
3839.30572	0.06471
3838.01995	0.06474
3836.73418	0.06405
3835.44841	0.06310
3834.16264	0.06270
3832.87687	0.06303
3831.59110	0.06368
3830.30534	0.06413
3829.01957	0.06415
3827.73380	0.06377
3826.44803	0.06316
3825.16226	0.06279
3823.87649	0.06332
3822.59072	0.06463
3821.30495	0.06555
3820.01918	0.06518
3818.73342	0.06406
3817.44765	0.06321
3816.16188	0.06273
3814.87611	0.06224
3813.59034	0.06200
3812.30457	0.06227
3811.01880	0.06274
3809.73303	0.06310
3808.44726	0.06323
3807.16150	0.06283
3805.87573	0.06184
3804.58996	0.06105
3803.30419	0.06117
3802.01842	0.06177
3800.73265	0.06199
3799.44688	0.06196
3798.16111	0.06237
3796.87535	0.06299
3795.58958	0.06316
3794.30381	0.06287
3793.01804	0.06263
3791.73227	0.06266
3790.44650	0.06273
3789.16073	0.06252
3787.87496	0.06200
3786.58919	0.06145
3785.30343	0.06120
3784.01766	0.06130
3782.73189	0.06162
3781.44612	0.06199
3780.16035	0.06218
3778.87458	0.06203
3777.58881	0.06172
3776.30304	0.06156
3775.01728	0.06163
3773.73151	0.06173
3772.44574	0.06178
3771.15997	0.06183
3769.87420	0.06185
3768.58843	0.06192
3767.30266	0.06211
3766.01689	0.06227
3764.73112	0.06205
3763.44536	0.06147
3762.15959	0.06088
3760.87382	0.06055
3759.58805	0.06043
3758.30228	0.06043
3757.01651	0.06043
3755.73074	0.06044
3754.44497	0.06068
3753.15921	0.06100
3751.87344	0.06088
3750.58767	0.06019
3749.30190	0.05934
3748.01613	0.05908
3746.73036	0.06017
3745.44459	0.06214
3744.15882	0.06329
3742.87305	0.06299
3741.58729	0.06229
3740.30152	0.06188
3739.01575	0.06151
3737.72998	0.06095
3736.44421	0.06017
3735.15844	0.05933
3733.87267	0.05883
3732.58690	0.05886
3731.30114	0.05912
3730.01537	0.05932
3728.72960	0.05954
3727.44383	0.05969
3726.15806	0.05958
3724.87229	0.05932
3723.58652	0.05918
3722.30075	0.05918
3721.01498	0.05921
3719.72922	0.05925
3718.44345	0.05931
3717.15768	0.05919
3715.87191	0.05871
3714.58614	0.05794
3713.30037	0.05707
3712.01460	0.05639
3710.72883	0.05618
3709.44307	0.05661
3708.15730	0.05732
3706.87153	0.05771
3705.58576	0.05773
3704.29999	0.05771
3703.01422	0.05792
3701.72845	0.05812
3700.44268	0.05803
3699.15691	0.05767
3697.87115	0.05750
3696.58538	0.05782
3695.29961	0.05844
3694.01384	0.05894
3692.72807	0.05880
3691.44230	0.05802
3690.15653	0.05716
3688.87076	0.05663
3687.58500	0.05646
3686.29923	0.05663
3685.01346	0.05722
3683.72769	0.05806
3682.44192	0.05889
3681.15615	0.05953
3679.87038	0.05987
3678.58461	0.05999
3677.29884	0.06010
3676.01308	0.06003
3674.72731	0.05961
3673.44154	0.05942
3672.15577	0.06018
3670.87000	0.06137
3669.58423	0.06201
3668.29846	0.06203
3667.01269	0.06198
3665.72693	0.06209
3664.44116	0.06237
3663.15539	0.06285
3661.86962	0.06347
3660.58385	0.06400
3659.29808	0.06431
3658.01231	0.06451
3656.72654	0.06462
3655.44077	0.06459
3654.15501	0.06470
3652.86924	0.06544
3651.58347	0.06679
3650.29770	0.06814
3649.01193	0.06896
3647.72616	0.06925
3646.44039	0.06938
3645.15462	0.06972
3643.86886	0.07036
3642.58309	0.07116
3641.29732	0.07189
3640.01155	0.07246
3638.72578	0.07290
3637.44001	0.07334
3636.15424	0.07394
3634.86847	0.07465
3633.58270	0.07514
3632.29694	0.07531
3631.01117	0.07555
3629.72540	0.07621
3628.43963	0.07713
3627.15386	0.07812
3625.86809	0.07910
3624.58232	0.07993
3623.29655	0.08064
3622.01079	0.08160
3620.72502	0.08290
3619.43925	0.08403
3618.15348	0.08458
3616.86771	0.08474
3615.58194	0.08489
3614.29617	0.08523
3613.01040	0.08574
3611.72463	0.08647
3610.43887	0.08747
3609.15310	0.08864
3607.86733	0.08980
3606.58156	0.09103
3605.29579	0.09245
3604.01002	0.09380
3602.72425	0.09486
3601.43848	0.09568
3600.15272	0.09658
3598.86695	0.09768
3597.58118	0.09902
3596.29541	0.10051
3595.00964	0.10191
3593.72387	0.10284
3592.43810	0.10333
3591.15233	0.10388
3589.86656	0.10491
3588.58080	0.10629
3587.29503	0.10746
3586.00926	0.10808
3584.72349	0.10829
3583.43772	0.10852
3582.15195	0.10921
3580.86618	0.11048
3579.58041	0.11210
3578.29464	0.11379
3577.00888	0.11540
3575.72311	0.11696
3574.43734	0.11849
3573.15157	0.11987
3571.86580	0.12093
3570.58003	0.12165
3569.29426	0.12218
3568.00849	0.12269
3566.72273	0.12335
3565.43696	0.12433
3564.15119	0.12563
3562.86542	0.12705
3561.57965	0.12837
3560.29388	0.12954
3559.00811	0.13065
3557.72234	0.13176
3556.43657	0.13287
3555.15081	0.13401
3553.86504	0.13524
3552.57927	0.13658
3551.29350	0.13804
3550.00773	0.13958
3548.72196	0.14113
3547.43619	0.14256
3546.15042	0.14381
3544.86466	0.14488
3543.57889	0.14578
3542.29312	0.14644
3541.00735	0.14701
3539.72158	0.14783
3538.43581	0.14921
3537.15004	0.15105
3535.86427	0.15294
3534.57850	0.15453
3533.29274	0.15572
3532.00697	0.15663
3530.72120	0.15741
3529.43543	0.15822
3528.14966	0.15919
3526.86389	0.16036
3525.57812	0.16164
3524.29235	0.16292
3523.00659	0.16410
3521.72082	0.16511
3520.43505	0.16598
3519.14928	0.16684
3517.86351	0.16792
3516.57774	0.16931
3515.29197	0.17077
3514.00620	0.17189
3512.72043	0.17250
3511.43467	0.17285
3510.14890	0.17335
3508.86313	0.17418
3507.57736	0.17522
3506.29159	0.17633
3505.00582	0.17745
3503.72005	0.17862
3502.43428	0.17985
3501.14852	0.18116
3499.86275	0.18248
3498.57698	0.18368
3497.29121	0.18470
3496.00544	0.18564
3494.71967	0.18671
3493.43390	0.18799
3492.14813	0.18939
3490.86236	0.19070
3489.57660	0.19172
3488.29083	0.19238
3487.00506	0.19273
3485.71929	0.19305
3484.43352	0.19377
3483.14775	0.19506
3481.86198	0.19667
3480.57621	0.19804
3479.29045	0.19888
3478.00468	0.19938
3476.71891	0.19992
3475.43314	0.20065
3474.14737	0.20143
3472.86160	0.20214
3471.57583	0.20286
3470.29006	0.20379
3469.00429	0.20507
3467.71853	0.20661
3466.43276	0.20813
3465.14699	0.20937
3463.86122	0.21020
3462.57545	0.21065
3461.28968	0.21085
3460.00391	0.21102
3458.71814	0.21141
3457.43238	0.21213
3456.14661	0.21303
3454.86084	0.21378
3453.57507	0.21435
3452.28930	0.21506
3451.00353	0.21622
3449.71776	0.21777
3448.43199	0.21933
3447.14622	0.22057
3445.86046	0.22140
3444.57469	0.22200
3443.28892	0.22267
3442.00315	0.22365
3440.71738	0.22490
3439.43161	0.22619
3438.14584	0.22732
3436.86007	0.22831
3435.57431	0.22931
3434.28854	0.23036
3433.00277	0.23139
3431.71700	0.23231
3430.43123	0.23309
3429.14546	0.23370
3427.85969	0.23418
3426.57392	0.23472
3425.28815	0.23549
3424.00239	0.23646
3422.71662	0.23747
3421.43085	0.23835
3420.14508	0.23903
3418.85931	0.23949
3417.57354	0.23978
3416.28777	0.24016
3415.00200	0.24100
3413.71624	0.24247
3412.43047	0.24437
3411.14470	0.24633
3409.85893	0.24804
3408.57316	0.24932
3407.28739	0.25011
3406.00162	0.25060
3404.71585	0.25113
3403.43008	0.25193
3402.14432	0.25287
3400.85855	0.25364
3399.57278	0.25415
3398.28701	0.25456
3397.00124	0.25506
3395.71547	0.25577
3394.42970	0.25670
3393.14393	0.25776
3391.85817	0.25883
3390.57240	0.25980
3389.28663	0.26071
3388.00086	0.26167
3386.71509	0.26282
3385.42932	0.26419
3384.14355	0.26571
3382.85778	0.26719
3381.57201	0.26846
3380.28625	0.26953
3379.00048	0.27058
3377.71471	0.27181
3376.42894	0.27323
3375.14317	0.27479
3373.85740	0.27648
3372.57163	0.27826
3371.28586	0.28007
3370.00010	0.28188
3368.71433	0.28378
3367.42856	0.28585
3366.14279	0.28801
3364.85702	0.29009
3363.57125	0.29202
3362.28548	0.29385
3360.99971	0.29570
3359.71394	0.29763
3358.42818	0.29966
3357.14241	0.30176
3355.85664	0.30390
3354.57087	0.30615
3353.28510	0.30852
3351.99933	0.31091
3350.71356	0.31314
3349.42779	0.31513
3348.14202	0.31696
3346.85626	0.31884
3345.57049	0.32091
3344.28472	0.32320
3342.99895	0.32557
3341.71318	0.32783
3340.42741	0.32986
3339.14164	0.33165
3337.85587	0.33330
3336.57011	0.33501
3335.28434	0.33697
3333.99857	0.33913
3332.71280	0.34118
3331.42703	0.34270
3330.14126	0.34365
3328.85549	0.34443
3327.56972	0.34545
3326.28395	0.34676
3324.99819	0.34805
3323.71242	0.34907
3322.42665	0.34988
3321.14088	0.35067
3319.85511	0.35155
3318.56934	0.35247
3317.28357	0.35333
3315.99780	0.35405
3314.71204	0.35466
3313.42627	0.35526
3312.14050	0.35597
3310.85473	0.35682
3309.56896	0.35775
3308.28319	0.35861
3306.99742	0.35928
3305.71165	0.35966
3304.42588	0.35974
3303.14012	0.35965
3301.85435	0.35964
3300.56858	0.35985
3299.28281	0.36026
3297.99704	0.36070
3296.71127	0.36097
3295.42550	0.36101
3294.13973	0.36084
3292.85397	0.36055
3291.56820	0.36021
3290.28243	0.35981
3288.99666	0.35924
3287.71089	0.35847
3286.42512	0.35759
3285.13935	0.35679
3283.85358	0.35612
3282.56781	0.35545
3281.28205	0.35469
3279.99628	0.35384
3278.71051	0.35297
3277.42474	0.35219
3276.13897	0.35156
3274.85320	0.35099
3273.56743	0.35023
3272.28166	0.34910
3270.99590	0.34764
3269.71013	0.34609
3268.42436	0.34470
3267.13859	0.34345
3265.85282	0.34214
3264.56705	0.34067
3263.28128	0.33915
3261.99551	0.33771
3260.70974	0.33638
3259.42398	0.33507
3258.13821	0.33370
3256.85244	0.33228
3255.56667	0.33084
3254.28090	0.32938
3252.99513	0.32798
3251.70936	0.32673
3250.42359	0.32565
3249.13783	0.32466
3247.85206	0.32363
3246.56629	0.32249
3245.28052	0.32121
3243.99475	0.31979
3242.70898	0.31830
3241.42321	0.31686
3240.13744	0.31554
3238.85167	0.31438
3237.56591	0.31333
3236.28014	0.31233
3234.99437	0.31137
3233.70860	0.31045
3232.42283	0.30949
3231.13706	0.30833
3229.85129	0.30691
3228.56552	0.30536
3227.27976	0.30388
3225.99399	0.30254
3224.70822	0.30133
3223.42245	0.30029
3222.13668	0.29956
3220.85091	0.29914
3219.56514	0.29882
3218.27937	0.29829
3216.99360	0.29740
3215.70784	0.29626
3214.42207	0.29510
3213.13630	0.29416
3211.85053	0.29338
3210.56476	0.29249
3209.27899	0.29135
3207.99322	0.29018
3206.70745	0.28931
3205.42169	0.28882
3204.13592	0.28847
3202.85015	0.28792
3201.56438	0.28697
3200.27861	0.28560
3198.99284	0.28392
3197.70707	0.28212
3196.42130	0.28042
3195.13553	0.27897
3193.84977	0.27777
3192.56400	0.27667
3191.27823	0.27543
3189.99246	0.27386
3188.70669	0.27199
3187.42092	0.27007
3186.13515	0.26837
3184.84938	0.26701
3183.56362	0.26584
3182.27785	0.26467
3180.99208	0.26341
3179.70631	0.26208
3178.42054	0.26062
3177.13477	0.25894
3175.84900	0.25701
3174.56323	0.25500
3173.27746	0.25311
3171.99170	0.25154
3170.70593	0.25032
3169.42016	0.24931
3168.13439	0.24822
3166.84862	0.24682
3165.56285	0.24512
3164.27708	0.24338
3162.99131	0.24182
3161.70555	0.24050
3160.41978	0.23931
3159.13401	0.23805
3157.84824	0.23665
3156.56247	0.23512
3155.27670	0.23355
3153.99093	0.23200
3152.70516	0.23047
3151.41939	0.22895
3150.13363	0.22748
3148.84786	0.22605
3147.56209	0.22461
3146.27632	0.22311
3144.99055	0.22163
3143.70478	0.22031
3142.41901	0.21919
3141.13324	0.21813
3139.84748	0.21699
3138.56171	0.21579
3137.27594	0.21469
3135.99017	0.21377
3134.70440	0.21300
3133.41863	0.21225
3132.13286	0.21139
3130.84709	0.21045
3129.56132	0.20950
3128.27556	0.20863
3126.98979	0.20787
3125.70402	0.20722
3124.41825	0.20674
3123.13248	0.20647
3121.84671	0.20635
3120.56094	0.20622
3119.27517	0.20597
3117.98940	0.20562
3116.70364	0.20524
3115.41787	0.20488
3114.13210	0.20462
3112.84633	0.20462
3111.56056	0.20497
3110.27479	0.20555
3108.98902	0.20613
3107.70325	0.20662
3106.41749	0.20711
3105.13172	0.20772
3103.84595	0.20840
3102.56018	0.20902
3101.27441	0.20954
3099.98864	0.21002
3098.70287	0.21055
3097.41710	0.21109
3096.13133	0.21156
3094.84557	0.21195
3093.55980	0.21231
3092.27403	0.21268
3090.98826	0.21304
3089.70249	0.21338
3088.41672	0.21376
3087.13095	0.21424
3085.84518	0.21480
3084.55942	0.21535
3083.27365	0.21582
3081.98788	0.21626
3080.70211	0.21670
3079.41634	0.21706
3078.13057	0.21722
3076.84480	0.21716
3075.55903	0.21696
3074.27326	0.21674
3072.98750	0.21650
3071.70173	0.21626
3070.41596	0.21601
3069.13019	0.21580
3067.84442	0.21562
3066.55865	0.21541
3065.27288	0.21506
3063.98711	0.21451
3062.70135	0.21370
3061.41558	0.21261
3060.12981	0.21126
3058.84404	0.20975
3057.55827	0.20826
3056.27250	0.20692
3054.98673	0.20578
3053.70096	0.20487
3052.41519	0.20420
3051.12943	0.20363
3049.84366	0.20288
3048.55789	0.20176
3047.27212	0.20027
3045.98635	0.19863
3044.70058	0.19705
3043.41481	0.19566
3042.12904	0.19448
3040.84328	0.19344
3039.55751	0.19238
3038.27174	0.19118
3036.98597	0.18977
3035.70020	0.18825
3034.41443	0.18680
3033.12866	0.18555
3031.84289	0.18451
3030.55712	0.18356
3029.27136	0.18258
3027.98559	0.18157
3026.69982	0.18061
3025.41405	0.17973
3024.12828	0.17891
3022.84251	0.17808
3021.55674	0.17720
3020.27097	0.17624
3018.98521	0.17526
3017.69944	0.17438
3016.41367	0.17367
3015.12790	0.17314
3013.84213	0.17277
3012.55636	0.17249
3011.27059	0.17227
3009.98482	0.17204
3008.69905	0.17182
3007.41329	0.17170
3006.12752	0.17168
3004.84175	0.17165
3003.55598	0.17154
3002.27021	0.17137
3000.98444	0.17126
2999.69867	0.17131
2998.41290	0.17155
2997.12714	0.17197
2995.84137	0.17251
2994.55560	0.17315
2993.26983	0.17388
2991.98406	0.17464
2990.69829	0.17540
2989.41252	0.17615
2988.12675	0.17700
2986.84098	0.17801
2985.55522	0.17915
2984.26945	0.18037
2982.98368	0.18161
2981.69791	0.18282
2980.41214	0.18398
2979.12637	0.18510
2977.84060	0.18624
2976.55483	0.18734
2975.26907	0.18827
2973.98330	0.18896
2972.69753	0.18957
2971.41176	0.19042
2970.12599	0.19178
2968.84022	0.19357
2967.55445	0.19553
2966.26868	0.19746
2964.98291	0.19928
2963.69715	0.20096
2962.41138	0.20249
2961.12561	0.20386
2959.83984	0.20513
2958.55407	0.20628
2957.26830	0.20725
2955.98253	0.20796
2954.69676	0.20837
2953.41100	0.20847
2952.12523	0.20828
2950.83946	0.20789
2949.55369	0.20751
2948.26792	0.20743
2946.98215	0.20784
2945.69638	0.20875
2944.41061	0.21004
2943.12484	0.21161
2941.83908	0.21344
2940.55331	0.21560
2939.26754	0.21811
2937.98177	0.22093
2936.69600	0.22383
2935.41023	0.22656
2934.12446	0.22902
2932.83869	0.23130
2931.55293	0.23351
2930.26716	0.23570
2928.98139	0.23778
2927.69562	0.23969
2926.40985	0.24154
2925.12408	0.24354
2923.83831	0.24576
2922.55254	0.24802
2921.26677	0.25003
2919.98101	0.25148
2918.69524	0.25184
2917.40947	0.25043
2916.12370	0.24669
2914.83793	0.24074
2913.55216	0.23345
2912.26639	0.22601
2910.98062	0.21933
2909.69486	0.21369
2908.40909	0.20893
2907.12332	0.20472
2905.83755	0.20082
2904.55178	0.19726
2903.26601	0.19426
2901.98024	0.19194
2900.69447	0.19007
2899.40870	0.18824
2898.12294	0.18626
2896.83717	0.18431
2895.55140	0.18261
2894.26563	0.18119
2892.97986	0.17995
2891.69409	0.17886
2890.40832	0.17797
2889.12255	0.17727
2887.83678	0.17668
2886.55102	0.17618
2885.26525	0.17581
2883.97948	0.17556
2882.69371	0.17536
2881.40794	0.17512
2880.12217	0.17487
2878.83640	0.17473
2877.55063	0.17480
2876.26487	0.17507
2874.97910	0.17530
2873.69333	0.17520
2872.40756	0.17456
2871.12179	0.17346
2869.83602	0.17216
2868.55025	0.17089
2867.26448	0.16974
2865.97871	0.16878
2864.69295	0.16813
2863.40718	0.16803
2862.12141	0.16857
2860.83564	0.16969
2859.54987	0.17122
2858.26410	0.17300
2856.97833	0.17502
2855.69256	0.17726
2854.40680	0.17974
2853.12103	0.18244
2851.83526	0.18507
2850.54949	0.18672
2849.26372	0.18617
2847.97795	0.18262
2846.69218	0.17644
2845.40641	0.16907
2844.12064	0.16211
2842.83488	0.15646
2841.54911	0.15217
2840.26334	0.14893
2838.97757	0.14641
2837.69180	0.14437
2836.40603	0.14260
2835.12026	0.14097
2833.83449	0.13954
2832.54873	0.13835
2831.26296	0.13732
2829.97719	0.13631
2828.69142	0.13532
2827.40565	0.13442
2826.11988	0.13364
2824.83411	0.13288
2823.54834	0.13209
2822.26257	0.13130
2820.97681	0.13052
2819.69104	0.12975
2818.40527	0.12902
2817.11950	0.12834
2815.83373	0.12770
2814.54796	0.12707
2813.26219	0.12647
2811.97642	0.12591
2810.69066	0.12539
2809.40489	0.12488
2808.11912	0.12440
2806.83335	0.12398
2805.54758	0.12362
2804.26181	0.12329
2802.97604	0.12293
2801.69027	0.12253
2800.40450	0.12210
2799.11874	0.12166
2797.83297	0.12121
2796.54720	0.12072
2795.26143	0.12019
2793.97566	0.11970
2792.68989	0.11928
2791.40412	0.11893
2790.11835	0.11860
2788.83259	0.11824
2787.54682	0.11776
2786.26105	0.11719
2784.97528	0.11669
2783.68951	0.11637
2782.40374	0.11620
2781.11797	0.11600
2779.83220	0.11565
2778.54643	0.11518
2777.26067	0.11471
2775.97490	0.11435
2774.68913	0.11411
2773.40336	0.11384
2772.11759	0.11339
2770.83182	0.11278
2769.54605	0.11219
2768.26028	0.11176
2766.97452	0.11141
2765.68875	0.11103
2764.40298	0.11057
2763.11721	0.11013
2761.83144	0.10982
2760.54567	0.10965
2759.25990	0.10953
2757.97413	0.10932
2756.68836	0.10896
2755.40260	0.10849
2754.11683	0.10803
2752.83106	0.10760
2751.54529	0.10715
2750.25952	0.10660
2748.97375	0.10601
2747.68798	0.10547
2746.40221	0.10506
2745.11645	0.10478
2743.83068	0.10460
2742.54491	0.10448
2741.25914	0.10438
2739.97337	0.10419
2738.68760	0.10382
2737.40183	0.10328
2736.11606	0.10274
2734.83029	0.10234
2733.54453	0.10214
2732.25876	0.10204
2730.97299	0.10190
2729.68722	0.10167
2728.40145	0.10136
2727.11568	0.10103
2725.82991	0.10063
2724.54414	0.10012
2723.25838	0.09949
2721.97261	0.09889
2720.68684	0.09848
2719.40107	0.09827
2718.11530	0.09811
2716.82953	0.09787
2715.54376	0.09756
2714.25799	0.09730
2712.97222	0.09715
2711.68646	0.09707
2710.40069	0.09698
2709.11492	0.09685
2707.82915	0.09672
2706.54338	0.09662
2705.25761	0.09649
2703.97184	0.09625
2702.68607	0.09592
2701.40031	0.09556
2700.11454	0.09525
2698.82877	0.09501
2697.54300	0.09483
2696.25723	0.09467
2694.97146	0.09451
2693.68569	0.09438
2692.39992	0.09429
2691.11415	0.09426
2689.82839	0.09423
2688.54262	0.09417
2687.25685	0.09403
2685.97108	0.09383
2684.68531	0.09360
2683.39954	0.09337
2682.11377	0.09310
2680.82800	0.09281
2679.54224	0.09263
2678.25647	0.09267
2676.97070	0.09290
2675.68493	0.09315
2674.39916	0.09325
2673.11339	0.09315
2671.82762	0.09293
2670.54185	0.09276
2669.25608	0.09273
2667.97032	0.09276
2666.68455	0.09271
2665.39878	0.09255
2664.11301	0.09239
2662.82724	0.09234
2661.54147	0.09239
2660.25570	0.09241
2658.96993	0.09222
2657.68417	0.09180
2656.39840	0.09124
2655.11263	0.09075
2653.82686	0.09043
2652.54109	0.09025
2651.25532	0.09010
2649.96955	0.08988
2648.68378	0.08956
2647.39801	0.08919
2646.11225	0.08879
2644.82648	0.08840
2643.54071	0.08801
2642.25494	0.08760
2640.96917	0.08711
2639.68340	0.08654
2638.39763	0.08593
2637.11186	0.08537
2635.82609	0.08492
2634.54033	0.08460
2633.25456	0.08439
2631.96879	0.08423
2630.68302	0.08405
2629.39725	0.08384
2628.11148	0.08361
2626.82571	0.08335
2625.53994	0.08302
2624.25418	0.08258
2622.96841	0.08206
2621.68264	0.08161
2620.39687	0.08138
2619.11110	0.08136
2617.82533	0.08136
2616.53956	0.08119
2615.25379	0.08083
2613.96802	0.08037
2612.68226	0.07989
2611.39649	0.07938
2610.11072	0.07885
2608.82495	0.07833
2607.53918	0.07792
2606.25341	0.07766
2604.96764	0.07751
2603.68187	0.07736
2602.39611	0.07714
2601.11034	0.07681
2599.82457	0.07639
2598.53880	0.07595
2597.25303	0.07568
2595.96726	0.07570
2594.68149	0.07584
2593.39572	0.07579
2592.10995	0.07541
2590.82419	0.07487
2589.53842	0.07444
2588.25265	0.07416
2586.96688	0.07391
2585.68111	0.07364
2584.39534	0.07343
2583.10957	0.07330
2581.82380	0.07317
2580.53804	0.07298
2579.25227	0.07273
2577.96650	0.07246
2576.68073	0.07226
2575.39496	0.07223
2574.10919	0.07232
2572.82342	0.07235
2571.53765	0.07218
2570.25188	0.07188
2568.96612	0.07157
2567.68035	0.07127
2566.39458	0.07095
2565.10881	0.07072
2563.82304	0.07069
2562.53727	0.07088
2561.25150	0.07111
2559.96573	0.07109
2558.67997	0.07068
2557.39420	0.07004
2556.10843	0.06956
2554.82266	0.06939
2553.53689	0.06931
2552.25112	0.06900
2550.96535	0.06838
2549.67958	0.06765
2548.39381	0.06707
2547.10805	0.06678
2545.82228	0.06677
2544.53651	0.06687
2543.25074	0.06682
2541.96497	0.06651
2540.67920	0.06606
2539.39343	0.06567
2538.10766	0.06540
2536.82190	0.06516
2535.53613	0.06486
2534.25036	0.06452
2532.96459	0.06425
2531.67882	0.06411
2530.39305	0.06409
2529.10728	0.06419
2527.82151	0.06437
2526.53574	0.06455
2525.24998	0.06458
2523.96421	0.06434
2522.67844	0.06389
2521.39267	0.06341
2520.10690	0.06312
2518.82113	0.06309
2517.53536	0.06332
2516.24959	0.06365
2514.96383	0.06386
2513.67806	0.06374
2512.39229	0.06325
2511.10652	0.06260
2509.82075	0.06206
2508.53498	0.06175
2507.24921	0.06165
2505.96344	0.06166
2504.67767	0.06169
2503.39191	0.06166
2502.10614	0.06152
2500.82037	0.06129
2499.53460	0.06103
2498.24883	0.06077
2496.96306	0.06048
2495.67729	0.06014
2494.39152	0.05983
2493.10576	0.05960
2491.81999	0.05937
2490.53422	0.05911
2489.24845	0.05888
2487.96268	0.05874
2486.67691	0.05862
2485.39114	0.05845
2484.10537	0.05831
2482.81960	0.05841
2481.53384	0.05875
2480.24807	0.05912
2478.96230	0.05934
2477.67653	0.05942
2476.39076	0.05944
2475.10499	0.05933
2473.81922	0.05902
2472.53345	0.05868
2471.24769	0.05858
2469.96192	0.05868
2468.67615	0.05866
2467.39038	0.05828
2466.10461	0.05775
2464.81884	0.05746
2463.53307	0.05753
2462.24730	0.05766
2460.96153	0.05754
2459.67577	0.05719
2458.39000	0.05689
2457.10423	0.05685
2455.81846	0.05701
2454.53269	0.05715
2453.24692	0.05716
2451.96115	0.05705
2450.67538	0.05690
2449.38962	0.05674
2448.10385	0.05660
2446.81808	0.05642
2445.53231	0.05617
2444.24654	0.05583
2442.96077	0.05554
2441.67500	0.05543
2440.38923	0.05553
2439.10346	0.05572
2437.81770	0.05578
2436.53193	0.05561
2435.24616	0.05533
2433.96039	0.05516
2432.67462	0.05518
2431.38885	0.05531
2430.10308	0.05538
2428.81731	0.05536
2427.53155	0.05525
2426.24578	0.05507
2424.96001	0.05479
2423.67424	0.05447
2422.38847	0.05425
2421.10270	0.05420
2419.81693	0.05427
2418.53116	0.05432
2417.24539	0.05432
2415.95963	0.05436
2414.67386	0.05448
2413.38809	0.05460
2412.10232	0.05458
2410.81655	0.05431
2409.53078	0.05383
2408.24501	0.05329
2406.95924	0.05289
2405.67347	0.05278
2404.38771	0.05297
2403.10194	0.05334
2401.81617	0.05370
2400.53040	0.05392
2399.24463	0.05388
2397.95886	0.05370
2396.67309	0.05345
2395.38732	0.05323
2394.10156	0.05310
2392.81579	0.05307
2391.53002	0.05308
2390.24425	0.05309
2388.95848	0.05307
2387.67271	0.05305
2386.38694	0.05304
2385.10117	0.05309
2383.81540	0.05323
2382.52964	0.05340
2381.24387	0.05360
2379.95810	0.05359
2378.67233	0.05372
2377.38656	0.05376
2376.10079	0.05325
2374.81502	0.05241
2373.52925	0.05306
2372.24349	0.05386
2370.95772	0.05426
2369.67195	0.05479
2368.38618	0.05542
2367.10041	0.05590
2365.81464	0.05621
2364.52887	0.05652
2363.24310	0.05683
2361.95733	0.05688
2360.67157	0.05655
2359.38580	0.05619
2358.10003	0.05604
2356.81426	0.05602
2355.52849	0.05582
2354.24272	0.05482
2352.95695	0.05314
2351.67118	0.05297
2350.38542	0.05365
2349.09965	0.05411
2347.81388	0.05469
2346.52811	0.05524
2345.24234	0.05527
2343.95657	0.05457
2342.67080	0.05322
2341.38503	0.05392
2340.09926	0.05457
2338.81350	0.05453
2337.52773	0.05451
2336.24196	0.05484
2334.95619	0.05429
2333.67042	0.05334
2332.38465	0.05221
2331.09888	0.05356
2329.81311	0.05379
2328.52735	0.05397
2327.24158	0.05459
2325.95581	0.05473
2324.67004	0.05534
2323.38427	0.05510
2322.09850	0.05471
2320.81273	0.05458
2319.52696	0.05408
2318.24119	0.05332
2316.95543	0.05306
2315.66966	0.05261
2314.38389	0.05189
2313.09812	0.05145
2311.81235	0.05087
2310.52658	0.05021
2309.24081	0.04978
2307.95504	0.04963
2306.66928	0.04974
2305.38351	0.04988
2304.09774	0.04983
2302.81197	0.04956
2301.52620	0.04911
2300.24043	0.04862
2298.95466	0.04821
2297.66889	0.04804
2296.38312	0.04803
2295.09736	0.04789
2293.81159	0.04753
2292.52582	0.04709
2291.24005	0.04666
2289.95428	0.04631
2288.66851	0.04610
2287.38274	0.04605
2286.09697	0.04609
2284.81121	0.04597
2283.52544	0.04556
2282.23967	0.04496
2280.95390	0.04442
2279.66813	0.04408
2278.38236	0.04396
2277.09659	0.04396
2275.81082	0.04397
2274.52505	0.04375
2273.23929	0.04321
2271.95352	0.04249
2270.66775	0.04187
2269.38198	0.04146
2268.09621	0.04113
2266.81044	0.04077
2265.52467	0.04047
2264.23890	0.04041
2262.95314	0.04069
2261.66737	0.04116
2260.38160	0.04150
2259.09583	0.04145
2257.81006	0.04096
2256.52429	0.04022
2255.23852	0.03946
2253.95275	0.03876
2252.66698	0.03816
2251.38122	0.03774
2250.09545	0.03769
2248.80968	0.03807
2247.52391	0.03849
2246.23814	0.03887
2244.95237	0.03902
2243.66660	0.03887
2242.38083	0.03849
2241.09507	0.03802
2239.80930	0.03770
2238.52353	0.03777
2237.23776	0.03814
2235.95199	0.03833
2234.66622	0.03789
2233.38045	0.03698
2232.09468	0.03637
2230.80891	0.03657
2229.52315	0.03727
2228.23738	0.03773
2226.95161	0.03751
2225.66584	0.03676
2224.38007	0.03592
2223.09430	0.03525
2221.80853	0.03477
2220.52276	0.03438
2219.23700	0.03401
2217.95123	0.03357
2216.66546	0.03293
2215.37969	0.03208
2214.09392	0.03136
2212.80815	0.03124
2211.52238	0.03177
2210.23661	0.03248
2208.95084	0.03292
2207.66508	0.03307
2206.37931	0.03324
2205.09354	0.03363
2203.80777	0.03407
2202.52200	0.03412
2201.23623	0.03337
2199.95046	0.03189
2198.66469	0.03040
2197.37893	0.02965
2196.09316	0.02979
2194.80739	0.03041
2193.52162	0.03102
2192.23585	0.03145
2190.95008	0.03167
2189.66431	0.03176
2188.37854	0.03181
2187.09277	0.03185
2185.80701	0.03164
2184.52124	0.03099
2183.23547	0.03018
2181.94970	0.02989
2180.66393	0.03039
2179.37816	0.03108
2178.09239	0.03107
2176.80662	0.03011
2175.52085	0.02878
2174.23509	0.02786
2172.94932	0.02764
2171.66355	0.02778
2170.37778	0.02761
2169.09201	0.02666
2167.80624	0.02503
2166.52047	0.02329
2165.23470	0.02200
2163.94894	0.02133
2162.66317	0.02120
2161.37740	0.02145
2160.09163	0.02186
2158.80586	0.02212
2157.52009	0.02207
2156.23432	0.02185
2154.94855	0.02181
2153.66278	0.02229
2152.37702	0.02325
2151.09125	0.02439
2149.80548	0.02557
2148.51971	0.02683
2147.23394	0.02802
2145.94817	0.02871
2144.66240	0.02865
2143.37663	0.02808
2142.09087	0.02745
2140.80510	0.02696
2139.51933	0.02658
2138.23356	0.02629
2136.94779	0.02624
2135.66202	0.02660
2134.37625	0.02739
2133.09048	0.02843
2131.80471	0.02948
2130.51895	0.03041
2129.23318	0.03117
2127.94741	0.03177
2126.66164	0.03229
2125.37587	0.03277
2124.09010	0.03308
2122.80433	0.03315
2121.51856	0.03321
2120.23280	0.03363
2118.94703	0.03445
2117.66126	0.03523
2116.37549	0.03553
2115.08972	0.03537
2113.80395	0.03510
2112.51818	0.03496
2111.23241	0.03492
2109.94664	0.03478
2108.66088	0.03461
2107.37511	0.03466
2106.08934	0.03504
2104.80357	0.03547
2103.51780	0.03556
2102.23203	0.03517
2100.94626	0.03449
2099.66049	0.03355
2098.37473	0.03278
2097.08896	0.03220
2095.80319	0.03181
2094.51742	0.03173
2093.23165	0.03199
2091.94588	0.03247
2090.66011	0.03287
2089.37434	0.03296
2088.08857	0.03276
2086.80281	0.03245
2085.51704	0.03219
2084.23127	0.03195
2082.94550	0.03164
2081.65973	0.03131
2080.37396	0.03110
2079.08819	0.03108
2077.80242	0.03113
2076.51666	0.03113
2075.23089	0.03109
2073.94512	0.03102
2072.65935	0.03082
2071.37358	0.03035
2070.08781	0.02961
2068.80204	0.02884
2067.51627	0.02834
2066.23050	0.02821
2064.94474	0.02833
2063.65897	0.02844
2062.37320	0.02834
2061.08743	0.02799
2059.80166	0.02747
2058.51589	0.02693
2057.23012	0.02644
2055.94435	0.02599
2054.65859	0.02561
2053.37282	0.02540
2052.08705	0.02541
2050.80128	0.02541
2049.51551	0.02502
2048.22974	0.02407
2046.94397	0.02281
2045.65820	0.02183
2044.37243	0.02162
2043.08667	0.02225
2041.80090	0.02326
2040.51513	0.02392
2039.22936	0.02375
2037.94359	0.02288
2036.65782	0.02186
2035.37205	0.02121
2034.08628	0.02100
2032.80052	0.02089
2031.51475	0.02061
2030.22898	0.02030
2028.94321	0.02040
2027.65744	0.02106
2026.37167	0.02193
2025.08590	0.02252
2023.80013	0.02255
2022.51436	0.02202
2021.22860	0.02111
2019.94283	0.02026
2018.65706	0.01991
2017.37129	0.02010
2016.08552	0.02056
2014.79975	0.02113
2013.51398	0.02187
2012.22821	0.02261
2010.94245	0.02287
2009.65668	0.02230
2008.37091	0.02110
2007.08514	0.01986
2005.79937	0.01921
2004.51360	0.01953
2003.22783	0.02071
2001.94206	0.02217
2000.65629	0.02326
1999.37053	0.02375
1998.08476	0.02390
1996.79899	0.02402
1995.51322	0.02420
1994.22745	0.02434
1992.94168	0.02435
1991.65591	0.02422
1990.37014	0.02412
1989.08438	0.02422
1987.79861	0.02449
1986.51284	0.02465
1985.22707	0.02446
1983.94130	0.02392
1982.65553	0.02320
1981.36976	0.02239
1980.08399	0.02154
1978.79822	0.02076
1977.51246	0.02012
1976.22669	0.01967
1974.94092	0.01948
1973.65515	0.01969
1972.36938	0.02041
1971.08361	0.02149
1969.79784	0.02260
1968.51207	0.02337
1967.22631	0.02350
1965.94054	0.02299
1964.65477	0.02219
1963.36900	0.02158
1962.08323	0.02146
1960.79746	0.02178
1959.51169	0.02229
1958.22592	0.02280
1956.94015	0.02324
1955.65439	0.02359
1954.36862	0.02380
1953.08285	0.02385
1951.79708	0.02387
1950.51131	0.02398
1949.22554	0.02413
1947.93977	0.02421
1946.65400	0.02424
1945.36823	0.02440
1944.08247	0.02470
1942.79670	0.02494
1941.51093	0.02493
1940.22516	0.02476
1938.93939	0.02466
1937.65362	0.02476
1936.36785	0.02503
1935.08208	0.02541
1933.79632	0.02585
1932.51055	0.02621
1931.22478	0.02632
1929.93901	0.02615
1928.65324	0.02584
1927.36747	0.02567
1926.08170	0.02581
1924.79593	0.02621
1923.51016	0.02670
1922.22440	0.02713
1920.93863	0.02746
1919.65286	0.02766
1918.36709	0.02767
1917.08132	0.02752
1915.79555	0.02740
1914.50978	0.02743
1913.22401	0.02752
1911.93825	0.02754
1910.65248	0.02747
1909.36671	0.02739
1908.08094	0.02736
1906.79517	0.02744
1905.50940	0.02762
1904.22363	0.02780
1902.93786	0.02785
1901.65209	0.02772
1900.36633	0.02749
1899.08056	0.02737
1897.79479	0.02745
1896.50902	0.02768
1895.22325	0.02785
1893.93748	0.02783
1892.65171	0.02769
1891.36594	0.02757
1890.08018	0.02755
1888.79441	0.02757
1887.50864	0.02757
1886.22287	0.02756
1884.93710	0.02760
1883.65133	0.02771
1882.36556	0.02780
1881.07979	0.02773
1879.79402	0.02747
1878.50826	0.02722
1877.22249	0.02715
1875.93672	0.02728
1874.65095	0.02747
1873.36518	0.02759
1872.07941	0.02763
1870.79364	0.02765
1869.50787	0.02762
1868.22211	0.02754
1866.93634	0.02742
1865.65057	0.02726
1864.36480	0.02707
1863.07903	0.02688
1861.79326	0.02681
1860.50749	0.02691
1859.22172	0.02708
1857.93595	0.02717
1856.65019	0.02712
1855.36442	0.02701
1854.07865	0.02692
1852.79288	0.02691
1851.50711	0.02695
1850.22134	0.02703
1848.93557	0.02709
1847.64980	0.02710
1846.36404	0.02714
1845.07827	0.02727
1843.79250	0.02739
1842.50673	0.02741
1841.22096	0.02743
1839.93519	0.02749
1838.64942	0.02754
1837.36365	0.02749
1836.07788	0.02738
1834.79212	0.02731
1833.50635	0.02738
1832.22058	0.02760
1830.93481	0.02784
1829.64904	0.02794
1828.36327	0.02789
1827.07750	0.02786
1825.79173	0.02785
1824.50597	0.02775
1823.22020	0.02750
1821.93443	0.02724
1820.64866	0.02707
1819.36289	0.02705
1818.07712	0.02711
1816.79135	0.02721
1815.50558	0.02732
1814.21981	0.02744
1812.93405	0.02755
1811.64828	0.02760
1810.36251	0.02759
1809.07674	0.02758
1807.79097	0.02762
1806.50520	0.02771
1805.21943	0.02779
1803.93366	0.02788
1802.64790	0.02798
1801.36213	0.02807
1800.07636	0.02809
1798.79059	0.02803
1797.50482	0.02794
1796.21905	0.02787
1794.93328	0.02789
1793.64751	0.02801
1792.36174	0.02811
1791.07598	0.02809
1789.79021	0.02800
1788.50444	0.02794
1787.21867	0.02795
1785.93290	0.02798
1784.64713	0.02798
1783.36136	0.02793
1782.07559	0.02793
1780.78983	0.02798
1779.50406	0.02804
1778.21829	0.02807
1776.93252	0.02812
1775.64675	0.02825
1774.36098	0.02854
1773.07521	0.02885
1771.78944	0.02897
1770.50367	0.02896
1769.21791	0.02905
1767.93214	0.02928
1766.64637	0.02950
1765.36060	0.02971
1764.07483	0.02998
1762.78906	0.03024
1761.50329	0.03042
1760.21752	0.03058
1758.93176	0.03090
1757.64599	0.03143
1756.36022	0.03201
1755.07445	0.03261
1753.78868	0.03339
1752.50291	0.03436
1751.21714	0.03532
1749.93137	0.03614
1748.64560	0.03694
1747.35984	0.03785
1746.07407	0.03886
1744.78830	0.03987
1743.50253	0.04087
1742.21676	0.04193
1740.93099	0.04310
1739.64522	0.04431
1738.35945	0.04542
1737.07369	0.04658
1735.78792	0.04797
1734.50215	0.04937
1733.21638	0.05052
1731.93061	0.05149
1730.64484	0.05260
1729.35907	0.05388
1728.07330	0.05521
1726.78753	0.05666
1725.50177	0.05833
1724.21600	0.06014
1722.93023	0.06191
1721.64446	0.06360
1720.35869	0.06547
1719.07292	0.06773
1717.78715	0.07027
1716.50138	0.07286
1715.21561	0.07551
1713.92985	0.07829
1712.64408	0.08118
1711.35831	0.08413
1710.07254	0.08713
1708.78677	0.09024
1707.50100	0.09354
1706.21523	0.09697
1704.92946	0.10040
1703.64370	0.10397
1702.35793	0.10804
1701.07216	0.11256
1699.78639	0.11710
1698.50062	0.12167
1697.21485	0.12671
1695.92908	0.13211
1694.64331	0.13735
1693.35754	0.14247
1692.07178	0.14784
1690.78601	0.15348
1689.50024	0.15921
1688.21447	0.16507
1686.92870	0.17143
1685.64293	0.17841
1684.35716	0.18561
1683.07139	0.19273
1681.78563	0.20007
1680.49986	0.20795
1679.21409	0.21636
1677.92832	0.22526
1676.64255	0.23467
1675.35678	0.24443
1674.07101	0.25437
1672.78524	0.26460
1671.49947	0.27531
1670.21371	0.28640
1668.92794	0.29753
1667.64217	0.30845
1666.35640	0.31919
1665.07063	0.32986
1663.78486	0.34040
1662.49909	0.35060
1661.21332	0.36028
1659.92756	0.36933
1658.64179	0.37760
1657.35602	0.38503
1656.07025	0.39199
1654.78448	0.39890
1653.49871	0.40550
1652.21294	0.41108
1650.92717	0.41556
1649.64140	0.41959
1648.35564	0.42365
1647.06987	0.42759
1645.78410	0.43110
1644.49833	0.43418
1643.21256	0.43704
1641.92679	0.43984
1640.64102	0.44254
1639.35525	0.44514
1638.06949	0.44773
1636.78372	0.45025
1635.49795	0.45231
1634.21218	0.45358
1632.92641	0.45408
1631.64064	0.45386
1630.35487	0.45265
1629.06910	0.45007
1627.78333	0.44586
1626.49757	0.44003
1625.21180	0.43282
1623.92603	0.42437
1622.64026	0.41468
1621.35449	0.40388
1620.06872	0.39234
1618.78295	0.38046
1617.49718	0.36836
1616.21142	0.35600
1614.92565	0.34353
1613.63988	0.33120
1612.35411	0.31906
1611.06834	0.30700
1609.78257	0.29505
1608.49680	0.28346
1607.21103	0.27241
1605.92526	0.26196
1604.63950	0.25208
1603.35373	0.24274
1602.06796	0.23395
1600.78219	0.22578
1599.49642	0.21825
1598.21065	0.21140
1596.92488	0.20522
1595.63911	0.19967
1594.35335	0.19470
1593.06758	0.19028
1591.78181	0.18643
1590.49604	0.18322
1589.21027	0.18065
1587.92450	0.17871
1586.63873	0.17735
1585.35296	0.17659
1584.06719	0.17641
1582.78143	0.17678
1581.49566	0.17763
1580.20989	0.17896
1578.92412	0.18097
1577.63835	0.18385
1576.35258	0.18739
1575.06681	0.19129
1573.78104	0.19556
1572.49528	0.20045
1571.20951	0.20600
1569.92374	0.21198
1568.63797	0.21823
1567.35220	0.22474
1566.06643	0.23153
1564.78066	0.23840
1563.49489	0.24519
1562.20912	0.25208
1560.92336	0.25932
1559.63759	0.26666
1558.35182	0.27354
1557.06605	0.27979
1555.78028	0.28569
1554.49451	0.29134
1553.20874	0.29656
1551.92297	0.30130
1550.63721	0.30557
1549.35144	0.30926
1548.06567	0.31227
1546.77990	0.31466
1545.49413	0.31646
1544.20836	0.31773
1542.92259	0.31858
1541.63682	0.31918
1540.35105	0.31947
1539.06529	0.31915
1537.77952	0.31813
1536.49375	0.31671
1535.20798	0.31514
1533.92221	0.31335
1532.63644	0.31117
1531.35067	0.30868
1530.06490	0.30603
1528.77914	0.30320
1527.49337	0.30007
1526.20760	0.29659
1524.92183	0.29286
1523.63606	0.28913
1522.35029	0.28551
1521.06452	0.28178
1519.77875	0.27780
1518.49298	0.27367
1517.20722	0.26934
1515.92145	0.26452
1514.63568	0.25912
1513.34991	0.25327
1512.06414	0.24702
1510.77837	0.24045
1509.49260	0.23376
1508.20683	0.22711
1506.92107	0.22041
1505.63530	0.21351
1504.34953	0.20657
1503.06376	0.19996
1501.77799	0.19375
1500.49222	0.18778
1499.20645	0.18194
1497.92068	0.17625
1496.63491	0.17066
1495.34915	0.16516
1494.06338	0.15991
1492.77761	0.15512
1491.49184	0.15083
1490.20607	0.14697
1488.92030	0.14355
1487.63453	0.14072
1486.34876	0.13854
1485.06299	0.13698
1483.77723	0.13602
1482.49146	0.13562
1481.20569	0.13576
1479.91992	0.13646
1478.63415	0.13780
1477.34838	0.13983
1476.06261	0.14261
1474.77684	0.14622
1473.49108	0.15052
1472.20531	0.15507
1470.91954	0.15947
1469.63377	0.16365
1468.34800	0.16776
1467.06223	0.17193
1465.77646	0.17616
1464.49069	0.18033
1463.20492	0.18429
1461.91916	0.18804
1460.63339	0.19171
1459.34762	0.19550
1458.06185	0.19943
1456.77608	0.20314
1455.49031	0.20622
1454.20454	0.20860
1452.91877	0.21033
1451.63301	0.21136
1450.34724	0.21168
1449.06147	0.21141
1447.77570	0.21062
1446.48993	0.20934
1445.20416	0.20768
1443.91839	0.20573
1442.63262	0.20353
1441.34685	0.20109
1440.06109	0.19842
1438.77532	0.19560
1437.48955	0.19259
1436.20378	0.18925
1434.91801	0.18565
1433.63224	0.18210
1432.34647	0.17882
1431.06070	0.17584
1429.77494	0.17313
1428.48917	0.17071
1427.20340	0.16867
1425.91763	0.16704
1424.63186	0.16578
1423.34609	0.16479
1422.06032	0.16410
1420.77455	0.16376
1419.48878	0.16365
1418.20302	0.16362
1416.91725	0.16371
1415.63148	0.16404
1414.34571	0.16458
1413.05994	0.16522
1411.77417	0.16582
1410.48840	0.16629
1409.20263	0.16658
1407.91687	0.16667
1406.63110	0.16657
1405.34533	0.16624
1404.05956	0.16562
1402.77379	0.16476
1401.48802	0.16374
1400.20225	0.16259
1398.91648	0.16127
1397.63071	0.15984
1396.34495	0.15849
1395.05918	0.15730
1393.77341	0.15627
1392.48764	0.15537
1391.20187	0.15465
1389.91610	0.15410
1388.63033	0.15365
1387.34456	0.15321
1386.05880	0.15272
1384.77303	0.15220
1383.48726	0.15172
1382.20149	0.15126
1380.91572	0.15081
1379.62995	0.15030
1378.34418	0.14965
1377.05841	0.14882
1375.77264	0.14782
1374.48688	0.14667
1373.20111	0.14535
1371.91534	0.14390
1370.62957	0.14235
1369.34380	0.14072
1368.05803	0.13898
1366.77226	0.13717
1365.48649	0.13538
1364.20073	0.13375
1362.91496	0.13236
1361.62919	0.13126
1360.34342	0.13050
1359.05765	0.13011
1357.77188	0.13006
1356.48611	0.13037
1355.20034	0.13107
1353.91457	0.13215
1352.62881	0.13357
1351.34304	0.13524
1350.05727	0.13711
1348.77150	0.13915
1347.48573	0.14131
1346.19996	0.14351
1344.91419	0.14567
1343.62842	0.14773
1342.34266	0.14965
1341.05689	0.15134
1339.77112	0.15265
1338.48535	0.15348
1337.19958	0.15384
1335.91381	0.15375
1334.62804	0.15324
1333.34227	0.15230
1332.05650	0.15094
1330.77074	0.14924
1329.48497	0.14734
1328.19920	0.14536
1326.91343	0.14343
1325.62766	0.14165
1324.34189	0.14009
1323.05612	0.13880
1321.77035	0.13781
1320.48459	0.13711
1319.19882	0.13665
1317.91305	0.13634
1316.62728	0.13610
1315.34151	0.13581
1314.05574	0.13543
1312.76997	0.13493
1311.48420	0.13434
1310.19843	0.13372
1308.91267	0.13313
1307.62690	0.13258
1306.34113	0.13208
1305.05536	0.13164
1303.76959	0.13131
1302.48382	0.13113
1301.19805	0.13109
1299.91228	0.13118
1298.62652	0.13135
1297.34075	0.13162
1296.05498	0.13202
1294.76921	0.13262
1293.48344	0.13344
1292.19767	0.13444
1290.91190	0.13557
1289.62613	0.13676
1288.34036	0.13797
1287.05460	0.13920
1285.76883	0.14043
1284.48306	0.14162
1283.19729	0.14268
1281.91152	0.14353
1280.62575	0.14413
1279.33998	0.14454
1278.05421	0.14484
1276.76845	0.14510
1275.48268	0.14534
1274.19691	0.14557
1272.91114	0.14583
1271.62537	0.14612
1270.33960	0.14645
1269.05383	0.14685
1267.76806	0.14736
1266.48229	0.14802
1265.19653	0.14886
1263.91076	0.14986
1262.62499	0.15100
1261.33922	0.15226
1260.05345	0.15362
1258.76768	0.15506
1257.48191	0.15659
1256.19614	0.15823
1254.91037	0.16007
1253.62461	0.16213
1252.33884	0.16436
1251.05307	0.16669
1249.76730	0.16908
1248.48153	0.17149
1247.19576	0.17392
1245.90999	0.17633
1244.62422	0.17870
1243.33846	0.18095
1242.05269	0.18302
1240.76692	0.18480
1239.48115	0.18620
1238.19538	0.18715
1236.90961	0.18766
1235.62384	0.18776
1234.33807	0.18748
1233.05230	0.18680
1231.76654	0.18573
1230.48077	0.18421
1229.19500	0.18222
1227.90923	0.17973
1226.62346	0.17676
1225.33769	0.17343
1224.05192	0.16990
1222.76615	0.16631
1221.48039	0.16283
1220.19462	0.15957
1218.90885	0.15662
1217.62308	0.15407
1216.33731	0.15201
1215.05154	0.15051
1213.76577	0.14957
1212.48000	0.14917
1211.19423	0.14921
1209.90847	0.14959
1208.62270	0.15016
1207.33693	0.15075
1206.05116	0.15120
1204.76539	0.15137
1203.47962	0.15115
1202.19385	0.15045
1200.90808	0.14923
1199.62232	0.14755
1198.33655	0.14545
1197.05078	0.14312
1195.76501	0.14071
1194.47924	0.13833
1193.19347	0.13601
1191.90770	0.13379
1190.62193	0.13173
1189.33616	0.12986
1188.05040	0.12816
1186.76463	0.12659
1185.47886	0.12506
1184.19309	0.12358
1182.90732	0.12222
1181.62155	0.12111
1180.33578	0.12031
1179.05001	0.11978
1177.76425	0.11937
1176.47848	0.11898
1175.19271	0.11862
1173.90694	0.11833
1172.62117	0.11814
1171.33540	0.11805
1170.04963	0.11802
1168.76386	0.11799
1167.47809	0.11795
1166.19233	0.11792
1164.90656	0.11793
1163.62079	0.11794
1162.33502	0.11784
1161.04925	0.11754
1159.76348	0.11697
1158.47771	0.11611
1157.19194	0.11493
1155.90618	0.11350
1154.62041	0.11191
1153.33464	0.11029
1152.04887	0.10870
1150.76310	0.10715
1149.47733	0.10564
1148.19156	0.10419
1146.90579	0.10285
1145.62002	0.10168
1144.33426	0.10066
1143.04849	0.09971
1141.76272	0.09880
1140.47695	0.09791
1139.19118	0.09706
1137.90541	0.09629
1136.61964	0.09566
1135.33387	0.09519
1134.04811	0.09488
1132.76234	0.09469
1131.47657	0.09457
1130.19080	0.09450
1128.90503	0.09445
1127.61926	0.09438
1126.33349	0.09430
1125.04772	0.09423
1123.76195	0.09421
1122.47619	0.09425
1121.19042	0.09436
1119.90465	0.09452
1118.61888	0.09470
1117.33311	0.09487
1116.04734	0.09502
1114.76157	0.09521
1113.47580	0.09553
1112.19004	0.09600
1110.90427	0.09654
1109.61850	0.09706
1108.33273	0.09757
1107.04696	0.09808
1105.76119	0.09864
1104.47542	0.09927
1103.18965	0.09996
1101.90388	0.10070
1100.61812	0.10145
1099.33235	0.10220
1098.04658	0.10295
1096.76081	0.10373
1095.47504	0.10458
1094.18927	0.10556
1092.90350	0.10671
1091.61773	0.10806
1090.33197	0.10960
1089.04620	0.11132
1087.76043	0.11320
1086.47466	0.11515
1085.18889	0.11705
1083.90312	0.11871
1082.61735	0.11990
1081.33158	0.12051
1080.04581	0.12054
1078.76005	0.12012
1077.47428	0.11936
1076.18851	0.11837
1074.90274	0.11727
1073.61697	0.11619
1072.33120	0.11526
1071.04543	0.11451
1069.75966	0.11396
1068.47390	0.11362
1067.18813	0.11345
1065.90236	0.11338
1064.61659	0.11328
1063.33082	0.11307
1062.04505	0.11269
1060.75928	0.11215
1059.47351	0.11150
1058.18774	0.11081
1056.90198	0.11011
1055.61621	0.10939
1054.33044	0.10871
1053.04467	0.10809
1051.75890	0.10754
1050.47313	0.10702
1049.18736	0.10653
1047.90159	0.10616
1046.61583	0.10594
1045.33006	0.10582
1044.04429	0.10573
1042.75852	0.10565
1041.47275	0.10570
1040.18698	0.10599
1038.90121	0.10657
1037.61544	0.10738
1036.32967	0.10829
1035.04391	0.10917
1033.75814	0.10991
1032.47237	0.11045
1031.18660	0.11066
1029.90083	0.11037
1028.61506	0.10952
1027.32929	0.10819
1026.04352	0.10656
1024.75775	0.10484
1023.47199	0.10318
1022.18622	0.10166
1020.90045	0.10029
1019.61468	0.09903
1018.32891	0.09786
1017.04314	0.09681
1015.75737	0.09589
1014.47160	0.09505
1013.18584	0.09417
1011.90007	0.09318
1010.61430	0.09204
1009.32853	0.09077
1008.04276	0.08946
1006.75699	0.08818
1005.47122	0.08694
1004.18545	0.08569
1002.89968	0.08445
1001.61392	0.08327
1000.32815	0.08221
999.04238	0.08126
997.75661	0.08035
996.47084	0.07945
995.18507	0.07855
993.89930	0.07765
992.61353	0.07674
991.32777	0.07584
990.04200	0.07499
988.75623	0.07426
987.47046	0.07370
986.18469	0.07330
984.89892	0.07300
983.61315	0.07276
982.32738	0.07262
981.04161	0.07266
979.75585	0.07289
978.47008	0.07326
977.18431	0.07364
975.89854	0.07392
974.61277	0.07405
973.32700	0.07402
972.04123	0.07386
970.75546	0.07357
969.46970	0.07317
968.18393	0.07269
966.89816	0.07220
965.61239	0.07177
964.32662	0.07141
963.04085	0.07109
961.75508	0.07081
960.46931	0.07058
959.18354	0.07039
957.89778	0.07024
956.61201	0.07012
955.32624	0.07004
954.04047	0.06997
952.75470	0.06986
951.46893	0.06971
950.18316	0.06962
948.89739	0.06966
947.61163	0.06985
946.32586	0.07009
945.04009	0.07027
943.75432	0.07042
942.46855	0.07056
941.18278	0.07070
939.89701	0.07079
938.61124	0.07079
937.32547	0.07068
936.03971	0.07045
934.75394	0.07013
933.46817	0.06974
932.18240	0.06934
930.89663	0.06895
929.61086	0.06862
928.32509	0.06837
927.03932	0.06821
925.75356	0.06809
924.46779	0.06797
923.18202	0.06782
921.89625	0.06757
920.61048	0.06722
919.32471	0.06674
918.03894	0.06618
916.75317	0.06559
915.46740	0.06500
914.18164	0.06443
912.89587	0.06385
911.61010	0.06327
910.32433	0.06278
909.03856	0.06246
907.75279	0.06227
906.46702	0.06210
905.18125	0.06186
903.89549	0.06154
902.60972	0.06118
901.32395	0.06082
900.03818	0.06048
898.75241	0.06019
897.46664	0.05990
896.18087	0.05955
894.89510	0.05913
893.60933	0.05876
892.32357	0.05855
891.03780	0.05853
889.75203	0.05865
888.46626	0.05885
887.18049	0.05904
885.89472	0.05917
884.60895	0.05926
883.32318	0.05935
882.03742	0.05945
880.75165	0.05958
879.46588	0.05977
878.18011	0.06006
876.89434	0.06043
875.60857	0.06076
874.32280	0.06090
873.03703	0.06085
871.75126	0.06071
870.46550	0.06056
869.17973	0.06044
867.89396	0.06031
866.60819	0.06010
865.32242	0.05980
864.03665	0.05947
862.75088	0.05920
861.46511	0.05905
860.17935	0.05902
858.89358	0.05903
857.60781	0.05903
856.32204	0.05901
855.03627	0.05900
853.75050	0.05904
852.46473	0.05909
851.17896	0.05910
849.89319	0.05899
848.60743	0.05872
847.32166	0.05828
846.03589	0.05775
844.75012	0.05724
843.46435	0.05688
842.17858	0.05667
840.89281	0.05654
839.60704	0.05643
838.32128	0.05630
837.03551	0.05619
835.74974	0.05610
834.46397	0.05604
833.17820	0.05598
831.89243	0.05595
830.60666	0.05594
829.32089	0.05599
828.03512	0.05613
826.74936	0.05639
825.46359	0.05674
824.17782	0.05711
822.89205	0.05743
821.60628	0.05770
820.32051	0.05802
819.03474	0.05847
817.74897	0.05900
816.46321	0.05950
815.17744	0.05982
813.89167	0.05998
812.60590	0.06010
811.32013	0.06030
810.03436	0.06055
808.74859	0.06079
807.46282	0.06104
806.17705	0.06134
804.89129	0.06172
803.60552	0.06210
802.31975	0.06241
801.03398	0.06264
799.74821	0.06284
798.46244	0.06305
797.17667	0.06330
795.89090	0.06358
794.60513	0.06385
793.31937	0.06410
792.03360	0.06435
790.74783	0.06464
789.46206	0.06495
788.17629	0.06527
786.89052	0.06560
785.60475	0.06600
784.31898	0.06644
783.03322	0.06682
781.74745	0.06710
780.46168	0.06733
779.17591	0.06761
777.89014	0.06794
776.60437	0.06825
775.31860	0.06852
774.03283	0.06876
772.74706	0.06901
771.46130	0.06929
770.17553	0.06961
768.88976	0.07000
767.60399	0.07044
766.31822	0.07088
765.03245	0.07124
763.74668	0.07154
762.46091	0.07180
761.17515	0.07208
759.88938	0.07238
758.60361	0.07272
757.31784	0.07312
756.03207	0.07361
754.74630	0.07417
753.46053	0.07475
752.17476	0.07532
750.88899	0.07586
749.60323	0.07640
748.31746	0.07692
747.03169	0.07740
745.74592	0.07782
744.46015	0.07822
743.17438	0.07864
741.88861	0.07908
740.60284	0.07947
739.31708	0.07982
738.03131	0.08020
736.74554	0.08074
735.45977	0.08142
734.17400	0.08215
732.88823	0.08284
731.60246	0.08352
730.31669	0.08430
729.03092	0.08517
727.74516	0.08601
726.45939	0.08675
725.17362	0.08745
723.88785	0.08817
722.60208	0.08902
721.31631	0.08980
720.03054	0.09031
718.74477	0.09055
717.45901	0.09065
716.17324	0.09075
714.88747	0.09091
713.60170	0.09114
712.31593	0.09148
711.03016	0.09191
709.74439	0.09240
708.45862	0.09293
707.17285	0.09350
705.88709	0.09411
704.60132	0.09470
703.31555	0.09522
702.02978	0.09566
700.74401	0.09605
699.45824	0.09642
698.17247	0.09678
696.88670	0.09709
695.60094	0.09734
694.31517	0.09749
693.02940	0.09761
691.74363	0.09775
690.45786	0.09795
689.17209	0.09831
687.88632	0.09870
686.60055	0.09908
685.31478	0.09942
684.02902	0.09973
682.74325	0.10011
681.45748	0.10045
680.17171	0.10075
678.88594	0.10104
677.60017	0.10132
676.31440	0.10168
675.02863	0.10200
673.74287	0.10226
672.45710	0.10248
671.17133	0.10268
669.88556	0.10294
668.59979	0.10327
667.31402	0.10356
666.02825	0.10383
664.74248	0.10408
663.45671	0.10431
662.17095	0.10452
660.88518	0.10475
659.59941	0.10501
658.31364	0.10534
657.02787	0.10565
655.74210	0.10586
654.45633	0.10600
653.17056	0.10611
651.88480	0.10625
650.59903	0.10645
649.31326	0.10665
648.02749	0.10674
646.74172	0.10676
645.45595	0.10679
644.17018	0.10689
642.88441	0.10704
641.59864	0.10721
640.31288	0.10730
639.02711	0.10730
637.74134	0.10729
636.45557	0.10737
635.16980	0.10754
633.88403	0.10770
632.59826	0.10776
631.31249	0.10764
630.02673	0.10724
628.74096	0.10668
627.45519	0.10654
626.16942	0.10580
624.88365	0.10447
623.59788	0.10313
622.31211	0.10279
621.02634	0.10432
619.74057	0.10727
618.45481	0.11023
617.16904	0.11216
615.88327	0.11273
614.59750	0.11187
613.31173	0.10975
612.02596	0.10716
610.74019	0.10534
609.45442	0.10517
608.16866	0.10639
606.88289	0.10774
605.59712	0.10816
604.31135	0.10765
603.02558	0.10705
601.73981	0.10707
600.45404	0.10767
599.16827	0.10835
597.88250	0.10879
596.59674	0.10901
595.31097	0.10913
594.02520	0.10920
592.73943	0.10915
591.45366	0.10900
590.16789	0.10885
588.88212	0.10878
587.59635	0.10873
586.31059	0.10865
585.02482	0.10856
583.73905	0.10858
582.45328	0.10871
581.16751	0.10886
579.88174	0.10897
578.59597	0.10907
577.31020	0.10924
576.02443	0.10947
574.73867	0.10972
573.45290	0.10993
572.16713	0.11013
570.88136	0.11036
569.59559	0.11065
568.30982	0.11093
567.02405	0.11112
565.73828	0.11122
564.45251	0.11133
563.16675	0.11153
561.88098	0.11179
560.59521	0.11203
559.30944	0.11214
558.02367	0.11209
556.73790	0.11194
555.45213	0.11183
554.16636	0.11182
552.88060	0.11189
551.59483	0.11198
550.30906	0.11204
549.02329	0.11198
547.73752	0.11176
546.45175	0.11138
545.16598	0.11093
543.88021	0.11054
542.59444	0.11029
541.30868	0.11015
540.02291	0.11004
538.73714	0.10998
537.45137	0.11001
536.16560	0.11020
534.87983	0.11050
533.59406	0.11083
532.30829	0.11104
531.02253	0.11107
529.73676	0.11094
528.45099	0.11071
527.16522	0.11041
525.87945	0.10998
524.59368	0.10939
523.30791	0.10869
522.02214	0.10802
520.73637	0.10747
519.45061	0.10707
518.16484	0.10671
516.87907	0.10630
515.59330	0.10589
514.30753	0.10554
513.02176	0.10525
511.73599	0.10494
510.45022	0.10449
509.16446	0.10388
507.87869	0.10315
506.59292	0.10240
505.30715	0.10175
504.02138	0.10123
502.73561	0.10074
501.44984	0.10015
500.16407	0.09947
498.87830	0.09882
497.59254	0.09831
496.30677	0.09788
495.02100	0.09742
493.73523	0.09685
492.44946	0.09622
491.16369	0.09567
489.87792	0.09530
488.59215	0.09512
487.30639	0.09502
486.02062	0.09489
484.73485	0.09469
483.44908	0.09448
482.16331	0.09431
480.87754	0.09416
479.59177	0.09400
478.30600	0.09377
477.02023	0.09352
475.73447	0.09328
474.44870	0.09306
473.16293	0.09283
471.87716	0.09252
470.59139	0.09212
469.30562	0.09170
468.01985	0.09130
466.73408	0.09090
465.44832	0.09045
464.16255	0.08988
462.87678	0.08917
461.59101	0.08836
460.30524	0.08754
459.01947	0.08681
457.73370	0.08617
456.44793	0.08559
455.16216	0.08500
453.87640	0.08435
452.59063	0.08360
451.30486	0.08281
450.01909	0.08205
448.73332	0.08138
447.44755	0.08082
446.16178	0.08033
444.87601	0.07991
443.59025	0.07952
442.30448	0.07914
441.01871	0.07874
439.73294	0.07830
438.44717	0.07783
437.16140	0.07734
435.87563	0.07684
434.58986	0.07639
433.30409	0.07603
432.01833	0.07575
430.73256	0.07550
429.44679	0.07521
428.16102	0.07483
426.87525	0.07437
425.58948	0.07388
424.30371	0.07340
423.01794	0.07296
421.73218	0.07256
420.44641	0.07218
419.16064	0.07181
417.87487	0.07143
416.58910	0.07104
415.30333	0.07064
414.01756	0.07019
412.73179	0.06974
411.44602	0.06931
410.16026	0.06890
408.87449	0.06848
407.58872	0.06804
406.30295	0.06761
405.01718	0.06724
403.73141	0.06695
402.44564	0.06674
401.15987	0.06658
399.87411	0.06644
