3996.16951	0.05157
3994.24086	0.05162
3992.31221	0.05222
3990.38355	0.05306
3988.45490	0.05352
3986.52625	0.05371
3984.59759	0.05407
3982.66894	0.05435
3980.74029	0.05426
3978.81163	0.05386
3976.88298	0.05307
3974.95433	0.05208
3973.02567	0.05141
3971.09702	0.05131
3969.16837	0.05169
3967.23972	0.05220
3965.31106	0.05230
3963.38241	0.05200
3961.45376	0.05201
3959.52510	0.05231
3957.59645	0.05214
3955.66780	0.05160
3953.73914	0.05155
3951.81049	0.05195
3949.88184	0.05202
3947.95318	0.05164
3946.02453	0.05138
3944.09588	0.05161
3942.16722	0.05222
3940.23857	0.05281
3938.30992	0.05285
3936.38126	0.05222
3934.45261	0.05138
3932.52396	0.05106
3930.59530	0.05154
3928.66665	0.05203
3926.73800	0.05154
3924.80934	0.05052
3922.88069	0.05021
3920.95204	0.05065
3919.02338	0.05102
3917.09473	0.05089
3915.16608	0.05071
3913.23742	0.05126
3911.30877	0.05212
3909.38012	0.05195
3907.45146	0.05069
3905.52281	0.04975
3903.59416	0.04995
3901.66550	0.05061
3899.73685	0.05068
3897.80820	0.05014
3895.87955	0.04966
3893.95089	0.04945
3892.02224	0.04947
3890.09359	0.04981
3888.16493	0.05028
3886.23628	0.05054
3884.30763	0.05048
3882.37897	0.05013
3880.45032	0.04968
3878.52167	0.04926
3876.59301	0.04912
3874.66436	0.04928
3872.73571	0.04936
3870.80705	0.04943
3868.87840	0.04979
3866.94975	0.05011
3865.02109	0.05003
3863.09244	0.04974
3861.16379	0.04943
3859.23513	0.04897
3857.30648	0.04863
3855.37783	0.04882
3853.44917	0.04925
3851.52052	0.04932
3849.59187	0.04899
3847.66321	0.04886
3845.73456	0.04914
3843.80591	0.04907
3841.87725	0.04836
3839.94860	0.04783
3838.01995	0.04799
3836.09129	0.04839
3834.16264	0.04841
3832.23399	0.04790
3830.30534	0.04746
3828.37668	0.04755
3826.44803	0.04759
3824.51938	0.04741
3822.59072	0.04756
3820.66207	0.04760
3818.73342	0.04714
3816.80476	0.04702
3814.87611	0.04769
3812.94746	0.04821
3811.01880	0.04765
3809.09015	0.04651
3807.16150	0.04602
3805.23284	0.04609
3803.30419	0.04586
3801.37554	0.04565
3799.44688	0.04595
3797.51823	0.04635
3795.58958	0.04662
3793.66092	0.04692
3791.73227	0.04719
3789.80362	0.04716
3787.87496	0.04671
3785.94631	0.04614
3784.01766	0.04588
3782.08900	0.04605
3780.16035	0.04632
3778.23170	0.04650
3776.30304	0.04665
3774.37439	0.04648
3772.44574	0.04581
3770.51708	0.04512
3768.58843	0.04476
3766.65978	0.04464
3764.73112	0.04468
3762.80247	0.04489
3760.87382	0.04481
3758.94517	0.04438
3757.01651	0.04438
3755.08786	0.04508
3753.15921	0.04580
3751.23055	0.04608
3749.30190	0.04590
3747.37325	0.04538
3745.44459	0.04494
3743.51594	0.04485
3741.58729	0.04466
3739.65863	0.04413
3737.72998	0.04412
3735.80133	0.04490
3733.87267	0.04485
3731.94402	0.04461
3730.01537	0.04389
3728.08671	0.04340
3726.15806	0.04376
3724.22941	0.04451
3722.30075	0.04477
3720.37210	0.04509
3718.44345	0.04468
3716.51479	0.04388
3714.58614	0.04361
3712.65749	0.04375
3710.72883	0.04362
3708.80018	0.04337
3706.87153	0.04399
3704.94287	0.04400
3703.01422	0.04294
3701.08557	0.04253
3699.15691	0.04216
3697.22826	0.04180
3695.29961	0.04189
3693.37095	0.04244
3691.44230	0.04311
3689.51365	0.04367
3687.58500	0.04381
3685.65634	0.04328
3683.72769	0.04239
3681.79904	0.04188
3679.87038	0.04201
3677.94173	0.04256
3676.01308	0.04311
3674.08442	0.04319
3672.15577	0.04307
3670.22712	0.04335
3668.29846	0.04346
3666.36981	0.04293
3664.44116	0.04266
3662.51250	0.04276
3660.58385	0.04269
3658.65520	0.04259
3656.72654	0.04276
3654.79789	0.04312
3652.86924	0.04353
3650.94058	0.04392
3649.01193	0.04438
3647.08328	0.04496
3645.15462	0.04554
3643.22597	0.04611
3641.29732	0.04644
3639.36866	0.04619
3637.44001	0.04598
3635.51136	0.04632
3633.58270	0.04607
3631.65405	0.04626
3629.72540	0.04686
3627.79674	0.04776
3625.86809	0.04851
3623.93944	0.04947
3622.01079	0.04913
3620.08213	0.04956
3618.15348	0.05063
3616.22483	0.05054
3614.29617	0.05053
3612.36752	0.05077
3610.43887	0.05089
3608.51021	0.05093
3606.58156	0.05141
3604.65291	0.05147
3602.72425	0.05147
3600.79560	0.05182
3598.86695	0.05241
3596.93829	0.05293
3595.00964	0.05322
3593.08099	0.05358
3591.15233	0.05405
3589.22368	0.05445
3587.29503	0.05484
3585.36637	0.05511
3583.43772	0.05543
3581.50907	0.05587
3579.58041	0.05641
3577.65176	0.05715
3575.72311	0.05818
3573.79445	0.05922
3571.86580	0.05993
3569.93715	0.06019
3568.00849	0.06032
3566.07984	0.06076
3564.15119	0.06147
3562.22253	0.06196
3560.29388	0.06223
3558.36523	0.06274
3556.43657	0.06353
3554.50792	0.06430
3552.57927	0.06495
3550.65062	0.06537
3548.72196	0.06553
3546.79331	0.06579
3544.86466	0.06646
3542.93600	0.06736
3541.00735	0.06814
3539.07870	0.06867
3537.15004	0.06913
3535.22139	0.06946
3533.29274	0.06965
3531.36408	0.07005
3529.43543	0.07065
3527.50678	0.07120
3525.57812	0.07176
3523.64947	0.07243
3521.72082	0.07300
3519.79216	0.07346
3517.86351	0.07399
3515.93486	0.07440
3514.00620	0.07463
3512.07755	0.07507
3510.14890	0.07578
3508.22024	0.07620
3506.29159	0.07621
3504.36294	0.07638
3502.43428	0.07689
3500.50563	0.07727
3498.57698	0.07740
3496.64832	0.07781
3494.71967	0.07850
3492.79102	0.07894
3490.86236	0.07917
3488.93371	0.07946
3487.00506	0.07984
3485.07641	0.08040
3483.14775	0.08105
3481.21910	0.08132
3479.29045	0.08100
3477.36179	0.08060
3475.43314	0.08090
3473.50449	0.08209
3471.57583	0.08327
3469.64718	0.08366
3467.71853	0.08365
3465.78987	0.08395
3463.86122	0.08466
3461.93257	0.08527
3460.00391	0.08542
3458.07526	0.08546
3456.14661	0.08597
3454.21795	0.08675
3452.28930	0.08721
3450.36065	0.08736
3448.43199	0.08768
3446.50334	0.08849
3444.57469	0.08933
3442.64603	0.08962
3440.71738	0.08971
3438.78873	0.09001
3436.86007	0.09021
3434.93142	0.09029
3433.00277	0.09084
3431.07411	0.09181
3429.14546	0.09256
3427.21681	0.09295
3425.28815	0.09323
3423.35950	0.09349
3421.43085	0.09384
3419.50219	0.09421
3417.57354	0.09446
3415.64489	0.09469
3413.71624	0.09495
3411.78758	0.09524
3409.85893	0.09589
3407.93028	0.09689
3406.00162	0.09769
3404.07297	0.09807
3402.14432	0.09815
3400.21566	0.09818
3398.28701	0.09855
3396.35836	0.09921
3394.42970	0.09968
3392.50105	0.09979
3390.57240	0.09992
3388.64374	0.10063
3386.71509	0.10176
3384.78644	0.10274
3382.85778	0.10345
3380.92913	0.10394
3379.00048	0.10420
3377.07182	0.10449
3375.14317	0.10507
3373.21452	0.10589
3371.28586	0.10672
3369.35721	0.10719
3367.42856	0.10739
3365.49990	0.10793
3363.57125	0.10911
3361.64260	0.11046
3359.71394	0.11137
3357.78529	0.11205
3355.85664	0.11290
3353.92798	0.11370
3351.99933	0.11446
3350.07068	0.11578
3348.14202	0.11769
3346.21337	0.11937
3344.28472	0.12025
3342.35607	0.12058
3340.42741	0.12084
3338.49876	0.12152
3336.57011	0.12263
3334.64145	0.12349
3332.71280	0.12407
3330.78415	0.12504
3328.85549	0.12615
3326.92684	0.12681
3324.99819	0.12722
3323.06953	0.12764
3321.14088	0.12820
3319.21223	0.12900
3317.28357	0.12975
3315.35492	0.13013
3313.42627	0.13023
3311.49761	0.13039
3309.56896	0.13085
3307.64031	0.13149
3305.71165	0.13198
3303.78300	0.13229
3301.85435	0.13256
3299.92569	0.13266
3297.99704	0.13250
3296.06839	0.13261
3294.13973	0.13304
3292.21108	0.13314
3290.28243	0.13291
3288.35377	0.13297
3286.42512	0.13333
3284.49647	0.13343
3282.56781	0.13316
3280.63916	0.13291
3278.71051	0.13280
3276.78186	0.13262
3274.85320	0.13222
3272.92455	0.13173
3270.99590	0.13143
3269.06724	0.13123
3267.13859	0.13083
3265.20994	0.13032
3263.28128	0.12989
3261.35263	0.12940
3259.42398	0.12864
3257.49532	0.12763
3255.56667	0.12675
3253.63802	0.12655
3251.70936	0.12682
3249.78071	0.12669
3247.85206	0.12583
3245.92340	0.12485
3243.99475	0.12428
3242.06610	0.12407
3240.13744	0.12391
3238.20879	0.12374
3236.28014	0.12359
3234.35148	0.12339
3232.42283	0.12308
3230.49418	0.12272
3228.56552	0.12245
3226.63687	0.12226
3224.70822	0.12195
3222.77956	0.12142
3220.85091	0.12086
3218.92226	0.12048
3216.99360	0.12020
3215.06495	0.11989
3213.13630	0.11970
3211.20764	0.11961
3209.27899	0.11933
3207.35034	0.11876
3205.42169	0.11833
3203.49303	0.11837
3201.56438	0.11843
3199.63573	0.11795
3197.70707	0.11724
3195.77842	0.11671
3193.84977	0.11629
3191.92111	0.11586
3189.99246	0.11552
3188.06381	0.11524
3186.13515	0.11485
3184.20650	0.11428
3182.27785	0.11354
3180.34919	0.11268
3178.42054	0.11196
3176.49189	0.11157
3174.56323	0.11134
3172.63458	0.11090
3170.70593	0.11009
3168.77727	0.10922
3166.84862	0.10851
3164.91997	0.10781
3162.99131	0.10703
3161.06266	0.10633
3159.13401	0.10573
3157.20535	0.10511
3155.27670	0.10452
3153.34805	0.10409
3151.41939	0.10367
3149.49074	0.10300
3147.56209	0.10225
3145.63343	0.10171
3143.70478	0.10126
3141.77613	0.10078
3139.84748	0.10018
3137.91882	0.09947
3135.99017	0.09901
3134.06152	0.09881
3132.13286	0.09858
3130.20421	0.09816
3128.27556	0.09749
3126.34690	0.09678
3124.41825	0.09633
3122.48960	0.09626
3120.56094	0.09646
3118.63229	0.09663
3116.70364	0.09652
3114.77498	0.09625
3112.84633	0.09599
3110.91768	0.09579
3108.98902	0.09559
3107.06037	0.09549
3105.13172	0.09561
3103.20306	0.09572
3101.27441	0.09575
3099.34576	0.09598
3097.41710	0.09635
3095.48845	0.09665
3093.55980	0.09691
3091.63114	0.09716
3089.70249	0.09733
3087.77384	0.09759
3085.84518	0.09813
3083.91653	0.09869
3081.98788	0.09888
3080.05922	0.09889
3078.13057	0.09913
3076.20192	0.09948
3074.27326	0.09969
3072.34461	0.09968
3070.41596	0.09945
3068.48731	0.09912
3066.55865	0.09864
3064.63000	0.09801
3062.70135	0.09757
3060.77269	0.09750
3058.84404	0.09766
3056.91539	0.09780
3054.98673	0.09765
3053.05808	0.09712
3051.12943	0.09652
3049.20077	0.09601
3047.27212	0.09537
3045.34347	0.09461
3043.41481	0.09388
3041.48616	0.09324
3039.55751	0.09280
3037.62885	0.09244
3035.70020	0.09192
3033.77155	0.09128
3031.84289	0.09073
3029.91424	0.09017
3027.98559	0.08941
3026.05693	0.08869
3024.12828	0.08815
3022.19963	0.08760
3020.27097	0.08705
3018.34232	0.08682
3016.41367	0.08690
3014.48501	0.08700
3012.55636	0.08675
3010.62771	0.08619
3008.69905	0.08583
3006.77040	0.08581
3004.84175	0.08572
3002.91309	0.08539
3000.98444	0.08509
2999.05579	0.08532
2997.12714	0.08572
2995.19848	0.08594
2993.26983	0.08580
2991.34118	0.08581
2989.41252	0.08622
2987.48387	0.08658
2985.55522	0.08689
2983.62656	0.08737
2981.69791	0.08788
2979.76926	0.08826
2977.84060	0.08866
2975.91195	0.08922
2973.98330	0.08990
2972.05464	0.09023
2970.12599	0.09004
2968.19734	0.08992
2966.26868	0.09028
2964.34003	0.09081
2962.41138	0.09120
2960.48272	0.09164
2958.55407	0.09239
2956.62542	0.09314
2954.69676	0.09339
2952.76811	0.09309
2950.83946	0.09274
2948.91080	0.09287
2946.98215	0.09329
2945.05350	0.09351
2943.12484	0.09360
2941.19619	0.09405
2939.26754	0.09497
2937.33888	0.09591
2935.41023	0.09647
2933.48158	0.09677
2931.55293	0.09720
2929.62427	0.09770
2927.69562	0.09804
2925.76697	0.09836
2923.83831	0.09864
2921.90966	0.09859
2919.98101	0.09821
2918.05235	0.09764
2916.12370	0.09669
2914.19505	0.09532
2912.26639	0.09369
2910.33774	0.09204
2908.40909	0.09062
2906.48043	0.08960
2904.55178	0.08900
2902.62313	0.08849
2900.69447	0.08769
2898.76582	0.08691
2896.83717	0.08657
2894.90851	0.08649
2892.97986	0.08621
2891.05121	0.08555
2889.12255	0.08495
2887.19390	0.08481
2885.26525	0.08493
2883.33659	0.08497
2881.40794	0.08471
2879.47929	0.08442
2877.55063	0.08452
2875.62198	0.08478
2873.69333	0.08473
2871.76467	0.08451
2869.83602	0.08435
2867.90737	0.08413
2865.97871	0.08353
2864.05006	0.08272
2862.12141	0.08220
2860.19276	0.08207
2858.26410	0.08214
2856.33545	0.08238
2854.40680	0.08281
2852.47814	0.08311
2850.54949	0.08280
2848.62084	0.08176
2846.69218	0.08047
2844.76353	0.07939
2842.83488	0.07839
2840.90622	0.07745
2838.97757	0.07668
2837.04892	0.07593
2835.12026	0.07524
2833.19161	0.07481
2831.26296	0.07464
2829.33430	0.07459
2827.40565	0.07426
2825.47700	0.07366
2823.54834	0.07326
2821.61969	0.07311
2819.69104	0.07289
2817.76238	0.07256
2815.83373	0.07228
2813.90508	0.07216
2811.97642	0.07211
2810.04777	0.07202
2808.11912	0.07183
2806.19046	0.07145
2804.26181	0.07095
2802.33316	0.07062
2800.40450	0.07056
2798.47585	0.07047
2796.54720	0.07017
2794.61855	0.06984
2792.68989	0.06947
2790.76124	0.06911
2788.83259	0.06891
2786.90393	0.06876
2784.97528	0.06853
2783.04663	0.06828
2781.11797	0.06802
2779.18932	0.06766
2777.26067	0.06734
2775.33201	0.06724
2773.40336	0.06719
2771.47471	0.06702
2769.54605	0.06680
2767.61740	0.06657
2765.68875	0.06632
2763.76009	0.06597
2761.83144	0.06565
2759.90279	0.06549
2757.97413	0.06538
2756.04548	0.06524
2754.11683	0.06512
2752.18817	0.06500
2750.25952	0.06487
2748.33087	0.06474
2746.40221	0.06468
2744.47356	0.06468
2742.54491	0.06459
2740.61625	0.06440
2738.68760	0.06420
2736.75895	0.06402
2734.83029	0.06377
2732.90164	0.06343
2730.97299	0.06304
2729.04433	0.06268
2727.11568	0.06243
2725.18703	0.06222
2723.25838	0.06187
2721.32972	0.06150
2719.40107	0.06131
2717.47242	0.06118
2715.54376	0.06103
2713.61511	0.06105
2711.68646	0.06121
2709.75780	0.06124
2707.82915	0.06105
2705.90050	0.06079
2703.97184	0.06045
2702.04319	0.06010
2700.11454	0.05995
2698.18588	0.05993
2696.25723	0.05986
2694.32858	0.05967
2692.39992	0.05941
2690.47127	0.05928
2688.54262	0.05938
2686.61396	0.05955
2684.68531	0.05954
2682.75666	0.05933
2680.82800	0.05913
2678.89935	0.05903
2676.97070	0.05890
2675.04204	0.05867
2673.11339	0.05852
2671.18474	0.05851
2669.25608	0.05851
2667.32743	0.05839
2665.39878	0.05808
2663.47012	0.05760
2661.54147	0.05716
2659.61282	0.05689
2657.68417	0.05663
2655.75551	0.05639
2653.82686	0.05633
2651.89821	0.05630
2649.96955	0.05602
2648.04090	0.05547
2646.11225	0.05494
2644.18359	0.05460
2642.25494	0.05442
2640.32629	0.05434
2638.39763	0.05411
2636.46898	0.05364
2634.54033	0.05315
2632.61167	0.05285
2630.68302	0.05269
2628.75437	0.05256
2626.82571	0.05231
2624.89706	0.05177
2622.96841	0.05114
2621.03975	0.05082
2619.11110	0.05051
2617.18245	0.04988
2615.25379	0.04932
2613.32514	0.04904
2611.39649	0.04901
2609.46783	0.04929
2607.53918	0.04956
2605.61053	0.04939
2603.68187	0.04896
2601.75322	0.04850
2599.82457	0.04804
2597.89591	0.04764
2595.96726	0.04729
2594.03861	0.04695
2592.10995	0.04661
2590.18130	0.04638
2588.25265	0.04642
2586.32400	0.04654
2584.39534	0.04637
2582.46669	0.04598
2580.53804	0.04578
2578.60938	0.04582
2576.68073	0.04576
2574.75208	0.04542
2572.82342	0.04491
2570.89477	0.04426
2568.96612	0.04377
2567.03746	0.04392
2565.10881	0.04449
2563.18016	0.04480
2561.25150	0.04455
2559.32285	0.04398
2557.39420	0.04341
2555.46554	0.04307
2553.53689	0.04318
2551.60824	0.04357
2549.67958	0.04374
2547.75093	0.04351
2545.82228	0.04304
2543.89362	0.04258
2541.96497	0.04245
2540.03632	0.04262
2538.10766	0.04284
2536.17901	0.04282
2534.25036	0.04251
2532.32170	0.04228
2530.39305	0.04232
2528.46440	0.04224
2526.53574	0.04189
2524.60709	0.04165
2522.67844	0.04175
2520.74978	0.04176
2518.82113	0.04144
2516.89248	0.04107
2514.96383	0.04086
2513.03517	0.04084
2511.10652	0.04093
2509.17787	0.04099
2507.24921	0.04096
2505.32056	0.04082
2503.39191	0.04067
2501.46325	0.04056
2499.53460	0.04053
2497.60595	0.04055
2495.67729	0.04054
2493.74864	0.04050
2491.81999	0.04033
2489.89133	0.03993
2487.96268	0.03967
2486.03403	0.03975
2484.10537	0.03993
2482.17672	0.03998
2480.24807	0.03976
2478.31941	0.03934
2476.39076	0.03898
2474.46211	0.03891
2472.53345	0.03910
2470.60480	0.03922
2468.67615	0.03918
2466.74749	0.03909
2464.81884	0.03897
2462.89019	0.03892
2460.96153	0.03900
2459.03288	0.03906
2457.10423	0.03889
2455.17557	0.03850
2453.24692	0.03813
2451.31827	0.03808
2449.38962	0.03822
2447.46096	0.03823
2445.53231	0.03817
2443.60366	0.03797
2441.67500	0.03753
2439.74635	0.03731
2437.81770	0.03757
2435.88904	0.03787
2433.96039	0.03796
2432.03174	0.03802
2430.10308	0.03804
2428.17443	0.03795
2426.24578	0.03786
2424.31712	0.03787
2422.38847	0.03782
2420.45982	0.03766
2418.53116	0.03766
2416.60251	0.03790
2414.67386	0.03803
2412.74520	0.03786
2410.81655	0.03768
2408.88790	0.03770
2406.95924	0.03786
2405.03059	0.03812
2403.10194	0.03833
2401.17328	0.03831
2399.24463	0.03585
2397.31598	0.03631
2395.38732	0.03707
2393.45867	0.03772
2391.53002	0.03850
2389.60136	0.03920
2387.67271	0.03964
2385.74406	0.03998
2383.81540	0.04038
2381.88675	0.04126
2379.95810	0.04231
2378.02945	0.04310
2376.10079	0.04210
2374.17214	0.04238
2372.24349	0.04411
2370.31483	0.04997
2368.38618	0.04214
2366.45753	0.03764
2364.52887	0.03925
2362.60022	0.03810
2360.67157	0.04487
2358.74291	0.05387
2356.81426	0.04581
2354.88561	0.04236
2352.95695	0.04835
2351.02830	0.04816
2349.09965	0.04812
2347.17099	0.04753
2345.24234	0.04822
2343.31369	0.04755
2341.38503	0.04495
2339.45638	0.05311
2337.52773	0.04086
2335.59907	0.03812
2333.67042	0.03995
2331.74177	0.03695
2329.81311	0.03233
2327.88446	0.02935
2325.95581	0.02976
2324.02715	0.03407
2322.09850	0.04014
2320.16985	0.04402
2318.24119	0.04549
2316.31254	0.04577
2314.38389	0.04514
2312.45524	0.04354
2310.52658	0.04139
2308.59793	0.03916
2306.66928	0.03729
2304.74062	0.03647
2302.81197	0.03433
2300.88332	0.03255
2298.95466	0.03136
2297.02601	0.03008
2295.09736	0.02898
2293.16870	0.02842
2291.24005	0.02835
2289.31140	0.02907
2287.38274	0.03043
2285.45409	0.03201
2283.52544	0.03322
2281.59678	0.03349
2279.66813	0.03317
2277.73948	0.03265
2275.81082	0.03183
2273.88217	0.03090
2271.95352	0.03007
2270.02486	0.02950
2268.09621	0.02918
2266.16756	0.02847
2264.23890	0.02736
2262.31025	0.02634
2260.38160	0.02563
2258.45294	0.02509
2256.52429	0.02437
2254.59564	0.02326
2252.66698	0.02177
2250.73833	0.02122
2248.80968	0.02455
2246.88102	0.02421
2244.95237	0.02361
2243.02372	0.02326
2241.09507	0.02345
2239.16641	0.02357
2237.23776	0.02300
2235.30911	0.02223
2233.38045	0.02188
2231.45180	0.02226
2229.52315	0.02310
2227.59449	0.02348
2225.66584	0.02295
2223.73719	0.02192
2221.80853	0.02111
2219.87988	0.02103
2217.95123	0.02118
2216.02257	0.02089
2214.09392	0.02045
2212.16527	0.02017
2210.23661	0.01994
2208.30796	0.01967
2206.37931	0.01921
2204.45065	0.01857
2202.52200	0.01809
2200.59335	0.01793
2198.66469	0.01789
2196.73604	0.01792
2194.80739	0.01806
2192.87873	0.01816
2190.95008	0.01804
2189.02143	0.01770
2187.09277	0.01736
2185.16412	0.01703
2183.23547	0.01650
2181.30681	0.01609
2179.37816	0.01602
2177.44951	0.01605
2175.52085	0.01609
2173.59220	0.01619
2171.66355	0.01626
2169.73490	0.01612
2167.80624	0.01567
2165.87759	0.01473
2163.94894	0.01333
2162.02028	0.01185
2160.09163	0.01066
2158.16298	0.01050
2156.23432	0.01192
2154.30567	0.01387
2152.37702	0.01510
2150.44836	0.01576
2148.51971	0.01626
2146.59106	0.01662
2144.66240	0.01679
2142.73375	0.01661
2140.80510	0.01620
2138.87644	0.01621
2136.94779	0.01684
2135.01914	0.01772
2133.09048	0.01884
2131.16183	0.02000
2129.23318	0.02088
2127.30452	0.02143
2125.37587	0.02179
2123.44722	0.02227
2121.51856	0.02257
2119.58991	0.02226
2117.66126	0.02180
2115.73260	0.02164
2113.80395	0.02163
2111.87530	0.02144
2109.94664	0.02119
2108.01799	0.02133
2106.08934	0.02159
2104.16069	0.02138
2102.23203	0.02110
2100.30338	0.02115
2098.37473	0.02132
2096.44607	0.02130
2094.51742	0.02130
2092.58877	0.02120
2090.66011	0.02114
2088.73146	0.02113
2086.80281	0.02087
2084.87415	0.02044
2082.94550	0.02020
2081.01685	0.02019
2079.08819	0.02034
2077.15954	0.02026
2075.23089	0.01979
2073.30223	0.01939
2071.37358	0.01900
2069.44493	0.01842
2067.51627	0.01788
2065.58762	0.01748
2063.65897	0.01716
2061.73031	0.01695
2059.80166	0.01680
2057.87301	0.01674
2055.94435	0.01685
2054.01570	0.01687
2052.08705	0.01636
2050.15839	0.01543
2048.22974	0.01466
2046.30109	0.01391
2044.37243	0.01297
2042.44378	0.01246
2040.51513	0.01246
2038.58647	0.01231
2036.65782	0.01222
2034.72917	0.01289
2032.80052	0.01361
2030.87186	0.01299
2028.94321	0.01164
2027.01456	0.01120
2025.08590	0.01165
2023.15725	0.01188
2021.22860	0.01141
2019.29994	0.01101
2017.37129	0.01106
2015.44264	0.01103
2013.51398	0.01089
2011.58533	0.01100
2009.65668	0.01129
2007.72802	0.01159
2005.79937	0.01197
2003.87072	0.01262
2001.94206	0.01346
2000.01341	0.01383
1998.08476	0.01340
1996.15610	0.01290
1994.22745	0.01288
1992.29880	0.01295
1990.37014	0.01285
1988.44149	0.01270
1986.51284	0.01276
1984.58418	0.01336
1982.65553	0.01401
1980.72688	0.01380
1978.79822	0.01289
1976.86957	0.01222
1974.94092	0.01226
1973.01226	0.01272
1971.08361	0.01298
1969.15496	0.01275
1967.22631	0.01270
1965.29765	0.01360
1963.36900	0.01495
1961.44035	0.01575
1959.51169	0.01562
1957.58304	0.01475
1955.65439	0.01384
1953.72573	0.01369
1951.79708	0.01419
1949.86843	0.01460
1947.93977	0.01499
1946.01112	0.01596
1944.08247	0.01709
1942.15381	0.01745
1940.22516	0.01730
1938.29651	0.01729
1936.36785	0.01744
1934.43920	0.01749
1932.51055	0.01731
1930.58189	0.01706
1928.65324	0.01719
1926.72459	0.01757
1924.79593	0.01773
1922.86728	0.01789
1920.93863	0.01822
1919.00997	0.01843
1917.08132	0.01834
1915.15267	0.01813
1913.22401	0.01807
1911.29536	0.01827
1909.36671	0.01863
1907.43805	0.01892
1905.50940	0.01895
1903.58075	0.01877
1901.65209	0.01854
1899.72344	0.01854
1897.79479	0.01900
1895.86614	0.01958
1893.93748	0.01980
1892.00883	0.01967
1890.08018	0.01950
1888.15152	0.01936
1886.22287	0.01913
1884.29422	0.01894
1882.36556	0.01892
1880.43691	0.01891
1878.50826	0.01874
1876.57960	0.01859
1874.65095	0.01862
1872.72230	0.01868
1870.79364	0.01894
1868.86499	0.01948
1866.93634	0.01973
1865.00768	0.01943
1863.07903	0.01903
1861.15038	0.01891
1859.22172	0.01900
1857.29307	0.01905
1855.36442	0.01901
1853.43576	0.01904
1851.50711	0.01913
1849.57846	0.01914
1847.64980	0.01910
1845.72115	0.01913
1843.79250	0.01928
1841.86384	0.01951
1839.93519	0.01959
1838.00654	0.01948
1836.07788	0.01934
1834.14923	0.01929
1832.22058	0.01928
1830.29192	0.01933
1828.36327	0.01951
1826.43462	0.01970
1824.50597	0.01980
1822.57731	0.01983
1820.64866	0.01977
1818.72001	0.01976
1816.79135	0.01986
1814.86270	0.01988
1812.93405	0.01972
1811.00539	0.01948
1809.07674	0.01924
1807.14809	0.01908
1805.21943	0.01910
1803.29078	0.01927
1801.36213	0.01934
1799.43347	0.01928
1797.50482	0.01924
1795.57617	0.01927
1793.64751	0.01930
1791.71886	0.01926
1789.79021	0.01911
1787.86155	0.01895
1785.93290	0.01892
1784.00425	0.01894
1782.07559	0.01889
1780.14694	0.01883
1778.21829	0.01883
1776.28963	0.01885
1774.36098	0.01886
1772.43233	0.01885
1770.50367	0.01874
1768.57502	0.01857
1766.64637	0.01846
1764.71771	0.01845
1762.78906	0.01849
1760.86041	0.01851
1758.93176	0.01853
1757.00310	0.01853
1755.07445	0.01854
1753.14580	0.01861
1751.21714	0.01885
1749.28849	0.01915
1747.35984	0.01933
1745.43118	0.01946
1743.50253	0.01971
1741.57388	0.02012
1739.64522	0.02058
1737.71657	0.02107
1735.78792	0.02169
1733.85926	0.02240
1731.93061	0.02297
1730.00196	0.02340
1728.07330	0.02387
1726.14465	0.02438
1724.21600	0.02482
1722.28734	0.02529
1720.35869	0.02594
1718.43004	0.02685
1716.50138	0.02792
1714.57273	0.02896
1712.64408	0.02997
1710.71542	0.03107
1708.78677	0.03236
1706.85812	0.03385
1704.92946	0.03553
1703.00081	0.03741
1701.07216	0.03961
1699.14350	0.04209
1697.21485	0.04469
1695.28620	0.04739
1693.35754	0.05011
1691.42889	0.05286
1689.50024	0.05575
1687.57159	0.05886
1685.64293	0.06226
1683.71428	0.06585
1681.78563	0.06942
1679.85697	0.07308
1677.92832	0.07713
1675.99967	0.08161
1674.07101	0.08638
1672.14236	0.09128
1670.21371	0.09626
1668.28505	0.10122
1666.35640	0.10606
1664.42775	0.11083
1662.49909	0.11552
1660.57044	0.11983
1658.64179	0.12361
1656.71313	0.12699
1654.78448	0.13023
1652.85583	0.13337
1650.92717	0.13606
1648.99852	0.13819
1647.06987	0.14008
1645.14121	0.14184
1643.21256	0.14341
1641.28391	0.14485
1639.35525	0.14626
1637.42660	0.14769
1635.49795	0.14905
1633.56929	0.15004
1631.64064	0.15049
1629.71199	0.15040
1627.78333	0.14962
1625.85468	0.14800
1623.92603	0.14559
1621.99738	0.14250
1620.06872	0.13887
1618.14007	0.13491
1616.21142	0.13074
1614.28276	0.12625
1612.35411	0.12144
1610.42546	0.11654
1608.49680	0.11174
1606.56815	0.10713
1604.63950	0.10266
1602.71084	0.09838
1600.78219	0.09439
1598.85354	0.09075
1596.92488	0.08746
1594.99623	0.08455
1593.06758	0.08206
1591.13892	0.07996
1589.21027	0.07820
1587.28162	0.07677
1585.35296	0.07572
1583.42431	0.07514
1581.49566	0.07506
1579.56700	0.07544
1577.63835	0.07631
1575.70970	0.07765
1573.78104	0.07930
1571.85239	0.08124
1569.92374	0.08362
1567.99508	0.08633
1566.06643	0.08915
1564.13778	0.09207
1562.20912	0.09514
1560.28047	0.09849
1558.35182	0.10194
1556.42316	0.10501
1554.49451	0.10758
1552.56586	0.10987
1550.63721	0.11200
1548.70855	0.11392
1546.77990	0.11549
1544.85125	0.11671
1542.92259	0.11774
1540.99394	0.11867
1539.06529	0.11931
1537.13663	0.11937
1535.20798	0.11906
1533.27933	0.11870
1531.35067	0.11821
1529.42202	0.11745
1527.49337	0.11651
1525.56471	0.11549
1523.63606	0.11443
1521.70741	0.11336
1519.77875	0.11217
1517.85010	0.11072
1515.92145	0.10900
1513.99279	0.10700
1512.06414	0.10470
1510.13549	0.10218
1508.20683	0.09954
1506.27818	0.09676
1504.34953	0.09377
1502.42087	0.09066
1500.49222	0.08764
1498.56357	0.08480
1496.63491	0.08207
1494.70626	0.07928
1492.77761	0.07651
1490.84895	0.07395
1488.92030	0.07169
1486.99165	0.06976
1485.06299	0.06824
1483.13434	0.06717
1481.20569	0.06654
1479.27704	0.06630
1477.34838	0.06646
1475.41973	0.06709
1473.49108	0.06825
1471.56242	0.06979
1469.63377	0.07142
1467.70512	0.07304
1465.77646	0.07474
1463.84781	0.07652
1461.91916	0.07830
1459.99050	0.08014
1458.06185	0.08218
1456.13320	0.08428
1454.20454	0.08600
1452.27589	0.08716
1450.34724	0.08787
1448.41858	0.08828
1446.48993	0.08830
1444.56128	0.08788
1442.63262	0.08709
1440.70397	0.08612
1438.77532	0.08506
1436.84666	0.08385
1434.91801	0.08235
1432.98936	0.08067
1431.06070	0.07906
1429.13205	0.07765
1427.20340	0.07643
1425.27474	0.07542
1423.34609	0.07465
1421.41744	0.07419
1419.48878	0.07402
1417.56013	0.07398
1415.63148	0.07397
1413.70283	0.07405
1411.77417	0.07420
1409.84552	0.07436
1407.91687	0.07449
1405.98821	0.07451
1404.05956	0.07433
1402.13091	0.07399
1400.20225	0.07357
1398.27360	0.07308
1396.34495	0.07250
1394.41629	0.07192
1392.48764	0.07141
1390.55899	0.07096
1388.63033	0.07059
1386.70168	0.07028
1384.77303	0.06999
1382.84437	0.06967
1380.91572	0.06937
1378.98707	0.06913
1377.05841	0.06875
1375.12976	0.06816
1373.20111	0.06755
1371.27245	0.06693
1369.34380	0.06614
1367.41515	0.06511
1365.48649	0.06405
1363.55784	0.06311
1361.62919	0.06234
1359.70053	0.06177
1357.77188	0.06146
1355.84323	0.06141
1353.91457	0.06164
1351.98592	0.06215
1350.05727	0.06290
1348.12861	0.06380
1346.19996	0.06481
1344.27131	0.06595
1342.34266	0.06711
1340.41400	0.06806
1338.48535	0.06868
1336.55670	0.06903
1334.62804	0.06909
1332.69939	0.06883
1330.77074	0.06830
1328.84208	0.06760
1326.91343	0.06680
1324.98478	0.06595
1323.05612	0.06515
1321.12747	0.06449
1319.19882	0.06400
1317.27016	0.06366
1315.34151	0.06336
1313.41286	0.06302
1311.48420	0.06265
1309.55555	0.06227
1307.62690	0.06189
1305.69824	0.06156
1303.76959	0.06134
1301.84094	0.06118
1299.91228	0.06103
1297.98363	0.06091
1296.05498	0.06085
1294.12632	0.06091
1292.19767	0.06117
1290.26902	0.06166
1288.34036	0.06229
1286.41171	0.06295
1284.48306	0.06359
1282.55440	0.06421
1280.62575	0.06472
1278.69710	0.06503
1276.76845	0.06508
1274.83979	0.06498
1272.91114	0.06495
1270.98249	0.06502
1269.05383	0.06520
1267.12518	0.06556
1265.19653	0.06605
1263.26787	0.06657
1261.33922	0.06716
1259.41057	0.06786
1257.48191	0.06863
1255.55326	0.06942
1253.62461	0.07031
1251.69595	0.07138
1249.76730	0.07259
1247.83865	0.07386
1245.90999	0.07516
1243.98134	0.07646
1242.05269	0.07773
1240.12403	0.07885
1238.19538	0.07973
1236.26673	0.08032
1234.33807	0.08063
1232.40942	0.08064
1230.48077	0.08027
1228.55211	0.07949
1226.62346	0.07842
1224.69481	0.07713
1222.76615	0.07565
1220.83750	0.07409
1218.90885	0.07262
1216.98019	0.07141
1215.05154	0.07055
1213.12289	0.07005
1211.19423	0.06982
1209.26558	0.06986
1207.33693	0.07013
1205.40828	0.07050
1203.47962	0.07081
1201.55097	0.07090
1199.62232	0.07041
1197.69366	0.06966
1195.76501	0.06870
1193.83636	0.06767
1191.90770	0.06656
1189.97905	0.06544
1188.05040	0.06438
1186.12174	0.06347
1184.19309	0.06275
1182.26444	0.06210
1180.33578	0.06150
1178.40713	0.06109
1176.47848	0.06090
1174.54982	0.06083
1172.62117	0.06076
1170.69252	0.06072
1168.76386	0.06078
1166.83521	0.06088
1164.90656	0.06098
1162.97790	0.06106
1161.04925	0.06107
1159.12060	0.06092
1157.19194	0.06062
1155.26329	0.06018
1153.33464	0.05958
1151.40598	0.05892
1149.47733	0.05823
1147.54868	0.05749
1145.62002	0.05679
1143.69137	0.05616
1141.76272	0.05558
1139.83406	0.05516
1137.90541	0.05493
1135.97676	0.05479
1134.04811	0.05460
1132.11945	0.05433
1130.19080	0.05412
1128.26215	0.05405
1126.33349	0.05397
1124.40484	0.05378
1122.47619	0.05365
1120.54753	0.05370
1118.61888	0.05383
1116.69023	0.05384
1114.76157	0.05374
1112.83292	0.05375
1110.90427	0.05391
1108.97561	0.05411
1107.04696	0.05423
1105.11831	0.05428
1103.18965	0.05447
1101.26100	0.05487
1099.33235	0.05533
1097.40369	0.05572
1095.47504	0.05609
1093.54639	0.05658
1091.61773	0.05718
1089.68908	0.05791
1087.76043	0.05874
1085.83177	0.05962
1083.90312	0.06049
1081.97447	0.06121
1080.04581	0.06159
1078.11716	0.06156
1076.18851	0.06118
1074.25985	0.06069
1072.33120	0.06019
1070.40255	0.05962
1068.47390	0.05907
1066.54524	0.05876
1064.61659	0.05865
1062.68794	0.05847
1060.75928	0.05817
1058.83063	0.05780
1056.90198	0.05735
1054.97332	0.05682
1053.04467	0.05621
1051.11602	0.05561
1049.18736	0.05511
1047.25871	0.05470
1045.33006	0.05433
1043.40140	0.05405
1041.47275	0.05388
1039.54410	0.05387
1037.61544	0.05412
1035.68679	0.05458
1033.75814	0.05506
1031.82948	0.05536
1029.90083	0.05534
1027.97218	0.05498
1026.04352	0.05440
1024.11487	0.05373
1022.18622	0.05309
1020.25756	0.05254
1018.32891	0.05205
1016.40026	0.05159
1014.47160	0.05118
1012.54295	0.05073
1010.61430	0.05015
1008.68564	0.04957
1006.75699	0.04903
1004.82834	0.04847
1002.89968	0.04792
1000.97103	0.04741
999.04238	0.04680
997.11373	0.04605
995.18507	0.04535
993.25642	0.04481
991.32777	0.04428
989.39911	0.04372
987.47046	0.04326
985.54181	0.04288
983.61315	0.04253
981.68450	0.04238
979.75585	0.04250
977.82719	0.04268
975.89854	0.04272
973.96989	0.04266
972.04123	0.04256
970.11258	0.04239
968.18393	0.04217
966.25527	0.04195
964.32662	0.04180
962.39797	0.04166
960.46931	0.04142
958.54066	0.04117
956.61201	0.04102
954.68335	0.04089
952.75470	0.04069
950.82605	0.04050
948.89739	0.04040
946.96874	0.04034
945.04009	0.04032
943.11143	0.04038
941.18278	0.04040
939.25413	0.04031
937.32547	0.04019
935.39682	0.04011
933.46817	0.04003
931.53952	0.03983
929.61086	0.03945
927.68221	0.03906
925.75356	0.03880
923.82490	0.03867
921.89625	0.03860
919.96760	0.03852
918.03894	0.03843
916.11029	0.03816
914.18164	0.03762
912.25298	0.03696
910.32433	0.03652
908.39568	0.03636
906.46702	0.03630
904.53837	0.03635
902.60972	0.03635
900.68106	0.03608
898.75241	0.03575
896.82376	0.03562
894.89510	0.03559
892.96645	0.03547
891.03780	0.03518
889.10914	0.03490
887.18049	0.03485
885.25184	0.03503
883.32318	0.03534
881.39453	0.03569
879.46588	0.03591
877.53722	0.03591
875.60857	0.03577
873.67992	0.03572
871.75126	0.03577
869.82261	0.03569
867.89396	0.03543
865.96530	0.03514
864.03665	0.03490
862.10800	0.03477
860.17935	0.03471
858.25069	0.03463
856.32204	0.03459
854.39339	0.03456
852.46473	0.03448
850.53608	0.03429
848.60743	0.03397
846.67877	0.03358
844.75012	0.03325
842.82147	0.03297
840.89281	0.03267
838.96416	0.03246
837.03551	0.03233
835.10685	0.03207
833.17820	0.03171
831.24955	0.03150
829.32089	0.03146
827.39224	0.03146
825.46359	0.03143
823.53493	0.03143
821.60628	0.03156
819.67763	0.03186
817.74897	0.03222
815.82032	0.03247
813.89167	0.03258
811.96301	0.03262
810.03436	0.03262
808.10571	0.03256
806.17705	0.03255
804.24840	0.03267
802.31975	0.03279
800.39109	0.03272
798.46244	0.03263
796.53379	0.03267
794.60513	0.03280
792.67648	0.03301
790.74783	0.03326
788.81918	0.03345
786.89052	0.03357
784.96187	0.03361
783.03322	0.03363
781.10456	0.03370
779.17591	0.03381
777.24726	0.03388
775.31860	0.03392
773.38995	0.03395
771.46130	0.03400
769.53264	0.03426
767.60399	0.03478
765.67534	0.03524
763.74668	0.03541
761.81803	0.03543
759.88938	0.03553
757.96072	0.03577
756.03207	0.03601
754.10342	0.03617
752.17476	0.03631
750.24611	0.03643
748.31746	0.03655
746.38880	0.03672
744.46015	0.03692
742.53150	0.03706
740.60284	0.03720
738.67419	0.03740
736.74554	0.03759
734.81688	0.03786
732.88823	0.03829
730.95958	0.03869
729.03092	0.03897
727.10227	0.03935
725.17362	0.03973
723.24497	0.03724
721.31631	0.04003
719.38766	0.04305
717.45901	0.04470
715.53035	0.04482
713.60170	0.04369
711.67305	0.04242
709.74439	0.04189
707.81574	0.04209
705.88709	0.04230
703.95843	0.04243
702.02978	0.04258
700.10113	0.04298
698.17247	0.04374
696.24382	0.04484
694.31517	0.04576
692.38651	0.04629
690.45786	0.04671
688.52921	0.04642
686.60055	0.04605
684.67190	0.04547
682.74325	0.04494
680.81459	0.04491
678.88594	0.04451
676.95729	0.04453
675.02863	0.04471
673.09998	0.04494
671.17133	0.04512
669.24267	0.04558
667.31402	0.04589
665.38537	0.04614
663.45671	0.04623
661.52806	0.04640
659.59941	0.04675
657.67075	0.04685
655.74210	0.04688
653.81345	0.04691
651.88480	0.04719
649.95614	0.04733
648.02749	0.04757
646.09884	0.04778
644.17018	0.04800
642.24153	0.04818
640.31288	0.04809
638.38422	0.04774
636.45557	0.04730
634.52692	0.04729
632.59826	0.04733
630.66961	0.04721
628.74096	0.04568
626.81230	0.04579
624.88365	0.04738
622.95500	0.04956
621.02634	0.05206
619.09769	0.05329
617.16904	0.05161
615.24038	0.04826
613.31173	0.04567
611.38308	0.04479
609.45442	0.04550
607.52577	0.04673
605.59712	0.04718
603.66846	0.04739
601.73981	0.04796
599.81116	0.04818
597.88250	0.04805
595.95385	0.04815
594.02520	0.04844
592.09654	0.04867
590.16789	0.04886
588.23924	0.04902
586.31059	0.04913
584.38193	0.04924
582.45328	0.04927
580.52463	0.04918
578.59597	0.04916
576.66732	0.04934
574.73867	0.04972
572.81001	0.05019
570.88136	0.05047
568.95271	0.05055
567.02405	0.05063
565.09540	0.05069
563.16675	0.05076
561.23809	0.05077
559.30944	0.05059
557.38079	0.05042
555.45213	0.05059
553.52348	0.05090
551.59483	0.05101
549.66617	0.05094
547.73752	0.05088
545.80887	0.05079
543.88021	0.05064
541.95156	0.05049
540.02291	0.05047
538.09425	0.05053
536.16560	0.05058
534.23695	0.05066
532.30829	0.05085
530.37964	0.05104
528.45099	0.05110
526.52233	0.05101
524.59368	0.05083
522.66503	0.05063
520.73637	0.05040
518.80772	0.05014
516.87907	0.04977
514.95042	0.04936
513.02176	0.04903
511.09311	0.04879
509.16446	0.04858
507.23580	0.04827
505.30715	0.04781
503.37850	0.04746
501.44984	0.04731
499.52119	0.04708
497.59254	0.04662
495.66388	0.04618
493.73523	0.04590
491.80658	0.04565
489.87792	0.04529
487.94927	0.04480
486.02062	0.04428
484.09196	0.04394
482.16331	0.04376
480.23466	0.04356
478.30600	0.04336
476.37735	0.04323
474.44870	0.04308
472.52004	0.04281
470.59139	0.04253
468.66274	0.04231
466.73408	0.04207
464.80543	0.04175
462.87678	0.04138
460.94812	0.04098
459.01947	0.04060
457.09082	0.04033
455.16216	0.04014
453.23351	0.03991
451.30486	0.03962
449.37620	0.03925
447.44755	0.03884
445.51890	0.03850
443.59025	0.03819
441.66159	0.03788
439.73294	0.03764
437.80429	0.03745
435.87563	0.03728
433.94698	0.03711
432.01833	0.03686
430.08967	0.03657
428.16102	0.03624
426.23237	0.03589
424.30371	0.03557
422.37506	0.03528
420.44641	0.03504
418.51775	0.03492
416.58910	0.03479
414.66045	0.03450
412.73179	0.03414
410.80314	0.03388
408.87449	0.03370
406.94583	0.03354
405.01718	0.03346
403.08853	0.03341
401.15987	0.03329
399.23122	0.03310
