3997.45528	0.05881
3996.16951	0.05833
3994.88374	0.05774
3993.59798	0.05738
3992.31221	0.05754
3991.02644	0.05800
3989.74067	0.05827
3988.45490	0.05814
3987.16913	0.05783
3985.88336	0.05770
3984.59759	0.05794
3983.31183	0.05840
3982.02606	0.05869
3980.74029	0.05853
3979.45452	0.05799
3978.16875	0.05744
3976.88298	0.05725
3975.59721	0.05747
3974.31144	0.05795
3973.02567	0.05850
3971.73991	0.05892
3970.45414	0.05896
3969.16837	0.05859
3967.88260	0.05803
3966.59683	0.05763
3965.31106	0.05746
3964.02529	0.05740
3962.73952	0.05733
3961.45376	0.05734
3960.16799	0.05756
3958.88222	0.05798
3957.59645	0.05833
3956.31068	0.05824
3955.02491	0.05759
3953.73914	0.05664
3952.45337	0.05588
3951.16760	0.05558
3949.88184	0.05565
3948.59607	0.05584
3947.31030	0.05600
3946.02453	0.05609
3944.73876	0.05610
3943.45299	0.05600
3942.16722	0.05583
3940.88145	0.05580
3939.59569	0.05609
3938.30992	0.05663
3937.02415	0.05712
3935.73838	0.05727
3934.45261	0.05704
3933.16684	0.05666
3931.88107	0.05630
3930.59530	0.05597
3929.30953	0.05557
3928.02377	0.05510
3926.73800	0.05474
3925.45223	0.05468
3924.16646	0.05489
3922.88069	0.05513
3921.59492	0.05523
3920.30915	0.05520
3919.02338	0.05508
3917.73762	0.05485
3916.45185	0.05445
3915.16608	0.05401
3913.88031	0.05373
3912.59454	0.05369
3911.30877	0.05385
3910.02300	0.05405
3908.73723	0.05403
3907.45146	0.05353
3906.16570	0.05270
3904.87993	0.05212
3903.59416	0.05230
3902.30839	0.05318
3901.02262	0.05413
3899.73685	0.05452
3898.45108	0.05418
3897.16531	0.05334
3895.87955	0.05240
3894.59378	0.05167
3893.30801	0.05131
3892.02224	0.05141
3890.73647	0.05192
3889.45070	0.05261
3888.16493	0.05313
3886.87916	0.05327
3885.59339	0.05320
3884.30763	0.05321
3883.02186	0.05339
3881.73609	0.05356
3880.45032	0.05355
3879.16455	0.05337
3877.87878	0.05325
3876.59301	0.05343
3875.30724	0.05394
3874.02148	0.05447
3872.73571	0.05460
3871.44994	0.05426
3870.16417	0.05384
3868.87840	0.05372
3867.59263	0.05382
3866.30686	0.05376
3865.02109	0.05343
3863.73532	0.05309
3862.44956	0.05297
3861.16379	0.05295
3859.87802	0.05268
3858.59225	0.05211
3857.30648	0.05154
3856.02071	0.05134
3854.73494	0.05159
3853.44917	0.05207
3852.16341	0.05248
3850.87764	0.05267
3849.59187	0.05264
3848.30610	0.05243
3847.02033	0.05202
3845.73456	0.05144
3844.44879	0.05090
3843.16302	0.05064
3841.87725	0.05080
3840.59149	0.05121
3839.30572	0.05155
3838.01995	0.05160
3836.73418	0.05143
3835.44841	0.05135
3834.16264	0.05166
3832.87687	0.05238
3831.59110	0.05321
3830.30534	0.05367
3829.01957	0.05355
3827.73380	0.05299
3826.44803	0.05234
3825.16226	0.05193
3823.87649	0.05187
3822.59072	0.05204
3821.30495	0.05225
3820.01918	0.05233
3818.73342	0.05228
3817.44765	0.05214
3816.16188	0.05189
3814.87611	0.05149
3813.59034	0.05098
3812.30457	0.05052
3811.01880	0.05022
3809.73303	0.04999
3808.44726	0.04969
3807.16150	0.04940
3805.87573	0.04937
3804.58996	0.04969
3803.30419	0.05018
3802.01842	0.05054
3800.73265	0.05065
3799.44688	0.05047
3798.16111	0.05001
3796.87535	0.04932
3795.58958	0.04860
3794.30381	0.04818
3793.01804	0.04826
3791.73227	0.04873
3790.44650	0.04927
3789.16073	0.04973
3787.87496	0.05015
3786.58919	0.05062
3785.30343	0.05098
3784.01766	0.05099
3782.73189	0.05061
3781.44612	0.05009
3780.16035	0.04978
3778.87458	0.04978
3777.58881	0.04988
3776.30304	0.04985
3775.01728	0.04966
3773.73151	0.04942
3772.44574	0.04924
3771.15997	0.04912
3769.87420	0.04897
3768.58843	0.04876
3767.30266	0.04850
3766.01689	0.04828
3764.73112	0.04817
3763.44536	0.04821
3762.15959	0.04841
3760.87382	0.04869
3759.58805	0.04891
3758.30228	0.04885
3757.01651	0.04841
3755.73074	0.04774
3754.44497	0.04710
3753.15921	0.04668
3751.87344	0.04656
3750.58767	0.04681
3749.30190	0.04748
3748.01613	0.04839
3746.73036	0.04918
3745.44459	0.04946
3744.15882	0.04920
3742.87305	0.04875
3741.58729	0.04845
3740.30152	0.04833
3739.01575	0.04819
3737.72998	0.04788
3736.44421	0.04747
3735.15844	0.04714
3733.87267	0.04701
3732.58690	0.04706
3731.30114	0.04729
3730.01537	0.04770
3728.72960	0.04815
3727.44383	0.04843
3726.15806	0.04840
3724.87229	0.04805
3723.58652	0.04753
3722.30075	0.04697
3721.01498	0.04651
3719.72922	0.04623
3718.44345	0.04616
3717.15768	0.04619
3715.87191	0.04615
3714.58614	0.04588
3713.30037	0.04536
3712.01460	0.04468
3710.72883	0.04413
3709.44307	0.04399
3708.15730	0.04439
3706.87153	0.04512
3705.58576	0.04579
3704.29999	0.04621
3703.01422	0.04631
3701.72845	0.04616
3700.44268	0.04592
3699.15691	0.04586
3697.87115	0.04617
3696.58538	0.04678
3695.29961	0.04746
3694.01384	0.04778
3692.72807	0.04739
3691.44230	0.04638
3690.15653	0.04539
3688.87076	0.04500
3687.58500	0.04519
3686.29923	0.04547
3685.01346	0.04553
3683.72769	0.04560
3682.44192	0.04616
3681.15615	0.04726
3679.87038	0.04835
3678.58461	0.04872
3677.29884	0.04811
3676.01308	0.04698
3674.72731	0.04619
3673.44154	0.04633
3672.15577	0.04738
3670.87000	0.04883
3669.58423	0.05001
3668.29846	0.05040
3667.01269	0.04996
3665.72693	0.04914
3664.44116	0.04857
3663.15539	0.04861
3661.86962	0.04912
3660.58385	0.04967
3659.29808	0.04994
3658.01231	0.04998
3656.72654	0.05003
3655.44077	0.05032
3654.15501	0.05095
3652.86924	0.05187
3651.58347	0.05291
3650.29770	0.05377
3649.01193	0.05425
3647.72616	0.05436
3646.44039	0.05433
3645.15462	0.05432
3643.86886	0.05438
3642.58309	0.05452
3641.29732	0.05472
3640.01155	0.05501
3638.72578	0.05544
3637.44001	0.05613
3636.15424	0.05702
3634.86847	0.05784
3633.58270	0.05824
3632.29694	0.05814
3631.01117	0.05784
3629.72540	0.05781
3628.43963	0.05820
3627.15386	0.05879
3625.86809	0.05920
3624.58232	0.05929
3623.29655	0.05926
3622.01079	0.05951
3620.72502	0.06018
3619.43925	0.06111
3618.15348	0.06195
3616.86771	0.06255
3615.58194	0.06308
3614.29617	0.06381
3613.01040	0.06483
3611.72463	0.06593
3610.43887	0.06689
3609.15310	0.06775
3607.86733	0.06870
3606.58156	0.06984
3605.29579	0.07107
3604.01002	0.07222
3602.72425	0.07310
3601.43848	0.07357
3600.15272	0.07368
3598.86695	0.07377
3597.58118	0.07428
3596.29541	0.07529
3595.00964	0.07645
3593.72387	0.07735
3592.43810	0.07784
3591.15233	0.07808
3589.86656	0.07831
3588.58080	0.07861
3587.29503	0.07887
3586.00926	0.07902
3584.72349	0.07924
3583.43772	0.07980
3582.15195	0.08085
3580.86618	0.08221
3579.58041	0.08345
3578.29464	0.08422
3577.00888	0.08452
3575.72311	0.08461
3574.43734	0.08481
3573.15157	0.08536
3571.86580	0.08632
3570.58003	0.08757
3569.29426	0.08875
3568.00849	0.08959
3566.72273	0.09009
3565.43696	0.09056
3564.15119	0.09121
3562.86542	0.09195
3561.57965	0.09257
3560.29388	0.09304
3559.00811	0.09359
3557.72234	0.09447
3556.43657	0.09561
3555.15081	0.09659
3553.86504	0.09714
3552.57927	0.09750
3551.29350	0.09814
3550.00773	0.09923
3548.72196	0.10042
3547.43619	0.10127
3546.15042	0.10176
3544.86466	0.10219
3543.57889	0.10278
3542.29312	0.10353
3541.00735	0.10431
3539.72158	0.10510
3538.43581	0.10596
3537.15004	0.10691
3535.86427	0.10799
3534.57850	0.10917
3533.29274	0.11029
3532.00697	0.11117
3530.72120	0.11178
3529.43543	0.11232
3528.14966	0.11303
3526.86389	0.11389
3525.57812	0.11476
3524.29235	0.11566
3523.00659	0.11674
3521.72082	0.11795
3520.43505	0.11897
3519.14928	0.11953
3517.86351	0.11979
3516.57774	0.12011
3515.29197	0.12065
3514.00620	0.12124
3512.72043	0.12162
3511.43467	0.12174
3510.14890	0.12176
3508.86313	0.12189
3507.57736	0.12228
3506.29159	0.12304
3505.00582	0.12423
3503.72005	0.12570
3502.43428	0.12705
3501.14852	0.12796
3499.86275	0.12844
3498.57698	0.12886
3497.29121	0.12956
3496.00544	0.13048
3494.71967	0.13133
3493.43390	0.13191
3492.14813	0.13236
3490.86236	0.13298
3489.57660	0.13389
3488.29083	0.13490
3487.00506	0.13564
3485.71929	0.13600
3484.43352	0.13618
3483.14775	0.13654
3481.86198	0.13719
3480.57621	0.13799
3479.29045	0.13871
3478.00468	0.13926
3476.71891	0.13969
3475.43314	0.14005
3474.14737	0.14031
3472.86160	0.14048
3471.57583	0.14066
3470.29006	0.14106
3469.00429	0.14183
3467.71853	0.14295
3466.43276	0.14422
3465.14699	0.14535
3463.86122	0.14617
3462.57545	0.14664
3461.28968	0.14684
3460.00391	0.14693
3458.71814	0.14712
3457.43238	0.14749
3456.14661	0.14794
3454.86084	0.14833
3453.57507	0.14874
3452.28930	0.14939
3451.00353	0.15037
3449.71776	0.15151
3448.43199	0.15252
3447.14622	0.15316
3445.86046	0.15334
3444.57469	0.15327
3443.28892	0.15331
3442.00315	0.15377
3440.71738	0.15463
3439.43161	0.15562
3438.14584	0.15650
3436.86007	0.15722
3435.57431	0.15782
3434.28854	0.15831
3433.00277	0.15870
3431.71700	0.15910
3430.43123	0.15966
3429.14546	0.16035
3427.85969	0.16095
3426.57392	0.16128
3425.28815	0.16145
3424.00239	0.16175
3422.71662	0.16240
3421.43085	0.16330
3420.14508	0.16411
3418.85931	0.16454
3417.57354	0.16463
3416.28777	0.16471
3415.00200	0.16514
3413.71624	0.16593
3412.43047	0.16680
3411.14470	0.16754
3409.85893	0.16815
3408.57316	0.16878
3407.28739	0.16944
3406.00162	0.17007
3404.71585	0.17064
3403.43008	0.17118
3402.14432	0.17164
3400.85855	0.17191
3399.57278	0.17196
3398.28701	0.17190
3397.00124	0.17193
3395.71547	0.17226
3394.42970	0.17294
3393.14393	0.17382
3391.85817	0.17460
3390.57240	0.17508
3389.28663	0.17527
3388.00086	0.17550
3386.71509	0.17608
3385.42932	0.17712
3384.14355	0.17838
3382.85778	0.17951
3381.57201	0.18034
3380.28625	0.18101
3379.00048	0.18176
3377.71471	0.18265
3376.42894	0.18354
3375.14317	0.18425
3373.85740	0.18483
3372.57163	0.18543
3371.28586	0.18619
3370.00010	0.18712
3368.71433	0.18826
3367.42856	0.18969
3366.14279	0.19139
3364.85702	0.19319
3363.57125	0.19483
3362.28548	0.19618
3360.99971	0.19732
3359.71394	0.19853
3358.42818	0.19999
3357.14241	0.20158
3355.85664	0.20305
3354.57087	0.20436
3353.28510	0.20565
3351.99933	0.20703
3350.71356	0.20843
3349.42779	0.20982
3348.14202	0.21121
3346.85626	0.21253
3345.57049	0.21362
3344.28472	0.21449
3342.99895	0.21542
3341.71318	0.21665
3340.42741	0.21815
3339.14164	0.21970
3337.85587	0.22110
3336.57011	0.22235
3335.28434	0.22358
3333.99857	0.22481
3332.71280	0.22591
3331.42703	0.22676
3330.14126	0.22733
3328.85549	0.22779
3327.56972	0.22837
3326.28395	0.22912
3324.99819	0.22992
3323.71242	0.23058
3322.42665	0.23109
3321.14088	0.23156
3319.85511	0.23208
3318.56934	0.23262
3317.28357	0.23316
3315.99780	0.23376
3314.71204	0.23451
3313.42627	0.23539
3312.14050	0.23620
3310.85473	0.23676
3309.56896	0.23695
3308.28319	0.23688
3306.99742	0.23675
3305.71165	0.23673
3304.42588	0.23677
3303.14012	0.23677
3301.85435	0.23670
3300.56858	0.23669
3299.28281	0.23685
3297.99704	0.23717
3296.71127	0.23754
3295.42550	0.23781
3294.13973	0.23784
3292.85397	0.23762
3291.56820	0.23730
3290.28243	0.23698
3288.99666	0.23664
3287.71089	0.23622
3286.42512	0.23576
3285.13935	0.23539
3283.85358	0.23510
3282.56781	0.23475
3281.28205	0.23428
3279.99628	0.23376
3278.71051	0.23331
3277.42474	0.23304
3276.13897	0.23290
3274.85320	0.23273
3273.56743	0.23232
3272.28166	0.23155
3270.99590	0.23049
3269.71013	0.22932
3268.42436	0.22827
3267.13859	0.22742
3265.85282	0.22674
3264.56705	0.22611
3263.28128	0.22541
3261.99551	0.22451
3260.70974	0.22334
3259.42398	0.22193
3258.13821	0.22052
3256.85244	0.21941
3255.56667	0.21878
3254.28090	0.21851
3252.99513	0.21824
3251.70936	0.21779
3250.42359	0.21730
3249.13783	0.21700
3247.85206	0.21681
3246.56629	0.21634
3245.28052	0.21531
3243.99475	0.21383
3242.70898	0.21229
3241.42321	0.21099
3240.13744	0.21005
3238.85167	0.20941
3237.56591	0.20894
3236.28014	0.20851
3234.99437	0.20805
3233.70860	0.20758
3232.42283	0.20704
3231.13706	0.20634
3229.85129	0.20541
3228.56552	0.20436
3227.27976	0.20337
3225.99399	0.20258
3224.70822	0.20206
3223.42245	0.20184
3222.13668	0.20183
3220.85091	0.20178
3219.56514	0.20147
3218.27937	0.20087
3216.99360	0.20012
3215.70784	0.19941
3214.42207	0.19886
3213.13630	0.19845
3211.85053	0.19800
3210.56476	0.19731
3209.27899	0.19644
3207.99322	0.19564
3206.70745	0.19508
3205.42169	0.19466
3204.13592	0.19420
3202.85015	0.19364
3201.56438	0.19299
3200.27861	0.19229
3198.99284	0.19150
3197.70707	0.19068
3196.42130	0.18992
3195.13553	0.18935
3193.84977	0.18892
3192.56400	0.18843
3191.27823	0.18765
3189.99246	0.18659
3188.70669	0.18543
3187.42092	0.18433
3186.13515	0.18330
3184.84938	0.18229
3183.56362	0.18120
3182.27785	0.18005
3180.99208	0.17895
3179.70631	0.17805
3178.42054	0.17734
3177.13477	0.17659
3175.84900	0.17561
3174.56323	0.17445
3173.27746	0.17335
3171.99170	0.17257
3170.70593	0.17210
3169.42016	0.17168
3168.13439	0.17092
3166.84862	0.16966
3165.56285	0.16815
3164.27708	0.16686
3162.99131	0.16607
3161.70555	0.16563
3160.41978	0.16520
3159.13401	0.16459
3157.84824	0.16384
3156.56247	0.16299
3155.27670	0.16197
3153.99093	0.16076
3152.70516	0.15946
3151.41939	0.15827
3150.13363	0.15727
3148.84786	0.15645
3147.56209	0.15570
3146.27632	0.15493
3144.99055	0.15409
3143.70478	0.15313
3142.41901	0.15209
3141.13324	0.15101
3139.84748	0.15003
3138.56171	0.14925
3137.27594	0.14874
3135.99017	0.14849
3134.70440	0.14834
3133.41863	0.14808
3132.13286	0.14757
3130.84709	0.14681
3129.56132	0.14591
3128.27556	0.14502
3126.98979	0.14422
3125.70402	0.14362
3124.41825	0.14330
3123.13248	0.14332
3121.84671	0.14357
3120.56094	0.14386
3119.27517	0.14399
3117.98940	0.14384
3116.70364	0.14349
3115.41787	0.14309
3114.13210	0.14277
3112.84633	0.14265
3111.56056	0.14277
3110.27479	0.14311
3108.98902	0.14359
3107.70325	0.14402
3106.41749	0.14429
3105.13172	0.14441
3103.84595	0.14454
3102.56018	0.14479
3101.27441	0.14513
3099.98864	0.14545
3098.70287	0.14569
3097.41710	0.14592
3096.13133	0.14620
3094.84557	0.14653
3093.55980	0.14690
3092.27403	0.14730
3090.98826	0.14772
3089.70249	0.14815
3088.41672	0.14855
3087.13095	0.14890
3085.84518	0.14913
3084.55942	0.14917
3083.27365	0.14905
3081.98788	0.14892
3080.70211	0.14894
3079.41634	0.14912
3078.13057	0.14933
3076.84480	0.14940
3075.55903	0.14928
3074.27326	0.14903
3072.98750	0.14878
3071.70173	0.14860
3070.41596	0.14851
3069.13019	0.14850
3067.84442	0.14859
3066.55865	0.14875
3065.27288	0.14889
3063.98711	0.14883
3062.70135	0.14841
3061.41558	0.14754
3060.12981	0.14635
3058.84404	0.14509
3057.55827	0.14399
3056.27250	0.14318
3054.98673	0.14263
3053.70096	0.14224
3052.41519	0.14189
3051.12943	0.14150
3049.84366	0.14094
3048.55789	0.14014
3047.27212	0.13915
3045.98635	0.13812
3044.70058	0.13718
3043.41481	0.13632
3042.12904	0.13547
3040.84328	0.13460
3039.55751	0.13372
3038.27174	0.13284
3036.98597	0.13193
3035.70020	0.13097
3034.41443	0.13008
3033.12866	0.12939
3031.84289	0.12890
3030.55712	0.12842
3029.27136	0.12781
3027.98559	0.12712
3026.69982	0.12651
3025.41405	0.12600
3024.12828	0.12544
3022.84251	0.12473
3021.55674	0.12392
3020.27097	0.12316
3018.98521	0.12254
3017.69944	0.12205
3016.41367	0.12166
3015.12790	0.12133
3013.84213	0.12105
3012.55636	0.12081
3011.27059	0.12061
3009.98482	0.12046
3008.69905	0.12034
3007.41329	0.12022
3006.12752	0.12007
3004.84175	0.11993
3003.55598	0.11985
3002.27021	0.11980
3000.98444	0.11977
2999.69867	0.11976
2998.41290	0.11986
2997.12714	0.12015
2995.84137	0.12058
2994.55560	0.12099
2993.26983	0.12128
2991.98406	0.12153
2990.69829	0.12194
2989.41252	0.12266
2988.12675	0.12359
2986.84098	0.12446
2985.55522	0.12517
2984.26945	0.12587
2982.98368	0.12674
2981.69791	0.12771
2980.41214	0.12847
2979.12637	0.12887
2977.84060	0.12908
2976.55483	0.12938
2975.26907	0.12987
2973.98330	0.13047
2972.69753	0.13106
2971.41176	0.13163
2970.12599	0.13232
2968.84022	0.13325
2967.55445	0.13441
2966.26868	0.13565
2964.98291	0.13678
2963.69715	0.13773
2962.41138	0.13855
2961.12561	0.13929
2959.83984	0.14000
2958.55407	0.14061
2957.26830	0.14101
2955.98253	0.14114
2954.69676	0.14107
2953.41100	0.14093
2952.12523	0.14079
2950.83946	0.14068
2949.55369	0.14063
2948.26792	0.14077
2946.98215	0.14114
2945.69638	0.14169
2944.41061	0.14236
2943.12484	0.14317
2941.83908	0.14422
2940.55331	0.14556
2939.26754	0.14718
2937.98177	0.14899
2936.69600	0.15085
2935.41023	0.15262
2934.12446	0.15426
2932.83869	0.15581
2931.55293	0.15736
2930.26716	0.15894
2928.98139	0.16052
2927.69562	0.16191
2926.40985	0.16297
2925.12408	0.16366
2923.83831	0.16408
2922.55254	0.16437
2921.26677	0.16457
2919.98101	0.16463
2918.69524	0.16440
2917.40947	0.16353
2916.12370	0.16166
2914.83793	0.15869
2913.55216	0.15494
2912.26639	0.15101
2910.98062	0.14743
2909.69486	0.14439
2908.40909	0.14188
2907.12332	0.13970
2905.83755	0.13762
2904.55178	0.13551
2903.26601	0.13346
2901.98024	0.13165
2900.69447	0.13011
2899.40870	0.12875
2898.12294	0.12751
2896.83717	0.12645
2895.55140	0.12561
2894.26563	0.12490
2892.97986	0.12423
2891.69409	0.12357
2890.40832	0.12297
2889.12255	0.12243
2887.83678	0.12190
2886.55102	0.12142
2885.26525	0.12107
2883.97948	0.12090
2882.69371	0.12090
2881.40794	0.12101
2880.12217	0.12117
2878.83640	0.12133
2877.55063	0.12149
2876.26487	0.12164
2874.97910	0.12170
2873.69333	0.12152
2872.40756	0.12101
2871.12179	0.12025
2869.83602	0.11943
2868.55025	0.11865
2867.26448	0.11796
2865.97871	0.11741
2864.69295	0.11709
2863.40718	0.11707
2862.12141	0.11739
2860.83564	0.11803
2859.54987	0.11898
2858.26410	0.12022
2856.97833	0.12161
2855.69256	0.12300
2854.40680	0.12427
2853.12103	0.12537
2851.83526	0.12621
2850.54949	0.12645
2849.26372	0.12560
2847.97795	0.12338
2846.69218	0.12004
2845.40641	0.11627
2844.12064	0.11278
2842.83488	0.10990
2841.54911	0.10758
2840.26334	0.10564
2838.97757	0.10394
2837.69180	0.10245
2836.40603	0.10115
2835.12026	0.10006
2833.83449	0.09917
2832.54873	0.09846
2831.26296	0.09789
2829.97719	0.09743
2828.69142	0.09710
2827.40565	0.09684
2826.11988	0.09657
2824.83411	0.09623
2823.54834	0.09580
2822.26257	0.09522
2820.97681	0.09451
2819.69104	0.09375
2818.40527	0.09306
2817.11950	0.09250
2815.83373	0.09200
2814.54796	0.09148
2813.26219	0.09102
2811.97642	0.09072
2810.69066	0.09057
2809.40489	0.09046
2808.11912	0.09028
2806.83335	0.09003
2805.54758	0.08980
2804.26181	0.08961
2802.97604	0.08937
2801.69027	0.08903
2800.40450	0.08863
2799.11874	0.08833
2797.83297	0.08814
2796.54720	0.08791
2795.26143	0.08749
2793.97566	0.08697
2792.68989	0.08655
2791.40412	0.08629
2790.11835	0.08611
2788.83259	0.08585
2787.54682	0.08547
2786.26105	0.08505
2784.97528	0.08468
2783.68951	0.08448
2782.40374	0.08446
2781.11797	0.08451
2779.83220	0.08443
2778.54643	0.08409
2777.26067	0.08359
2775.97490	0.08320
2774.68913	0.08308
2773.40336	0.08307
2772.11759	0.08291
2770.83182	0.08251
2769.54605	0.08208
2768.26028	0.08181
2766.97452	0.08169
2765.68875	0.08153
2764.40298	0.08123
2763.11721	0.08089
2761.83144	0.08069
2760.54567	0.08064
2759.25990	0.08059
2757.97413	0.08036
2756.68836	0.07997
2755.40260	0.07954
2754.11683	0.07919
2752.83106	0.07892
2751.54529	0.07864
2750.25952	0.07832
2748.97375	0.07798
2747.68798	0.07769
2746.40221	0.07751
2745.11645	0.07742
2743.83068	0.07740
2742.54491	0.07740
2741.25914	0.07734
2739.97337	0.07708
2738.68760	0.07654
2737.40183	0.07587
2736.11606	0.07534
2734.83029	0.07511
2733.54453	0.07515
2732.25876	0.07527
2730.97299	0.07532
2729.68722	0.07522
2728.40145	0.07499
2727.11568	0.07472
2725.82991	0.07449
2724.54414	0.07425
2723.25838	0.07391
2721.97261	0.07344
2720.68684	0.07297
2719.40107	0.07264
2718.11530	0.07245
2716.82953	0.07234
2715.54376	0.07228
2714.25799	0.07227
2712.97222	0.07230
2711.68646	0.07231
2710.40069	0.07221
2709.11492	0.07200
2707.82915	0.07170
2706.54338	0.07139
2705.25761	0.07119
2703.97184	0.07114
2702.68607	0.07120
2701.40031	0.07124
2700.11454	0.07123
2698.82877	0.07117
2697.54300	0.07107
2696.25723	0.07091
2694.97146	0.07070
2693.68569	0.07049
2692.39992	0.07031
2691.11415	0.07013
2689.82839	0.06991
2688.54262	0.06967
2687.25685	0.06946
2685.97108	0.06935
2684.68531	0.06931
2683.39954	0.06923
2682.11377	0.06901
2680.82800	0.06873
2679.54224	0.06857
2678.25647	0.06865
2676.97070	0.06888
2675.68493	0.06911
2674.39916	0.06920
2673.11339	0.06914
2671.82762	0.06896
2670.54185	0.06876
2669.25608	0.06862
2667.97032	0.06861
2666.68455	0.06867
2665.39878	0.06873
2664.11301	0.06877
2662.82724	0.06881
2661.54147	0.06882
2660.25570	0.06872
2658.96993	0.06850
2657.68417	0.06826
2656.39840	0.06808
2655.11263	0.06789
2653.82686	0.06757
2652.54109	0.06716
2651.25532	0.06682
2649.96955	0.06663
2648.68378	0.06648
2647.39801	0.06621
2646.11225	0.06585
2644.82648	0.06553
2643.54071	0.06529
2642.25494	0.06498
2640.96917	0.06450
2639.68340	0.06390
2638.39763	0.06337
2637.11186	0.06297
2635.82609	0.06265
2634.54033	0.06239
2633.25456	0.06227
2631.96879	0.06232
2630.68302	0.06247
2629.39725	0.06258
2628.11148	0.06258
2626.82571	0.06241
2625.53994	0.06208
2624.25418	0.06163
2622.96841	0.06115
2621.68264	0.06072
2620.39687	0.06044
2619.11110	0.06034
2617.82533	0.06039
2616.53956	0.06050
2615.25379	0.06051
2613.96802	0.06030
2612.68226	0.05988
2611.39649	0.05933
2610.11072	0.05878
2608.82495	0.05828
2607.53918	0.05790
2606.25341	0.05766
2604.96764	0.05757
2603.68187	0.05755
2602.39611	0.05752
2601.11034	0.05748
2599.82457	0.05740
2598.53880	0.05728
2597.25303	0.05707
2595.96726	0.05678
2594.68149	0.05642
2593.39572	0.05607
2592.10995	0.05583
2590.82419	0.05574
2589.53842	0.05574
2588.25265	0.05571
2586.96688	0.05564
2585.68111	0.05560
2584.39534	0.05560
2583.10957	0.05552
2581.82380	0.05528
2580.53804	0.05499
2579.25227	0.05474
2577.96650	0.05455
2576.68073	0.05448
2575.39496	0.05458
2574.10919	0.05473
2572.82342	0.05468
2571.53765	0.05432
2570.25188	0.05387
2568.96612	0.05364
2567.68035	0.05363
2566.39458	0.05363
2565.10881	0.05353
2563.82304	0.05341
2562.53727	0.05338
2561.25150	0.05340
2559.96573	0.05332
2558.67997	0.05305
2557.39420	0.05260
2556.10843	0.05205
2554.82266	0.05146
2553.53689	0.05085
2552.25112	0.05030
2550.96535	0.04997
2549.67958	0.05002
2548.39381	0.05041
2547.10805	0.05086
2545.82228	0.05111
2544.53651	0.05102
2543.25074	0.05061
2541.96497	0.05003
2540.67920	0.04951
2539.39343	0.04922
2538.10766	0.04911
2536.82190	0.04902
2535.53613	0.04888
2534.25036	0.04877
2532.96459	0.04874
2531.67882	0.04877
2530.39305	0.04884
2529.10728	0.04902
2527.82151	0.04927
2526.53574	0.04942
2525.24998	0.04936
2523.96421	0.04912
2522.67844	0.04884
2521.39267	0.04858
2520.10690	0.04830
2518.82113	0.04798
2517.53536	0.04771
2516.24959	0.04761
2514.96383	0.04767
2513.67806	0.04777
2512.39229	0.04780
2511.10652	0.04773
2509.82075	0.04761
2508.53498	0.04746
2507.24921	0.04728
2505.96344	0.04705
2504.67767	0.04675
2503.39191	0.04645
2502.10614	0.04618
2500.82037	0.04600
2499.53460	0.04594
2498.24883	0.04601
2496.96306	0.04610
2495.67729	0.04606
2494.39152	0.04582
2493.10576	0.04545
2491.81999	0.04509
2490.53422	0.04490
2489.24845	0.04496
2487.96268	0.04512
2486.67691	0.04511
2485.39114	0.04480
2484.10537	0.04437
2482.81960	0.04412
2481.53384	0.04415
2480.24807	0.04436
2478.96230	0.04463
2477.67653	0.04490
2476.39076	0.04508
2475.10499	0.04507
2473.81922	0.04488
2472.53345	0.04465
2471.24769	0.04448
2469.96192	0.04431
2468.67615	0.04404
2467.39038	0.04372
2466.10461	0.04359
2464.81884	0.04382
2463.53307	0.04429
2462.24730	0.04463
2460.96153	0.04454
2459.67577	0.04410
2458.39000	0.04369
2457.10423	0.04366
2455.81846	0.04407
2454.53269	0.04470
2453.24692	0.04521
2451.96115	0.04541
2450.67538	0.04533
2449.38962	0.04508
2448.10385	0.04471
2446.81808	0.04417
2445.53231	0.04350
2444.24654	0.04288
2442.96077	0.04252
2441.67500	0.04253
2440.38923	0.04286
2439.10346	0.04337
2437.81770	0.04388
2436.53193	0.04418
2435.24616	0.04416
2433.96039	0.04387
2432.67462	0.04345
2431.38885	0.04305
2430.10308	0.04277
2428.81731	0.04267
2427.53155	0.04277
2426.24578	0.04298
2424.96001	0.04316
2423.67424	0.04321
2422.38847	0.04316
2421.10270	0.04316
2419.81693	0.04326
2418.53116	0.04334
2417.24539	0.04324
2415.95963	0.04297
2414.67386	0.04270
2413.38809	0.04257
2412.10232	0.04254
2410.81655	0.04243
2409.53078	0.04209
2408.24501	0.04158
2406.95924	0.04115
2405.67347	0.04100
2404.38771	0.04109
2403.10194	0.04123
2401.81617	0.04131
2400.53040	0.04140
2399.24463	0.04148
2397.95886	0.04161
2396.67309	0.04167
2395.38732	0.04159
2394.10156	0.04144
2392.81579	0.04128
2391.53002	0.04114
2390.24425	0.04105
2388.95848	0.04103
2387.67271	0.04113
2386.38694	0.04131
2385.10117	0.04149
2383.81540	0.04164
2382.52964	0.04176
2381.24387	0.04187
2379.95810	0.04201
2378.67233	0.04207
2377.38656	0.04216
2376.10079	0.04241
2374.81502	0.04271
2373.52925	0.04256
2372.24349	0.04195
2370.95772	0.04138
2369.67195	0.04119
2368.38618	0.04135
2367.10041	0.04160
2365.81464	0.04193
2364.52887	0.04216
2363.24310	0.04227
2361.95733	0.04221
2360.67157	0.04186
2359.38580	0.04148
2358.10003	0.04133
2356.81426	0.04151
2355.52849	0.04197
2354.24272	0.04254
2352.95695	0.04292
2351.67118	0.04276
2350.38542	0.04248
2349.09965	0.04255
2347.81388	0.04271
2346.52811	0.04245
2345.24234	0.04207
2343.95657	0.04218
2342.67080	0.04287
2341.38503	0.04283
2340.09926	0.04214
2338.81350	0.04228
2337.52773	0.04299
2336.24196	0.04251
2334.95619	0.04160
2333.67042	0.04184
2332.38465	0.04279
2331.09888	0.04226
2329.81311	0.04186
2328.52735	0.04224
2327.24158	0.04218
2325.95581	0.04215
2324.67004	0.04263
2323.38427	0.04304
2322.09850	0.04263
2320.81273	0.04222
2319.52696	0.04180
2318.24119	0.04140
2316.95543	0.04114
2315.66966	0.04079
2314.38389	0.04048
2313.09812	0.04021
2311.81235	0.03983
2310.52658	0.03959
2309.24081	0.03951
2307.95504	0.03938
2306.66928	0.03927
2305.38351	0.03914
2304.09774	0.03910
2302.81197	0.03912
2301.52620	0.03906
2300.24043	0.03885
2298.95466	0.03851
2297.66889	0.03817
2296.38312	0.03794
2295.09736	0.03780
2293.81159	0.03771
2292.52582	0.03760
2291.24005	0.03749
2289.95428	0.03735
2288.66851	0.03715
2287.38274	0.03688
2286.09697	0.03657
2284.81121	0.03624
2283.52544	0.03587
2282.23967	0.03548
2280.95390	0.03517
2279.66813	0.03503
2278.38236	0.03502
2277.09659	0.03494
2275.81082	0.03458
2274.52505	0.03395
2273.23929	0.03327
2271.95352	0.03280
2270.66775	0.03259
2269.38198	0.03242
2268.09621	0.03205
2266.81044	0.03146
2265.52467	0.03088
2264.23890	0.03059
2262.95314	0.03068
2261.66737	0.03109
2260.38160	0.03165
2259.09583	0.03215
2257.81006	0.03236
2256.52429	0.03217
2255.23852	0.03168
2253.95275	0.03114
2252.66698	0.03072
2251.38122	0.03042
2250.09545	0.03021
2248.80968	0.03010
2247.52391	0.02987
2246.23814	0.02998
2244.95237	0.03042
2243.66660	0.03098
2242.38083	0.03139
2241.09507	0.03153
2239.80930	0.03147
2238.52353	0.03147
2237.23776	0.03162
2235.95199	0.03169
2234.66622	0.03145
2233.38045	0.03101
2232.09468	0.03067
2230.80891	0.03056
2229.52315	0.03044
2228.23738	0.02999
2226.95161	0.02912
2225.66584	0.02802
2224.38007	0.02705
2223.09430	0.02662
2221.80853	0.02688
2220.52276	0.02759
2219.23700	0.02816
2217.95123	0.02824
2216.66546	0.02799
2215.37969	0.02784
2214.09392	0.02800
2212.80815	0.02841
2211.52238	0.02892
2210.23661	0.02945
2208.95084	0.02990
2207.66508	0.03015
2206.37931	0.03006
2205.09354	0.02955
2203.80777	0.02857
2202.52200	0.02721
2201.23623	0.02566
2199.95046	0.02426
2198.66469	0.02345
2197.37893	0.02348
2196.09316	0.02410
2194.80739	0.02470
2193.52162	0.02482
2192.23585	0.02446
2190.95008	0.02378
2189.66431	0.02291
2188.37854	0.02209
2187.09277	0.02168
2185.80701	0.02171
2184.52124	0.02189
2183.23547	0.02212
2181.94970	0.02267
2180.66393	0.02368
2179.37816	0.02472
2178.09239	0.02520
2176.80662	0.02496
2175.52085	0.02430
2174.23509	0.02363
2172.94932	0.02315
2171.66355	0.02277
2170.37778	0.02229
2169.09201	0.02162
2167.80624	0.02086
2166.52047	0.02002
2165.23470	0.01900
2163.94894	0.01782
2162.66317	0.01677
2161.37740	0.01609
2160.09163	0.01575
2158.80586	0.01561
2157.52009	0.01558
2156.23432	0.01570
2154.94855	0.01605
2153.66278	0.01681
2152.37702	0.01803
2151.09125	0.01950
2149.80548	0.02088
2148.51971	0.02186
2147.23394	0.02219
2145.94817	0.02187
2144.66240	0.02127
2143.37663	0.02086
2142.09087	0.02085
2140.80510	0.02110
2139.51933	0.02145
2138.23356	0.02179
2136.94779	0.02201
2135.66202	0.02210
2134.37625	0.02227
2133.09048	0.02273
2131.80471	0.02344
2130.51895	0.02414
2129.23318	0.02465
2127.94741	0.02508
2126.66164	0.02561
2125.37587	0.02626
2124.09010	0.02677
2122.80433	0.02693
2121.51856	0.02686
2120.23280	0.02696
2118.94703	0.02743
2117.66126	0.02803
2116.37549	0.02839
2115.08972	0.02835
2113.80395	0.02796
2112.51818	0.02732
2111.23241	0.02659
2109.94664	0.02598
2108.66088	0.02573
2107.37511	0.02592
2106.08934	0.02635
2104.80357	0.02673
2103.51780	0.02689
2102.23203	0.02687
2100.94626	0.02677
2099.66049	0.02643
2098.37473	0.02608
2097.08896	0.02575
2095.80319	0.02547
2094.51742	0.02533
2093.23165	0.02541
2091.94588	0.02558
2090.66011	0.02561
2089.37434	0.02530
2088.08857	0.02486
2086.80281	0.02463
2085.51704	0.02478
2084.23127	0.02511
2082.94550	0.02536
2081.65973	0.02550
2080.37396	0.02558
2079.08819	0.02554
2077.80242	0.02523
2076.51666	0.02459
2075.23089	0.02383
2073.94512	0.02325
2072.65935	0.02299
2071.37358	0.02288
2070.08781	0.02266
2068.80204	0.02232
2067.51627	0.02211
2066.23050	0.02222
2064.94474	0.02256
2063.65897	0.02279
2062.37320	0.02269
2061.08743	0.02233
2059.80166	0.02193
2058.51589	0.02170
2057.23012	0.02176
2055.94435	0.02208
2054.65859	0.02248
2053.37282	0.02273
2052.08705	0.02267
2050.80128	0.02230
2049.51551	0.02159
2048.22974	0.02045
2046.94397	0.01902
2045.65820	0.01781
2044.37243	0.01731
2043.08667	0.01747
2041.80090	0.01765
2040.51513	0.01732
2039.22936	0.01654
2037.94359	0.01576
2036.65782	0.01521
2035.37205	0.01469
2034.08628	0.01407
2032.80052	0.01353
2031.51475	0.01341
2030.22898	0.01387
2028.94321	0.01485
2027.65744	0.01618
2026.37167	0.01763
2025.08590	0.01893
2023.80013	0.01976
2022.51436	0.01985
2021.22860	0.01919
2019.94283	0.01817
2018.65706	0.01733
2017.37129	0.01694
2016.08552	0.01691
2014.79975	0.01707
2013.51398	0.01727
2012.22821	0.01736
2010.94245	0.01731
2009.65668	0.01729
2008.37091	0.01747
2007.08514	0.01776
2005.79937	0.01796
2004.51360	0.01807
2003.22783	0.01837
2001.94206	0.01894
2000.65629	0.01948
1999.37053	0.01962
1998.08476	0.01931
1996.79899	0.01883
1995.51322	0.01865
1994.22745	0.01897
1992.94168	0.01958
1991.65591	0.01996
1990.37014	0.01969
1989.08438	0.01889
1987.79861	0.01806
1986.51284	0.01771
1985.22707	0.01795
1983.94130	0.01851
1982.65553	0.01888
1981.36976	0.01858
1980.08399	0.01760
1978.79822	0.01638
1977.51246	0.01551
1976.22669	0.01524
1974.94092	0.01548
1973.65515	0.01610
1972.36938	0.01706
1971.08361	0.01810
1969.79784	0.01877
1968.51207	0.01879
1967.22631	0.01840
1965.94054	0.01816
1964.65477	0.01836
1963.36900	0.01884
1962.08323	0.01916
1960.79746	0.01901
1959.51169	0.01838
1958.22592	0.01754
1956.94015	0.01691
1955.65439	0.01678
1954.36862	0.01714
1953.08285	0.01780
1951.79708	0.01858
1950.51131	0.01933
1949.22554	0.01982
1947.93977	0.01983
1946.65400	0.01940
1945.36823	0.01892
1944.08247	0.01882
1942.79670	0.01918
1941.51093	0.01976
1940.22516	0.02020
1938.93939	0.02037
1937.65362	0.02037
1936.36785	0.02034
1935.08208	0.02040
1933.79632	0.02056
1932.51055	0.02072
1931.22478	0.02077
1929.93901	0.02071
1928.65324	0.02067
1927.36747	0.02080
1926.08170	0.02116
1924.79593	0.02164
1923.51016	0.02206
1922.22440	0.02228
1920.93863	0.02230
1919.65286	0.02222
1918.36709	0.02215
1917.08132	0.02215
1915.79555	0.02215
1914.50978	0.02211
1913.22401	0.02203
1911.93825	0.02197
1910.65248	0.02199
1909.36671	0.02205
1908.08094	0.02214
1906.79517	0.02231
1905.50940	0.02266
1904.22363	0.02313
1902.93786	0.02354
1901.65209	0.02371
1900.36633	0.02360
1899.08056	0.02333
1897.79479	0.02306
1896.50902	0.02288
1895.22325	0.02279
1893.93748	0.02281
1892.65171	0.02294
1891.36594	0.02309
1890.08018	0.02315
1888.79441	0.02309
1887.50864	0.02299
1886.22287	0.02293
1884.93710	0.02289
1883.65133	0.02278
1882.36556	0.02257
1881.07979	0.02229
1879.79402	0.02207
1878.50826	0.02199
1877.22249	0.02206
1875.93672	0.02216
1874.65095	0.02217
1873.36518	0.02211
1872.07941	0.02214
1870.79364	0.02237
1869.50787	0.02269
1868.22211	0.02289
1866.93634	0.02283
1865.65057	0.02253
1864.36480	0.02214
1863.07903	0.02183
1861.79326	0.02180
1860.50749	0.02202
1859.22172	0.02232
1857.93595	0.02247
1856.65019	0.02240
1855.36442	0.02224
1854.07865	0.02210
1852.79288	0.02204
1851.50711	0.02205
1850.22134	0.02215
1848.93557	0.02232
1847.64980	0.02249
1846.36404	0.02256
1845.07827	0.02252
1843.79250	0.02242
1842.50673	0.02237
1841.22096	0.02239
1839.93519	0.02249
1838.64942	0.02258
1837.36365	0.02257
1836.07788	0.02244
1834.79212	0.02224
1833.50635	0.02213
1832.22058	0.02219
1830.93481	0.02241
1829.64904	0.02271
1828.36327	0.02296
1827.07750	0.02309
1825.79173	0.02307
1824.50597	0.02294
1823.22020	0.02278
1821.93443	0.02261
1820.64866	0.02246
1819.36289	0.02235
1818.07712	0.02230
1816.79135	0.02234
1815.50558	0.02244
1814.21981	0.02255
1812.93405	0.02258
1811.64828	0.02250
1810.36251	0.02235
1809.07674	0.02224
1807.79097	0.02222
1806.50520	0.02229
1805.21943	0.02237
1803.93366	0.02239
1802.64790	0.02236
1801.36213	0.02233
1800.07636	0.02238
1798.79059	0.02251
1797.50482	0.02268
1796.21905	0.02281
1794.93328	0.02289
1793.64751	0.02293
1792.36174	0.02295
1791.07598	0.02295
1789.79021	0.02291
1788.50444	0.02280
1787.21867	0.02266
1785.93290	0.02257
1784.64713	0.02256
1783.36136	0.02265
1782.07559	0.02277
1780.78983	0.02289
1779.50406	0.02296
1778.21829	0.02297
1776.93252	0.02295
1775.64675	0.02292
1774.36098	0.02289
1773.07521	0.02286
1771.78944	0.02285
1770.50367	0.02288
1769.21791	0.02297
1767.93214	0.02309
1766.64637	0.02322
1765.36060	0.02334
1764.07483	0.02345
1762.78906	0.02355
1761.50329	0.02366
1760.21752	0.02381
1758.93176	0.02403
1757.64599	0.02432
1756.36022	0.02466
1755.07445	0.02504
1753.78868	0.02544
1752.50291	0.02588
1751.21714	0.02635
1749.93137	0.02683
1748.64560	0.02731
1747.35984	0.02778
1746.07407	0.02826
1744.78830	0.02879
1743.50253	0.02937
1742.21676	0.03000
1740.93099	0.03065
1739.64522	0.03135
1738.35945	0.03211
1737.07369	0.03290
1735.78792	0.03363
1734.50215	0.03425
1733.21638	0.03482
1731.93061	0.03546
1730.64484	0.03621
1729.35907	0.03706
1728.07330	0.03794
1726.78753	0.03886
1725.50177	0.03987
1724.21600	0.04096
1722.93023	0.04209
1721.64446	0.04320
1720.35869	0.04435
1719.07292	0.04565
1717.78715	0.04717
1716.50138	0.04886
1715.21561	0.05065
1713.92985	0.05246
1712.64408	0.05428
1711.35831	0.05615
1710.07254	0.05806
1708.78677	0.06000
1707.50100	0.06195
1706.21523	0.06394
1704.92946	0.06602
1703.64370	0.06824
1702.35793	0.07070
1701.07216	0.07343
1699.78639	0.07646
1698.50062	0.07971
1697.21485	0.08314
1695.92908	0.08668
1694.64331	0.09029
1693.35754	0.09390
1692.07178	0.09750
1690.78601	0.10115
1689.50024	0.10491
1688.21447	0.10882
1686.92870	0.11295
1685.64293	0.11736
1684.35716	0.12207
1683.07139	0.12699
1681.78563	0.13206
1680.49986	0.13730
1679.21409	0.14279
1677.92832	0.14861
1676.64255	0.15474
1675.35678	0.16116
1674.07101	0.16778
1672.78524	0.17457
1671.49947	0.18157
1670.21371	0.18875
1668.92794	0.19600
1667.64217	0.20313
1666.35640	0.21005
1665.07063	0.21677
1663.78486	0.22333
1662.49909	0.22968
1661.21332	0.23571
1659.92756	0.24127
1658.64179	0.24631
1657.35602	0.25079
1656.07025	0.25479
1654.78448	0.25848
1653.49871	0.26192
1652.21294	0.26507
1650.92717	0.26777
1649.64140	0.27003
1648.35564	0.27200
1647.06987	0.27385
1645.78410	0.27565
1644.49833	0.27737
1643.21256	0.27897
1641.92679	0.28047
1640.64102	0.28191
1639.35525	0.28330
1638.06949	0.28462
1636.78372	0.28583
1635.49795	0.28688
1634.21218	0.28766
1632.92641	0.28803
1631.64064	0.28782
1630.35487	0.28688
1629.06910	0.28513
1627.78333	0.28251
1626.49757	0.27899
1625.21180	0.27463
1623.92603	0.26949
1622.64026	0.26367
1621.35449	0.25728
1620.06872	0.25040
1618.78295	0.24312
1617.49718	0.23560
1616.21142	0.22804
1614.92565	0.22056
1613.63988	0.21318
1612.35411	0.20582
1611.06834	0.19850
1609.78257	0.19132
1608.49680	0.18437
1607.21103	0.17770
1605.92526	0.17135
1604.63950	0.16533
1603.35373	0.15968
1602.06796	0.15444
1600.78219	0.14962
1599.49642	0.14520
1598.21065	0.14117
1596.92488	0.13751
1595.63911	0.13422
1594.35335	0.13132
1593.06758	0.12880
1591.78181	0.12662
1590.49604	0.12481
1589.21027	0.12339
1587.92450	0.12239
1586.63873	0.12179
1585.35296	0.12158
1584.06719	0.12174
1582.78143	0.12224
1581.49566	0.12306
1580.20989	0.12418
1578.92412	0.12566
1577.63835	0.12756
1576.35258	0.12993
1575.06681	0.13276
1573.78104	0.13592
1572.49528	0.13935
1571.20951	0.14302
1569.92374	0.14699
1568.63797	0.15125
1567.35220	0.15575
1566.06643	0.16038
1564.78066	0.16506
1563.49489	0.16969
1562.20912	0.17429
1560.92336	0.17888
1559.63759	0.18348
1558.35182	0.18797
1557.06605	0.19220
1555.78028	0.19604
1554.49451	0.19949
1553.20874	0.20258
1551.92297	0.20532
1550.63721	0.20770
1549.35144	0.20972
1548.06567	0.21136
1546.77990	0.21263
1545.49413	0.21357
1544.20836	0.21422
1542.92259	0.21455
1541.63682	0.21455
1540.35105	0.21423
1539.06529	0.21360
1537.77952	0.21270
1536.49375	0.21154
1535.20798	0.21019
1533.92221	0.20869
1532.63644	0.20706
1531.35067	0.20524
1530.06490	0.20320
1528.77914	0.20096
1527.49337	0.19856
1526.20760	0.19606
1524.92183	0.19350
1523.63606	0.19091
1522.35029	0.18834
1521.06452	0.18579
1519.77875	0.18325
1518.49298	0.18063
1517.20722	0.17780
1515.92145	0.17466
1514.63568	0.17117
1513.34991	0.16739
1512.06414	0.16339
1510.77837	0.15925
1509.49260	0.15502
1508.20683	0.15074
1506.92107	0.14643
1505.63530	0.14214
1504.34953	0.13792
1503.06376	0.13384
1501.77799	0.12995
1500.49222	0.12625
1499.20645	0.12270
1497.92068	0.11922
1496.63491	0.11578
1495.34915	0.11243
1494.06338	0.10925
1492.77761	0.10632
1491.49184	0.10368
1490.20607	0.10133
1488.92030	0.09931
1487.63453	0.09762
1486.34876	0.09629
1485.06299	0.09535
1483.77723	0.09479
1482.49146	0.09462
1481.20569	0.09483
1479.91992	0.09543
1478.63415	0.09639
1477.34838	0.09774
1476.06261	0.09951
1474.77684	0.10175
1473.49108	0.10444
1472.20531	0.10738
1470.91954	0.11035
1469.63377	0.11321
1468.34800	0.11596
1467.06223	0.11866
1465.77646	0.12137
1464.49069	0.12411
1463.20492	0.12680
1461.91916	0.12937
1460.63339	0.13181
1459.34762	0.13421
1458.06185	0.13663
1456.77608	0.13901
1455.49031	0.14112
1454.20454	0.14273
1452.91877	0.14371
1451.63301	0.14412
1450.34724	0.14406
1449.06147	0.14367
1447.77570	0.14298
1446.48993	0.14204
1445.20416	0.14088
1443.91839	0.13956
1442.63262	0.13810
1441.34685	0.13652
1440.06109	0.13477
1438.77532	0.13282
1437.48955	0.13068
1436.20378	0.12841
1434.91801	0.12612
1433.63224	0.12390
1432.34647	0.12182
1431.06070	0.11993
1429.77494	0.11826
1428.48917	0.11683
1427.20340	0.11568
1425.91763	0.11482
1424.63186	0.11420
1423.34609	0.11374
1422.06032	0.11338
1420.77455	0.11315
1419.48878	0.11308
1418.20302	0.11318
1416.91725	0.11339
1415.63148	0.11370
1414.34571	0.11411
1413.05994	0.11463
1411.77417	0.11521
1410.48840	0.11574
1409.20263	0.11615
1407.91687	0.11641
1406.63110	0.11657
1405.34533	0.11668
1404.05956	0.11670
1402.77379	0.11656
1401.48802	0.11618
1400.20225	0.11555
1398.91648	0.11473
1397.63071	0.11385
1396.34495	0.11303
1395.05918	0.11233
1393.77341	0.11175
1392.48764	0.11126
1391.20187	0.11084
1389.91610	0.11050
1388.63033	0.11021
1387.34456	0.10995
1386.05880	0.10965
1384.77303	0.10927
1383.48726	0.10883
1382.20149	0.10838
1380.91572	0.10797
1379.62995	0.10755
1378.34418	0.10707
1377.05841	0.10648
1375.77264	0.10578
1374.48688	0.10496
1373.20111	0.10404
1371.91534	0.10302
1370.62957	0.10193
1369.34380	0.10076
1368.05803	0.09954
1366.77226	0.09828
1365.48649	0.09703
1364.20073	0.09588
1362.91496	0.09488
1361.62919	0.09408
1360.34342	0.09350
1359.05765	0.09319
1357.77188	0.09318
1356.48611	0.09346
1355.20034	0.09402
1353.91457	0.09481
1352.62881	0.09579
1351.34304	0.09693
1350.05727	0.09820
1348.77150	0.09958
1347.48573	0.10104
1346.19996	0.10253
1344.91419	0.10400
1343.62842	0.10543
1342.34266	0.10676
1341.05689	0.10791
1339.77112	0.10880
1338.48535	0.10936
1337.19958	0.10956
1335.91381	0.10940
1334.62804	0.10890
1333.34227	0.10810
1332.05650	0.10708
1330.77074	0.10589
1329.48497	0.10457
1328.19920	0.10319
1326.91343	0.10184
1325.62766	0.10064
1324.34189	0.09964
1323.05612	0.09885
1321.77035	0.09823
1320.48459	0.09774
1319.19882	0.09732
1317.91305	0.09696
1316.62728	0.09665
1315.34151	0.09638
1314.05574	0.09611
1312.76997	0.09578
1311.48420	0.09539
1310.19843	0.09496
1308.91267	0.09454
1307.62690	0.09415
1306.34113	0.09380
1305.05536	0.09348
1303.76959	0.09322
1302.48382	0.09301
1301.19805	0.09285
1299.91228	0.09275
1298.62652	0.09273
1297.34075	0.09284
1296.05498	0.09309
1294.76921	0.09350
1293.48344	0.09407
1292.19767	0.09476
1290.91190	0.09553
1289.62613	0.09635
1288.34036	0.09721
1287.05460	0.09812
1285.76883	0.09905
1284.48306	0.09995
1283.19729	0.10076
1281.91152	0.10141
1280.62575	0.10185
1279.33998	0.10208
1278.05421	0.10215
1276.76845	0.10216
1275.48268	0.10219
1274.19691	0.10227
1272.91114	0.10241
1271.62537	0.10260
1270.33960	0.10283
1269.05383	0.10312
1267.76806	0.10349
1266.48229	0.10399
1265.19653	0.10463
1263.91076	0.10542
1262.62499	0.10631
1261.33922	0.10725
1260.05345	0.10822
1258.76768	0.10920
1257.48191	0.11021
1256.19614	0.11131
1254.91037	0.11253
1253.62461	0.11390
1252.33884	0.11544
1251.05307	0.11710
1249.76730	0.11881
1248.48153	0.12053
1247.19576	0.12224
1245.90999	0.12394
1244.62422	0.12561
1243.33846	0.12720
1242.05269	0.12863
1240.76692	0.12985
1239.48115	0.13080
1238.19538	0.13144
1236.90961	0.13176
1235.62384	0.13176
1234.33807	0.13149
1233.05230	0.13097
1231.76654	0.13015
1230.48077	0.12900
1229.19500	0.12746
1227.90923	0.12554
1226.62346	0.12328
1225.33769	0.12079
1224.05192	0.11824
1222.76615	0.11575
1221.48039	0.11341
1220.19462	0.11128
1218.90885	0.10937
1217.62308	0.10772
1216.33731	0.10639
1215.05154	0.10543
1213.76577	0.10487
1212.48000	0.10470
1211.19423	0.10486
1209.90847	0.10526
1208.62270	0.10581
1207.33693	0.10640
1206.05116	0.10690
1204.76539	0.10721
1203.47962	0.10725
1202.19385	0.10694
1200.90808	0.10625
1199.62232	0.10521
1198.33655	0.10385
1197.05078	0.10233
1195.76501	0.10072
1194.47924	0.09908
1193.19347	0.09746
1191.90770	0.09593
1190.62193	0.09454
1189.33616	0.09329
1188.05040	0.09213
1186.76463	0.09104
1185.47886	0.09004
1184.19309	0.08918
1182.90732	0.08847
1181.62155	0.08790
1180.33578	0.08743
1179.05001	0.08706
1177.76425	0.08676
1176.47848	0.08651
1175.19271	0.08631
1173.90694	0.08619
1172.62117	0.08616
1171.33540	0.08618
1170.04963	0.08623
1168.76386	0.08629
1167.47809	0.08637
1166.19233	0.08647
1164.90656	0.08659
1163.62079	0.08668
1162.33502	0.08667
1161.04925	0.08651
1159.76348	0.08619
1158.47771	0.08572
1157.19194	0.08507
1155.90618	0.08427
1154.62041	0.08336
1153.33464	0.08241
1152.04887	0.08143
1150.76310	0.08044
1149.47733	0.07942
1148.19156	0.07843
1146.90579	0.07753
1145.62002	0.07675
1144.33426	0.07613
1143.04849	0.07562
1141.76272	0.07515
1140.47695	0.07465
1139.19118	0.07413
1137.90541	0.07364
1136.61964	0.07321
1135.33387	0.07285
1134.04811	0.07257
1132.76234	0.07241
1131.47657	0.07235
1130.19080	0.07232
1128.90503	0.07229
1127.61926	0.07225
1126.33349	0.07221
1125.04772	0.07219
1123.76195	0.07219
1122.47619	0.07226
1121.19042	0.07240
1119.90465	0.07259
1118.61888	0.07273
1117.33311	0.07281
1116.04734	0.07288
1114.76157	0.07301
1113.47580	0.07321
1112.19004	0.07346
1110.90427	0.07374
1109.61850	0.07405
1108.33273	0.07438
1107.04696	0.07475
1105.76119	0.07514
1104.47542	0.07557
1103.18965	0.07604
1101.90388	0.07656
1100.61812	0.07708
1099.33235	0.07759
1098.04658	0.07808
1096.76081	0.07860
1095.47504	0.07917
1094.18927	0.07981
1092.90350	0.08051
1091.61773	0.08126
1090.33197	0.08211
1089.04620	0.08312
1087.76043	0.08436
1086.47466	0.08575
1085.18889	0.08713
1083.90312	0.08828
1082.61735	0.08904
1081.33158	0.08938
1080.04581	0.08937
1078.76005	0.08906
1077.47428	0.08849
1076.18851	0.08776
1074.90274	0.08698
1073.61697	0.08626
1072.33120	0.08564
1071.04543	0.08514
1069.75966	0.08475
1068.47390	0.08446
1067.18813	0.08423
1065.90236	0.08401
1064.61659	0.08377
1063.33082	0.08350
1062.04505	0.08318
1060.75928	0.08282
1059.47351	0.08243
1058.18774	0.08198
1056.90198	0.08145
1055.61621	0.08085
1054.33044	0.08029
1053.04467	0.07981
1051.75890	0.07938
1050.47313	0.07894
1049.18736	0.07848
1047.90159	0.07808
1046.61583	0.07783
1045.33006	0.07769
1044.04429	0.07758
1042.75852	0.07749
1041.47275	0.07748
1040.18698	0.07768
1038.90121	0.07809
1037.61544	0.07865
1036.32967	0.07925
1035.04391	0.07981
1033.75814	0.08027
1032.47237	0.08057
1031.18660	0.08062
1029.90083	0.08035
1028.61506	0.07972
1027.32929	0.07876
1026.04352	0.07755
1024.75775	0.07625
1023.47199	0.07496
1022.18622	0.07378
1020.90045	0.07274
1019.61468	0.07185
1018.32891	0.07113
1017.04314	0.07054
1015.75737	0.07003
1014.47160	0.06948
1013.18584	0.06882
1011.90007	0.06805
1010.61430	0.06717
1009.32853	0.06625
1008.04276	0.06534
1006.75699	0.06447
1005.47122	0.06360
1004.18545	0.06269
1002.89968	0.06178
1001.61392	0.06094
1000.32815	0.06019
999.04238	0.05951
997.75661	0.05886
996.47084	0.05824
995.18507	0.05768
993.89930	0.05718
992.61353	0.05670
991.32777	0.05623
990.04200	0.05576
988.75623	0.05533
987.47046	0.05498
986.18469	0.05478
984.89892	0.05471
983.61315	0.05472
982.32738	0.05480
981.04161	0.05498
979.75585	0.05531
978.47008	0.05576
977.18431	0.05624
975.89854	0.05663
974.61277	0.05687
973.32700	0.05696
972.04123	0.05689
970.75546	0.05671
969.46970	0.05644
968.18393	0.05616
966.89816	0.05591
965.61239	0.05572
964.32662	0.05558
963.04085	0.05548
961.75508	0.05542
960.46931	0.05534
959.18354	0.05519
957.89778	0.05500
956.61201	0.05482
955.32624	0.05472
954.04047	0.05468
952.75470	0.05466
951.46893	0.05463
950.18316	0.05463
948.89739	0.05470
947.61163	0.05483
946.32586	0.05499
945.04009	0.05514
943.75432	0.05527
942.46855	0.05539
941.18278	0.05549
939.89701	0.05553
938.61124	0.05545
937.32547	0.05525
936.03971	0.05499
934.75394	0.05471
933.46817	0.05444
932.18240	0.05415
930.89663	0.05382
929.61086	0.05345
928.32509	0.05311
927.03932	0.05283
925.75356	0.05264
924.46779	0.05249
923.18202	0.05233
921.89625	0.05214
920.61048	0.05187
919.32471	0.05152
918.03894	0.05107
916.75317	0.05055
915.46740	0.05004
914.18164	0.04957
912.89587	0.04913
911.61010	0.04873
910.32433	0.04839
909.03856	0.04809
907.75279	0.04782
906.46702	0.04753
905.18125	0.04727
903.89549	0.04707
902.60972	0.04696
901.32395	0.04685
900.03818	0.04667
898.75241	0.04642
897.46664	0.04616
896.18087	0.04596
894.89510	0.04580
893.60933	0.04564
892.32357	0.04550
891.03780	0.04542
889.75203	0.04542
888.46626	0.04549
887.18049	0.04558
885.89472	0.04566
884.60895	0.04573
883.32318	0.04578
882.03742	0.04584
880.75165	0.04590
879.46588	0.04595
878.18011	0.04603
876.89434	0.04615
875.60857	0.04627
874.32280	0.04630
873.03703	0.04621
871.75126	0.04605
870.46550	0.04588
869.17973	0.04576
867.89396	0.04566
866.60819	0.04556
865.32242	0.04548
864.03665	0.04544
862.75088	0.04543
861.46511	0.04541
860.17935	0.04533
858.89358	0.04522
857.60781	0.04513
856.32204	0.04509
855.03627	0.04508
853.75050	0.04505
852.46473	0.04499
851.17896	0.04492
849.89319	0.04488
848.60743	0.04483
847.32166	0.04471
846.03589	0.04447
844.75012	0.04414
843.46435	0.04381
842.17858	0.04352
840.89281	0.04330
839.60704	0.04312
838.32128	0.04301
837.03551	0.04299
835.74974	0.04302
834.46397	0.04307
833.17820	0.04311
831.89243	0.04318
830.60666	0.04327
829.32089	0.04341
828.03512	0.04358
826.74936	0.04377
825.46359	0.04394
824.17782	0.04407
822.89205	0.04418
821.60628	0.04433
820.32051	0.04460
819.03474	0.04496
817.74897	0.04536
816.46321	0.04573
815.17744	0.04602
813.89167	0.04622
812.60590	0.04635
811.32013	0.04649
810.03436	0.04669
808.74859	0.04694
807.46282	0.04719
806.17705	0.04745
804.89129	0.04771
803.60552	0.04797
802.31975	0.04823
801.03398	0.04847
799.74821	0.04866
798.46244	0.04874
797.17667	0.04873
795.89090	0.04868
794.60513	0.04866
793.31937	0.04877
792.03360	0.04905
790.74783	0.04945
789.46206	0.04983
788.17629	0.05012
786.89052	0.05033
785.60475	0.05055
784.31898	0.05078
783.03322	0.05099
781.74745	0.05114
780.46168	0.05129
779.17591	0.05148
777.89014	0.05172
776.60437	0.05193
775.31860	0.05211
774.03283	0.05228
772.74706	0.05247
771.46130	0.05265
770.17553	0.05279
768.88976	0.05291
767.60399	0.05306
766.31822	0.05329
765.03245	0.05355
763.74668	0.05382
762.46091	0.05404
761.17515	0.05424
759.88938	0.05444
758.60361	0.05466
757.31784	0.05498
756.03207	0.05540
754.74630	0.05584
753.46053	0.05617
752.17476	0.05634
750.88899	0.05641
749.60323	0.05656
748.31746	0.05689
747.03169	0.05740
745.74592	0.05801
744.46015	0.05858
743.17438	0.05904
741.88861	0.05930
740.60284	0.05938
739.31708	0.05942
738.03131	0.05960
736.74554	0.06003
735.45977	0.06063
734.17400	0.06129
732.88823	0.06193
731.60246	0.06254
730.31669	0.06310
729.03092	0.06362
727.74516	0.06408
726.45939	0.06450
725.17362	0.06484
723.88785	0.06508
722.60208	0.06547
721.31631	0.06595
720.03054	0.06640
718.74477	0.06679
717.45901	0.06711
716.17324	0.06734
714.88747	0.06750
713.60170	0.06759
712.31593	0.06770
711.03016	0.06791
709.74439	0.06823
708.45862	0.06863
707.17285	0.06906
705.88709	0.06948
704.60132	0.06988
703.31555	0.07023
702.02978	0.07051
700.74401	0.07073
699.45824	0.07094
698.17247	0.07116
696.88670	0.07140
695.60094	0.07163
694.31517	0.07184
693.02940	0.07197
691.74363	0.07204
690.45786	0.07209
689.17209	0.07220
687.88632	0.07239
686.60055	0.07263
685.31478	0.07287
684.02902	0.07311
682.74325	0.07334
681.45748	0.07358
680.17171	0.07385
678.88594	0.07412
677.60017	0.07436
676.31440	0.07455
675.02863	0.07469
673.74287	0.07481
672.45710	0.07497
671.17133	0.07519
669.88556	0.07545
668.59979	0.07573
667.31402	0.07602
666.02825	0.07623
664.74248	0.07639
663.45671	0.07655
662.17095	0.07670
660.88518	0.07688
659.59941	0.07708
658.31364	0.07727
657.02787	0.07742
655.74210	0.07752
654.45633	0.07759
653.17056	0.07767
651.88480	0.07778
650.59903	0.07790
649.31326	0.07802
648.02749	0.07811
646.74172	0.07816
645.45595	0.07817
644.17018	0.07819
642.88441	0.07821
641.59864	0.07822
640.31288	0.07823
639.02711	0.07824
637.74134	0.07829
636.45557	0.07839
635.16980	0.07853
633.88403	0.07865
632.59826	0.07872
631.31249	0.07872
630.02673	0.07855
628.74096	0.07825
627.45519	0.07817
626.16942	0.07760
624.88365	0.07662
623.59788	0.07549
622.31211	0.07429
621.02634	0.07315
619.74057	0.07256
618.45481	0.07311
617.16904	0.07477
615.88327	0.07665
614.59750	0.07781
613.31173	0.07809
612.02596	0.07816
610.74019	0.07869
609.45442	0.07955
608.16866	0.07986
606.88289	0.07912
605.59712	0.07776
604.31135	0.07668
603.02558	0.07642
601.73981	0.07687
600.45404	0.07763
599.16827	0.07833
597.88250	0.07889
596.59674	0.07931
595.31097	0.07961
594.02520	0.07974
592.73943	0.07967
591.45366	0.07947
590.16789	0.07927
588.88212	0.07916
587.59635	0.07917
586.31059	0.07921
585.02482	0.07923
583.73905	0.07924
582.45328	0.07929
581.16751	0.07944
579.88174	0.07964
578.59597	0.07981
577.31020	0.07987
576.02443	0.07979
574.73867	0.07965
573.45290	0.07953
572.16713	0.07942
570.88136	0.07931
569.59559	0.07926
568.30982	0.07942
567.02405	0.07989
565.73828	0.08057
564.45251	0.08124
563.16675	0.08167
561.88098	0.08179
560.59521	0.08171
559.30944	0.08155
558.02367	0.08138
556.73790	0.08123
555.45213	0.08112
554.16636	0.08110
552.88060	0.08115
551.59483	0.08120
550.30906	0.08117
549.02329	0.08105
547.73752	0.08086
546.45175	0.08063
545.16598	0.08038
543.88021	0.08013
542.59444	0.07992
541.30868	0.07976
540.02291	0.07967
538.73714	0.07964
537.45137	0.07969
536.16560	0.07981
534.87983	0.07997
533.59406	0.08007
532.30829	0.08004
531.02253	0.07989
529.73676	0.07977
528.45099	0.07981
527.16522	0.08000
525.87945	0.08017
524.59368	0.08014
523.30791	0.07986
522.02214	0.07942
520.73637	0.07893
519.45061	0.07841
518.16484	0.07784
516.87907	0.07725
515.59330	0.07676
514.30753	0.07643
513.02176	0.07622
511.73599	0.07601
510.45022	0.07578
509.16446	0.07551
507.87869	0.07520
506.59292	0.07478
505.30715	0.07428
504.02138	0.07376
502.73561	0.07328
501.44984	0.07290
500.16407	0.07261
498.87830	0.07236
497.59254	0.07209
496.30677	0.07178
495.02100	0.07144
493.73523	0.07108
492.44946	0.07068
491.16369	0.07024
489.87792	0.06984
488.59215	0.06955
487.30639	0.06936
486.02062	0.06918
484.73485	0.06899
483.44908	0.06882
482.16331	0.06871
480.87754	0.06864
479.59177	0.06859
478.30600	0.06856
477.02023	0.06861
475.73447	0.06872
474.44870	0.06876
473.16293	0.06862
471.87716	0.06825
470.59139	0.06776
469.30562	0.06728
468.01985	0.06691
466.73408	0.06665
465.44832	0.06643
464.16255	0.06613
462.87678	0.06571
461.59101	0.06525
460.30524	0.06484
459.01947	0.06448
457.73370	0.06411
456.44793	0.06369
455.16216	0.06323
453.87640	0.06274
452.59063	0.06223
451.30486	0.06172
450.01909	0.06124
448.73332	0.06081
447.44755	0.06042
446.16178	0.06005
444.87601	0.05973
443.59025	0.05947
442.30448	0.05926
441.01871	0.05900
439.73294	0.05865
438.44717	0.05824
437.16140	0.05783
435.87563	0.05750
434.58986	0.05724
433.30409	0.05701
432.01833	0.05680
430.73256	0.05659
429.44679	0.05640
428.16102	0.05619
426.87525	0.05594
425.58948	0.05561
424.30371	0.05523
423.01794	0.05480
421.73218	0.05437
420.44641	0.05398
419.16064	0.05366
417.87487	0.05341
416.58910	0.05320
415.30333	0.05297
414.01756	0.05272
412.73179	0.05244
411.44602	0.05214
410.16026	0.05180
408.87449	0.05145
407.58872	0.05112
406.30295	0.05083
405.01718	0.05059
403.73141	0.05037
402.44564	0.05016
401.15987	0.04996
399.87411	0.04976
