3997.45528	0.07161
3996.16951	0.07143
3994.88374	0.07162
3993.59798	0.07221
3992.31221	0.07290
3991.02644	0.07339
3989.74067	0.07361
3988.45490	0.07366
3987.16913	0.07364
3985.88336	0.07350
3984.59759	0.07316
3983.31183	0.07272
3982.02606	0.07238
3980.74029	0.07224
3979.45452	0.07216
3978.16875	0.07207
3976.88298	0.07210
3975.59721	0.07240
3974.31144	0.07287
3973.02567	0.07320
3971.73991	0.07318
3970.45414	0.07285
3969.16837	0.07244
3967.88260	0.07227
3966.59683	0.07240
3965.31106	0.07247
3964.02529	0.07203
3962.73952	0.07104
3961.45376	0.07002
3960.16799	0.06955
3958.88222	0.06980
3957.59645	0.07047
3956.31068	0.07114
3955.02491	0.07148
3953.73914	0.07142
3952.45337	0.07114
3951.16760	0.07086
3949.88184	0.07057
3948.59607	0.07015
3947.31030	0.06962
3946.02453	0.06919
3944.73876	0.06906
3943.45299	0.06913
3942.16722	0.06926
3940.88145	0.06952
3939.59569	0.07009
3938.30992	0.07090
3937.02415	0.07155
3935.73838	0.07178
3934.45261	0.07165
3933.16684	0.07140
3931.88107	0.07108
3930.59530	0.07058
3929.30953	0.06989
3928.02377	0.06924
3926.73800	0.06891
3925.45223	0.06898
3924.16646	0.06929
3922.88069	0.06968
3921.59492	0.07006
3920.30915	0.07036
3919.02338	0.07041
3917.73762	0.07004
3916.45185	0.06935
3915.16608	0.06857
3913.88031	0.06789
3912.59454	0.06738
3911.30877	0.06711
3910.02300	0.06709
3908.73723	0.06712
3907.45146	0.06696
3906.16570	0.06659
3904.87993	0.06634
3903.59416	0.06651
3902.30839	0.06704
3901.02262	0.06758
3899.73685	0.06779
3898.45108	0.06754
3897.16531	0.06692
3895.87955	0.06620
3894.59378	0.06568
3893.30801	0.06549
3892.02224	0.06557
3890.73647	0.06582
3889.45070	0.06615
3888.16493	0.06639
3886.87916	0.06642
3885.59339	0.06633
3884.30763	0.06641
3883.02186	0.06680
3881.73609	0.06728
3880.45032	0.06751
3879.16455	0.06737
3877.87878	0.06704
3876.59301	0.06674
3875.30724	0.06653
3874.02148	0.06632
3872.73571	0.06602
3871.44994	0.06575
3870.16417	0.06567
3868.87840	0.06583
3867.59263	0.06603
3866.30686	0.06608
3865.02109	0.06607
3863.73532	0.06634
3862.44956	0.06702
3861.16379	0.06780
3859.87802	0.06809
3858.59225	0.06751
3857.30648	0.06622
3856.02071	0.06485
3854.73494	0.06411
3853.44917	0.06424
3852.16341	0.06488
3850.87764	0.06543
3849.59187	0.06556
3848.30610	0.06540
3847.02033	0.06527
3845.73456	0.06541
3844.44879	0.06576
3843.16302	0.06606
3841.87725	0.06606
3840.59149	0.06579
3839.30572	0.06546
3838.01995	0.06514
3836.73418	0.06465
3835.44841	0.06395
3834.16264	0.06331
3832.87687	0.06316
3831.59110	0.06355
3830.30534	0.06409
3829.01957	0.06433
3827.73380	0.06424
3826.44803	0.06416
3825.16226	0.06440
3823.87649	0.06495
3822.59072	0.06554
3821.30495	0.06588
3820.01918	0.06584
3818.73342	0.06544
3817.44765	0.06489
3816.16188	0.06439
3814.87611	0.06408
3813.59034	0.06401
3812.30457	0.06410
3811.01880	0.06421
3809.73303	0.06414
3808.44726	0.06373
3807.16150	0.06300
3805.87573	0.06217
3804.58996	0.06154
3803.30419	0.06134
3802.01842	0.06160
3800.73265	0.06209
3799.44688	0.06245
3798.16111	0.06240
3796.87535	0.06193
3795.58958	0.06127
3794.30381	0.06072
3793.01804	0.06054
3791.73227	0.06080
3790.44650	0.06134
3789.16073	0.06183
3787.87496	0.06206
3786.58919	0.06209
3785.30343	0.06212
3784.01766	0.06225
3782.73189	0.06248
3781.44612	0.06272
3780.16035	0.06288
3778.87458	0.06280
3777.58881	0.06237
3776.30304	0.06170
3775.01728	0.06112
3773.73151	0.06092
3772.44574	0.06108
3771.15997	0.06133
3769.87420	0.06141
3768.58843	0.06124
3767.30266	0.06096
3766.01689	0.06072
3764.73112	0.06059
3763.44536	0.06050
3762.15959	0.06030
3760.87382	0.05994
3759.58805	0.05954
3758.30228	0.05919
3757.01651	0.05885
3755.73074	0.05845
3754.44497	0.05809
3753.15921	0.05803
3751.87344	0.05846
3750.58767	0.05937
3749.30190	0.06055
3748.01613	0.06157
3746.73036	0.06197
3745.44459	0.06162
3744.15882	0.06094
3742.87305	0.06052
3741.58729	0.06052
3740.30152	0.06065
3739.01575	0.06053
3737.72998	0.06011
3736.44421	0.05951
3735.15844	0.05883
3733.87267	0.05824
3732.58690	0.05806
3731.30114	0.05849
3730.01537	0.05933
3728.72960	0.06009
3727.44383	0.06040
3726.15806	0.06026
3724.87229	0.05993
3723.58652	0.05953
3722.30075	0.05900
3721.01498	0.05834
3719.72922	0.05774
3718.44345	0.05744
3717.15768	0.05743
3715.87191	0.05746
3714.58614	0.05720
3713.30037	0.05658
3712.01460	0.05588
3710.72883	0.05548
3709.44307	0.05550
3708.15730	0.05584
3706.87153	0.05645
3705.58576	0.05734
3704.29999	0.05835
3703.01422	0.05906
3701.72845	0.05911
3700.44268	0.05854
3699.15691	0.05781
3697.87115	0.05754
3696.58538	0.05804
3695.29961	0.05897
3694.01384	0.05963
3692.72807	0.05955
3691.44230	0.05877
3690.15653	0.05779
3688.87076	0.05725
3687.58500	0.05730
3686.29923	0.05762
3685.01346	0.05790
3683.72769	0.05812
3682.44192	0.05843
3681.15615	0.05888
3679.87038	0.05934
3678.58461	0.05963
3677.29884	0.05971
3676.01308	0.05964
3674.72731	0.05949
3673.44154	0.05936
3672.15577	0.05934
3670.87000	0.05943
3669.58423	0.05958
3668.29846	0.05979
3667.01269	0.06006
3665.72693	0.06033
3664.44116	0.06043
3663.15539	0.06037
3661.86962	0.06035
3660.58385	0.06059
3659.29808	0.06098
3658.01231	0.06122
3656.72654	0.06123
3655.44077	0.06121
3654.15501	0.06140
3652.86924	0.06173
3651.58347	0.06202
3650.29770	0.06224
3649.01193	0.06254
3647.72616	0.06303
3646.44039	0.06363
3645.15462	0.06415
3643.86886	0.06449
3642.58309	0.06472
3641.29732	0.06499
3640.01155	0.06541
3638.72578	0.06610
3637.44001	0.06712
3636.15424	0.06834
3634.86847	0.06939
3633.58270	0.06982
3632.29694	0.06955
3631.01117	0.06900
3629.72540	0.06888
3628.43963	0.06962
3627.15386	0.07104
3625.86809	0.07250
3624.58232	0.07350
3623.29655	0.07401
3622.01079	0.07430
3620.72502	0.07456
3619.43925	0.07470
3618.15348	0.07462
3616.86771	0.07450
3615.58194	0.07467
3614.29617	0.07538
3613.01040	0.07646
3611.72463	0.07755
3610.43887	0.07836
3609.15310	0.07891
3607.86733	0.07951
3606.58156	0.08040
3605.29579	0.08151
3604.01002	0.08260
3602.72425	0.08344
3601.43848	0.08396
3600.15272	0.08421
3598.86695	0.08441
3597.58118	0.08488
3596.29541	0.08586
3595.00964	0.08713
3593.72387	0.08822
3592.43810	0.08895
3591.15233	0.08950
3589.86656	0.09006
3588.58080	0.09061
3587.29503	0.09106
3586.00926	0.09135
3584.72349	0.09149
3583.43772	0.09172
3582.15195	0.09232
3580.86618	0.09343
3579.58041	0.09496
3578.29464	0.09657
3577.00888	0.09795
3575.72311	0.09898
3574.43734	0.09973
3573.15157	0.10033
3571.86580	0.10086
3570.58003	0.10127
3569.29426	0.10153
3568.00849	0.10177
3566.72273	0.10228
3565.43696	0.10332
3564.15119	0.10483
3562.86542	0.10643
3561.57965	0.10767
3560.29388	0.10837
3559.00811	0.10867
3557.72234	0.10892
3556.43657	0.10929
3555.15081	0.10979
3553.86504	0.11037
3552.57927	0.11110
3551.29350	0.11208
3550.00773	0.11329
3548.72196	0.11456
3547.43619	0.11574
3546.15042	0.11679
3544.86466	0.11771
3543.57889	0.11842
3542.29312	0.11898
3541.00735	0.11964
3539.72158	0.12066
3538.43581	0.12205
3537.15004	0.12352
3535.86427	0.12480
3534.57850	0.12580
3533.29274	0.12655
3532.00697	0.12714
3530.72120	0.12780
3529.43543	0.12869
3528.14966	0.12981
3526.86389	0.13092
3525.57812	0.13184
3524.29235	0.13257
3523.00659	0.13323
3521.72082	0.13389
3520.43505	0.13445
3519.14928	0.13493
3517.86351	0.13557
3516.57774	0.13663
3515.29197	0.13807
3514.00620	0.13944
3512.72043	0.14027
3511.43467	0.14044
3510.14890	0.14023
3508.86313	0.14013
3507.57736	0.14056
3506.29159	0.14163
3505.00582	0.14309
3503.72005	0.14454
3502.43428	0.14568
3501.14852	0.14647
3499.86275	0.14701
3498.57698	0.14741
3497.29121	0.14779
3496.00544	0.14835
3494.71967	0.14927
3493.43390	0.15051
3492.14813	0.15180
3490.86236	0.15279
3489.57660	0.15332
3488.29083	0.15346
3487.00506	0.15341
3485.71929	0.15338
3484.43352	0.15356
3483.14775	0.15413
3481.86198	0.15514
3480.57621	0.15633
3479.29045	0.15723
3478.00468	0.15758
3476.71891	0.15759
3475.43314	0.15769
3474.14737	0.15812
3472.86160	0.15880
3471.57583	0.15952
3470.29006	0.16018
3469.00429	0.16090
3467.71853	0.16182
3466.43276	0.16296
3465.14699	0.16421
3463.86122	0.16540
3462.57545	0.16637
3461.28968	0.16709
3460.00391	0.16761
3458.71814	0.16808
3457.43238	0.16859
3456.14661	0.16911
3454.86084	0.16957
3453.57507	0.16999
3452.28930	0.17048
3451.00353	0.17117
3449.71776	0.17212
3448.43199	0.17326
3447.14622	0.17439
3445.86046	0.17533
3444.57469	0.17598
3443.28892	0.17642
3442.00315	0.17680
3440.71738	0.17724
3439.43161	0.17775
3438.14584	0.17829
3436.86007	0.17879
3435.57431	0.17927
3434.28854	0.17980
3433.00277	0.18044
3431.71700	0.18115
3430.43123	0.18186
3429.14546	0.18261
3427.85969	0.18345
3426.57392	0.18434
3425.28815	0.18514
3424.00239	0.18583
3422.71662	0.18657
3421.43085	0.18745
3420.14508	0.18835
3418.85931	0.18903
3417.57354	0.18946
3416.28777	0.18982
3415.00200	0.19030
3413.71624	0.19100
3412.43047	0.19184
3411.14470	0.19273
3409.85893	0.19359
3408.57316	0.19441
3407.28739	0.19532
3406.00162	0.19642
3404.71585	0.19772
3403.43008	0.19895
3402.14432	0.19978
3400.85855	0.20005
3399.57278	0.19997
3398.28701	0.19986
3397.00124	0.20000
3395.71547	0.20054
3394.42970	0.20146
3393.14393	0.20266
3391.85817	0.20389
3390.57240	0.20496
3389.28663	0.20578
3388.00086	0.20651
3386.71509	0.20732
3385.42932	0.20826
3384.14355	0.20922
3382.85778	0.21005
3381.57201	0.21072
3380.28625	0.21137
3379.00048	0.21215
3377.71471	0.21316
3376.42894	0.21436
3375.14317	0.21563
3373.85740	0.21697
3372.57163	0.21848
3371.28586	0.22017
3370.00010	0.22189
3368.71433	0.22345
3367.42856	0.22485
3366.14279	0.22623
3364.85702	0.22764
3363.57125	0.22905
3362.28548	0.23049
3360.99971	0.23206
3359.71394	0.23379
3358.42818	0.23555
3357.14241	0.23717
3355.85664	0.23867
3354.57087	0.24022
3353.28510	0.24187
3351.99933	0.24348
3350.71356	0.24492
3349.42779	0.24629
3348.14202	0.24776
3346.85626	0.24937
3345.57049	0.25096
3344.28472	0.25243
3342.99895	0.25380
3341.71318	0.25514
3340.42741	0.25650
3339.14164	0.25792
3337.85587	0.25942
3336.57011	0.26098
3335.28434	0.26254
3333.99857	0.26402
3332.71280	0.26530
3331.42703	0.26626
3330.14126	0.26688
3328.85549	0.26733
3327.56972	0.26797
3326.28395	0.26906
3324.99819	0.27053
3323.71242	0.27200
3322.42665	0.27304
3321.14088	0.27355
3319.85511	0.27375
3318.56934	0.27396
3317.28357	0.27432
3315.99780	0.27486
3314.71204	0.27554
3313.42627	0.27625
3312.14050	0.27683
3310.85473	0.27717
3309.56896	0.27732
3308.28319	0.27751
3306.99742	0.27788
3305.71165	0.27844
3304.42588	0.27904
3303.14012	0.27956
3301.85435	0.27996
3300.56858	0.28015
3299.28281	0.28010
3297.99704	0.27989
3296.71127	0.27971
3295.42550	0.27960
3294.13973	0.27946
3292.85397	0.27916
3291.56820	0.27873
3290.28243	0.27829
3288.99666	0.27790
3287.71089	0.27756
3286.42512	0.27718
3285.13935	0.27673
3283.85358	0.27619
3282.56781	0.27564
3281.28205	0.27512
3279.99628	0.27467
3278.71051	0.27434
3277.42474	0.27416
3276.13897	0.27402
3274.85320	0.27371
3273.56743	0.27309
3272.28166	0.27218
3270.99590	0.27114
3269.71013	0.27013
3268.42436	0.26917
3267.13859	0.26817
3265.85282	0.26705
3264.56705	0.26577
3263.28128	0.26441
3261.99551	0.26307
3260.70974	0.26176
3259.42398	0.26042
3258.13821	0.25905
3256.85244	0.25778
3255.56667	0.25673
3254.28090	0.25583
3252.99513	0.25489
3251.70936	0.25384
3250.42359	0.25290
3249.13783	0.25235
3247.85206	0.25216
3246.56629	0.25195
3245.28052	0.25138
3243.99475	0.25046
3242.70898	0.24940
3241.42321	0.24844
3240.13744	0.24767
3238.85167	0.24704
3237.56591	0.24645
3236.28014	0.24582
3234.99437	0.24510
3233.70860	0.24423
3232.42283	0.24317
3231.13706	0.24192
3229.85129	0.24065
3228.56552	0.23965
3227.27976	0.23896
3225.99399	0.23837
3224.70822	0.23772
3223.42245	0.23716
3222.13668	0.23691
3220.85091	0.23689
3219.56514	0.23683
3218.27937	0.23651
3216.99360	0.23595
3215.70784	0.23521
3214.42207	0.23440
3213.13630	0.23363
3211.85053	0.23288
3210.56476	0.23205
3209.27899	0.23111
3207.99322	0.23034
3206.70745	0.22998
3205.42169	0.22992
3204.13592	0.22975
3202.85015	0.22914
3201.56438	0.22807
3200.27861	0.22673
3198.99284	0.22539
3197.70707	0.22434
3196.42130	0.22377
3195.13553	0.22360
3193.84977	0.22344
3192.56400	0.22294
3191.27823	0.22200
3189.99246	0.22078
3188.70669	0.21943
3187.42092	0.21807
3186.13515	0.21683
3184.84938	0.21583
3183.56362	0.21496
3182.27785	0.21399
3180.99208	0.21273
3179.70631	0.21126
3178.42054	0.20975
3177.13477	0.20833
3175.84900	0.20704
3174.56323	0.20593
3173.27746	0.20504
3171.99170	0.20433
3170.70593	0.20371
3169.42016	0.20309
3168.13439	0.20233
3166.84862	0.20128
3165.56285	0.19999
3164.27708	0.19869
3162.99131	0.19766
3161.70555	0.19685
3160.41978	0.19596
3159.13401	0.19477
3157.84824	0.19336
3156.56247	0.19198
3155.27670	0.19076
3153.99093	0.18969
3152.70516	0.18869
3151.41939	0.18776
3150.13363	0.18690
3148.84786	0.18605
3147.56209	0.18514
3146.27632	0.18410
3144.99055	0.18294
3143.70478	0.18170
3142.41901	0.18039
3141.13324	0.17907
3139.84748	0.17788
3138.56171	0.17699
3137.27594	0.17647
3135.99017	0.17620
3134.70440	0.17607
3133.41863	0.17593
3132.13286	0.17566
3130.84709	0.17513
3129.56132	0.17439
3128.27556	0.17364
3126.98979	0.17307
3125.70402	0.17263
3124.41825	0.17220
3123.13248	0.17181
3121.84671	0.17157
3120.56094	0.17148
3119.27517	0.17144
3117.98940	0.17136
3116.70364	0.17123
3115.41787	0.17112
3114.13210	0.17103
3112.84633	0.17099
3111.56056	0.17107
3110.27479	0.17134
3108.98902	0.17171
3107.70325	0.17204
3106.41749	0.17222
3105.13172	0.17230
3103.84595	0.17241
3102.56018	0.17265
3101.27441	0.17293
3099.98864	0.17317
3098.70287	0.17338
3097.41710	0.17364
3096.13133	0.17397
3094.84557	0.17431
3093.55980	0.17464
3092.27403	0.17497
3090.98826	0.17527
3089.70249	0.17548
3088.41672	0.17558
3087.13095	0.17568
3085.84518	0.17593
3084.55942	0.17636
3083.27365	0.17689
3081.98788	0.17743
3080.70211	0.17793
3079.41634	0.17835
3078.13057	0.17867
3076.84480	0.17886
3075.55903	0.17887
3074.27326	0.17864
3072.98750	0.17816
3071.70173	0.17757
3070.41596	0.17710
3069.13019	0.17695
3067.84442	0.17710
3066.55865	0.17736
3065.27288	0.17741
3063.98711	0.17708
3062.70135	0.17634
3061.41558	0.17531
3060.12981	0.17423
3058.84404	0.17337
3057.55827	0.17282
3056.27250	0.17246
3054.98673	0.17204
3053.70096	0.17148
3052.41519	0.17088
3051.12943	0.17031
3049.84366	0.16965
3048.55789	0.16871
3047.27212	0.16749
3045.98635	0.16618
3044.70058	0.16500
3043.41481	0.16408
3042.12904	0.16335
3040.84328	0.16266
3039.55751	0.16187
3038.27174	0.16093
3036.98597	0.15989
3035.70020	0.15886
3034.41443	0.15792
3033.12866	0.15710
3031.84289	0.15638
3030.55712	0.15568
3029.27136	0.15491
3027.98559	0.15403
3026.69982	0.15310
3025.41405	0.15229
3024.12828	0.15165
3022.84251	0.15107
3021.55674	0.15040
3020.27097	0.14959
3018.98521	0.14878
3017.69944	0.14811
3016.41367	0.14761
3015.12790	0.14725
3013.84213	0.14697
3012.55636	0.14675
3011.27059	0.14658
3009.98482	0.14650
3008.69905	0.14651
3007.41329	0.14656
3006.12752	0.14656
3004.84175	0.14649
3003.55598	0.14637
3002.27021	0.14625
3000.98444	0.14618
2999.69867	0.14623
2998.41290	0.14643
2997.12714	0.14672
2995.84137	0.14700
2994.55560	0.14722
2993.26983	0.14742
2991.98406	0.14770
2990.69829	0.14817
2989.41252	0.14887
2988.12675	0.14976
2986.84098	0.15068
2985.55522	0.15143
2984.26945	0.15205
2982.98368	0.15275
2981.69791	0.15363
2980.41214	0.15463
2979.12637	0.15560
2977.84060	0.15649
2976.55483	0.15727
2975.26907	0.15789
2973.98330	0.15832
2972.69753	0.15873
2971.41176	0.15938
2970.12599	0.16044
2968.84022	0.16179
2967.55445	0.16328
2966.26868	0.16482
2964.98291	0.16641
2963.69715	0.16792
2962.41138	0.16918
2961.12561	0.17010
2959.83984	0.17078
2958.55407	0.17134
2957.26830	0.17180
2955.98253	0.17209
2954.69676	0.17220
2953.41100	0.17214
2952.12523	0.17192
2950.83946	0.17164
2949.55369	0.17152
2948.26792	0.17180
2946.98215	0.17255
2945.69638	0.17367
2944.41061	0.17497
2943.12484	0.17634
2941.83908	0.17784
2940.55331	0.17956
2939.26754	0.18159
2937.98177	0.18387
2936.69600	0.18621
2935.41023	0.18839
2934.12446	0.19032
2932.83869	0.19210
2931.55293	0.19387
2930.26716	0.19568
2928.98139	0.19747
2927.69562	0.19912
2926.40985	0.20057
2925.12408	0.20174
2923.83831	0.20260
2922.55254	0.20313
2921.26677	0.20333
2919.98101	0.20318
2918.69524	0.20248
2917.40947	0.20099
2916.12370	0.19843
2914.83793	0.19474
2913.55216	0.19022
2912.26639	0.18547
2910.98062	0.18108
2909.69486	0.17731
2908.40909	0.17410
2907.12332	0.17131
2905.83755	0.16880
2904.55178	0.16651
2903.26601	0.16436
2901.98024	0.16232
2900.69447	0.16042
2899.40870	0.15877
2898.12294	0.15748
2896.83717	0.15652
2895.55140	0.15568
2894.26563	0.15465
2892.97986	0.15338
2891.69409	0.15211
2890.40832	0.15113
2889.12255	0.15048
2887.83678	0.15003
2886.55102	0.14969
2885.26525	0.14946
2883.97948	0.14931
2882.69371	0.14917
2881.40794	0.14901
2880.12217	0.14887
2878.83640	0.14884
2877.55063	0.14898
2876.26487	0.14926
2874.97910	0.14952
2873.69333	0.14949
2872.40756	0.14899
2871.12179	0.14806
2869.83602	0.14694
2868.55025	0.14590
2867.26448	0.14507
2865.97871	0.14448
2864.69295	0.14417
2863.40718	0.14424
2862.12141	0.14478
2860.83564	0.14580
2859.54987	0.14720
2858.26410	0.14887
2856.97833	0.15065
2855.69256	0.15232
2854.40680	0.15370
2853.12103	0.15473
2851.83526	0.15544
2850.54949	0.15557
2849.26372	0.15456
2847.97795	0.15195
2846.69218	0.14789
2845.40641	0.14315
2844.12064	0.13868
2842.83488	0.13502
2841.54911	0.13223
2840.26334	0.13007
2838.97757	0.12827
2837.69180	0.12663
2836.40603	0.12509
2835.12026	0.12367
2833.83449	0.12244
2832.54873	0.12146
2831.26296	0.12067
2829.97719	0.12000
2828.69142	0.11945
2827.40565	0.11898
2826.11988	0.11851
2824.83411	0.11794
2823.54834	0.11723
2822.26257	0.11643
2820.97681	0.11562
2819.69104	0.11487
2818.40527	0.11429
2817.11950	0.11388
2815.83373	0.11353
2814.54796	0.11309
2813.26219	0.11255
2811.97642	0.11198
2810.69066	0.11151
2809.40489	0.11122
2808.11912	0.11104
2806.83335	0.11084
2805.54758	0.11056
2804.26181	0.11019
2802.97604	0.10978
2801.69027	0.10932
2800.40450	0.10882
2799.11874	0.10831
2797.83297	0.10782
2796.54720	0.10742
2795.26143	0.10713
2793.97566	0.10693
2792.68989	0.10675
2791.40412	0.10650
2790.11835	0.10615
2788.83259	0.10569
2787.54682	0.10516
2786.26105	0.10464
2784.97528	0.10425
2783.68951	0.10398
2782.40374	0.10373
2781.11797	0.10335
2779.83220	0.10284
2778.54643	0.10231
2777.26067	0.10193
2775.97490	0.10180
2774.68913	0.10186
2773.40336	0.10189
2772.11759	0.10167
2770.83182	0.10121
2769.54605	0.10070
2768.26028	0.10030
2766.97452	0.09999
2765.68875	0.09967
2764.40298	0.09929
2763.11721	0.09891
2761.83144	0.09860
2760.54567	0.09838
2759.25990	0.09817
2757.97413	0.09789
2756.68836	0.09752
2755.40260	0.09717
2754.11683	0.09694
2752.83106	0.09682
2751.54529	0.09672
2750.25952	0.09654
2748.97375	0.09625
2747.68798	0.09589
2746.40221	0.09551
2745.11645	0.09515
2743.83068	0.09484
2742.54491	0.09463
2741.25914	0.09448
2739.97337	0.09427
2738.68760	0.09389
2737.40183	0.09339
2736.11606	0.09296
2734.83029	0.09278
2733.54453	0.09282
2732.25876	0.09288
2730.97299	0.09278
2729.68722	0.09246
2728.40145	0.09202
2727.11568	0.09159
2725.82991	0.09121
2724.54414	0.09084
2723.25838	0.09044
2721.97261	0.09003
2720.68684	0.08970
2719.40107	0.08943
2718.11530	0.08916
2716.82953	0.08885
2715.54376	0.08857
2714.25799	0.08840
2712.97222	0.08838
2711.68646	0.08846
2710.40069	0.08850
2709.11492	0.08840
2707.82915	0.08814
2706.54338	0.08782
2705.25761	0.08755
2703.97184	0.08740
2702.68607	0.08736
2701.40031	0.08739
2700.11454	0.08739
2698.82877	0.08725
2697.54300	0.08693
2696.25723	0.08653
2694.97146	0.08625
2693.68569	0.08621
2692.39992	0.08635
2691.11415	0.08649
2689.82839	0.08648
2688.54262	0.08629
2687.25685	0.08596
2685.97108	0.08558
2684.68531	0.08526
2683.39954	0.08503
2682.11377	0.08490
2680.82800	0.08483
2679.54224	0.08484
2678.25647	0.08496
2676.97070	0.08515
2675.68493	0.08531
2674.39916	0.08538
2673.11339	0.08531
2671.82762	0.08509
2670.54185	0.08477
2669.25608	0.08447
2667.97032	0.08429
2666.68455	0.08425
2665.39878	0.08429
2664.11301	0.08433
2662.82724	0.08431
2661.54147	0.08421
2660.25570	0.08406
2658.96993	0.08386
2657.68417	0.08363
2656.39840	0.08341
2655.11263	0.08320
2653.82686	0.08294
2652.54109	0.08265
2651.25532	0.08234
2649.96955	0.08202
2648.68378	0.08168
2647.39801	0.08125
2646.11225	0.08074
2644.82648	0.08023
2643.54071	0.07981
2642.25494	0.07947
2640.96917	0.07914
2639.68340	0.07877
2638.39763	0.07841
2637.11186	0.07814
2635.82609	0.07794
2634.54033	0.07768
2633.25456	0.07736
2631.96879	0.07707
2630.68302	0.07684
2629.39725	0.07661
2628.11148	0.07634
2626.82571	0.07604
2625.53994	0.07576
2624.25418	0.07544
2622.96841	0.07502
2621.68264	0.07459
2620.39687	0.07428
2619.11110	0.07411
2617.82533	0.07404
2616.53956	0.07399
2615.25379	0.07392
2613.96802	0.07379
2612.68226	0.07358
2611.39649	0.07335
2610.11072	0.07314
2608.82495	0.07293
2607.53918	0.07265
2606.25341	0.07231
2604.96764	0.07194
2603.68187	0.07153
2602.39611	0.07110
2601.11034	0.07068
2599.82457	0.07030
2598.53880	0.06997
2597.25303	0.06970
2595.96726	0.06953
2594.68149	0.06946
2593.39572	0.06945
2592.10995	0.06939
2590.82419	0.06925
2589.53842	0.06903
2588.25265	0.06875
2586.96688	0.06846
2585.68111	0.06821
2584.39534	0.06802
2583.10957	0.06787
2581.82380	0.06773
2580.53804	0.06760
2579.25227	0.06750
2577.96650	0.06741
2576.68073	0.06730
2575.39496	0.06716
2574.10919	0.06698
2572.82342	0.06670
2571.53765	0.06637
2570.25188	0.06608
2568.96612	0.06586
2567.68035	0.06562
2566.39458	0.06532
2565.10881	0.06505
2563.82304	0.06496
2562.53727	0.06506
2561.25150	0.06521
2559.96573	0.06518
2558.67997	0.06477
2557.39420	0.06405
2556.10843	0.06338
2554.82266	0.06305
2553.53689	0.06300
2552.25112	0.06295
2550.96535	0.06274
2549.67958	0.06247
2548.39381	0.06232
2547.10805	0.06240
2545.82228	0.06266
2544.53651	0.06295
2543.25074	0.06298
2541.96497	0.06258
2540.67920	0.06189
2539.39343	0.06128
2538.10766	0.06099
2536.82190	0.06092
2535.53613	0.06079
2534.25036	0.06048
2532.96459	0.06009
2531.67882	0.05981
2530.39305	0.05970
2529.10728	0.05975
2527.82151	0.05993
2526.53574	0.06020
2525.24998	0.06044
2523.96421	0.06049
2522.67844	0.06026
2521.39267	0.05985
2520.10690	0.05948
2518.82113	0.05928
2517.53536	0.05924
2516.24959	0.05933
2514.96383	0.05955
2513.67806	0.05979
2512.39229	0.05988
2511.10652	0.05968
2509.82075	0.05919
2508.53498	0.05859
2507.24921	0.05812
2505.96344	0.05790
2504.67767	0.05781
2503.39191	0.05769
2502.10614	0.05747
2500.82037	0.05726
2499.53460	0.05713
2498.24883	0.05706
2496.96306	0.05696
2495.67729	0.05678
2494.39152	0.05659
2493.10576	0.05652
2491.81999	0.05663
2490.53422	0.05683
2489.24845	0.05693
2487.96268	0.05685
2486.67691	0.05659
2485.39114	0.05618
2484.10537	0.05574
2482.81960	0.05544
2481.53384	0.05548
2480.24807	0.05577
2478.96230	0.05607
2477.67653	0.05623
2476.39076	0.05630
2475.10499	0.05641
2473.81922	0.05655
2472.53345	0.05665
2471.24769	0.05661
2469.96192	0.05626
2468.67615	0.05551
2467.39038	0.05455
2466.10461	0.05380
2464.81884	0.05357
2463.53307	0.05383
2462.24730	0.05427
2460.96153	0.05451
2459.67577	0.05438
2458.39000	0.05406
2457.10423	0.05385
2455.81846	0.05393
2454.53269	0.05415
2453.24692	0.05422
2451.96115	0.05408
2450.67538	0.05383
2449.38962	0.05367
2448.10385	0.05362
2446.81808	0.05353
2445.53231	0.05329
2444.24654	0.05295
2442.96077	0.05273
2441.67500	0.05277
2440.38923	0.05303
2439.10346	0.05332
2437.81770	0.05346
2436.53193	0.05338
2435.24616	0.05319
2433.96039	0.05303
2432.67462	0.05294
2431.38885	0.05287
2430.10308	0.05280
2428.81731	0.05275
2427.53155	0.05268
2426.24578	0.05253
2424.96001	0.05235
2423.67424	0.05229
2422.38847	0.05237
2421.10270	0.05242
2419.81693	0.05235
2418.53116	0.05226
2417.24539	0.05230
2415.95963	0.05243
2414.67386	0.05247
2413.38809	0.05225
2412.10232	0.05179
2410.81655	0.05132
2409.53078	0.05106
2408.24501	0.05109
2406.95924	0.05133
2405.67347	0.05157
2404.38771	0.05162
2403.10194	0.05146
2401.81617	0.05123
2400.53040	0.05108
2399.24463	0.05096
2397.95886	0.05090
2396.67309	0.05082
2395.38732	0.05072
2394.10156	0.05061
2392.81579	0.05054
2391.53002	0.05054
2390.24425	0.05062
2388.95848	0.05072
2387.67271	0.05073
2386.38694	0.05068
2385.10117	0.05072
2383.81540	0.05099
2382.52964	0.05142
2381.24387	0.05177
2379.95810	0.05186
2378.67233	0.05175
2377.38656	0.05156
2376.10079	0.05139
2374.81502	0.05123
2373.52925	0.05123
2372.24349	0.05138
2370.95772	0.05153
2369.67195	0.05147
2368.38618	0.05130
2367.10041	0.05131
2365.81464	0.05151
2364.52887	0.05179
2363.24310	0.05210
2361.95733	0.05251
2360.67157	0.05312
2359.38580	0.05351
2358.10003	0.05334
2356.81426	0.05272
2355.52849	0.05201
2354.24272	0.05145
2352.95695	0.05121
2351.67118	0.05146
2350.38542	0.05185
2349.09965	0.05194
2347.81388	0.05184
2346.52811	0.05210
2345.24234	0.05236
2343.95657	0.05179
2342.67080	0.05081
2341.38503	0.05102
2340.09926	0.05224
2338.81350	0.05217
2337.52773	0.05083
2336.24196	0.05091
2334.95619	0.05207
2333.67042	0.05166
2332.38465	0.05035
2331.09888	0.05068
2329.81311	0.05116
2328.52735	0.05038
2327.24158	0.05087
2325.95581	0.05213
2324.67004	0.05208
2323.38427	0.05192
2322.09850	0.05212
2320.81273	0.05133
2319.52696	0.05074
2318.24119	0.05048
2316.95543	0.04977
2315.66966	0.04940
2314.38389	0.04926
2313.09812	0.04888
2311.81235	0.04872
2310.52658	0.04846
2309.24081	0.04814
2307.95504	0.04800
2306.66928	0.04781
2305.38351	0.04772
2304.09774	0.04768
2302.81197	0.04760
2301.52620	0.04751
2300.24043	0.04724
2298.95466	0.04683
2297.66889	0.04634
2296.38312	0.04590
2295.09736	0.04558
2293.81159	0.04531
2292.52582	0.04504
2291.24005	0.04476
2289.95428	0.04458
2288.66851	0.04454
2287.38274	0.04456
2286.09697	0.04447
2284.81121	0.04415
2283.52544	0.04365
2282.23967	0.04315
2280.95390	0.04281
2279.66813	0.04260
2278.38236	0.04249
2277.09659	0.04246
2275.81082	0.04246
2274.52505	0.04232
2273.23929	0.04195
2271.95352	0.04145
2270.66775	0.04099
2269.38198	0.04050
2268.09621	0.03983
2266.81044	0.03899
2265.52467	0.03823
2264.23890	0.03770
2262.95314	0.03740
2261.66737	0.03726
2260.38160	0.03723
2259.09583	0.03730
2257.81006	0.03743
2256.52429	0.03751
2255.23852	0.03746
2253.95275	0.03734
2252.66698	0.03716
2251.38122	0.03688
2250.09545	0.03658
2248.80968	0.03645
2247.52391	0.03647
2246.23814	0.03692
2244.95237	0.03747
2243.66660	0.03770
2242.38083	0.03747
2241.09507	0.03708
2239.80930	0.03695
2238.52353	0.03725
2237.23776	0.03768
2235.95199	0.03773
2234.66622	0.03713
2233.38045	0.03608
2232.09468	0.03501
2230.80891	0.03417
2229.52315	0.03363
2228.23738	0.03348
2226.95161	0.03382
2225.66584	0.03442
2224.38007	0.03487
2223.09430	0.03493
2221.80853	0.03480
2220.52276	0.03476
2219.23700	0.03465
2217.95123	0.03407
2216.66546	0.03291
2215.37969	0.03161
2214.09392	0.03087
2212.80815	0.03102
2211.52238	0.03177
2210.23661	0.03245
2208.95084	0.03254
2207.66508	0.03202
2206.37931	0.03138
2205.09354	0.03110
2203.80777	0.03120
2202.52200	0.03117
2201.23623	0.03055
2199.95046	0.02960
2198.66469	0.02902
2197.37893	0.02910
2196.09316	0.02950
2194.80739	0.02989
2193.52162	0.03035
2192.23585	0.03089
2190.95008	0.03107
2189.66431	0.03045
2188.37854	0.02928
2187.09277	0.02825
2185.80701	0.02780
2184.52124	0.02778
2183.23547	0.02790
2181.94970	0.02824
2180.66393	0.02893
2179.37816	0.02976
2178.09239	0.03022
2176.80662	0.02992
2175.52085	0.02894
2174.23509	0.02764
2172.94932	0.02646
2171.66355	0.02563
2170.37778	0.02499
2169.09201	0.02411
2167.80624	0.02271
2166.52047	0.02112
2165.23470	0.02004
2163.94894	0.01994
2162.66317	0.02063
2161.37740	0.02139
2160.09163	0.02167
2158.80586	0.02146
2157.52009	0.02106
2156.23432	0.02076
2154.94855	0.02094
2153.66278	0.02207
2152.37702	0.02409
2151.09125	0.02614
2149.80548	0.02729
2148.51971	0.02743
2147.23394	0.02705
2145.94817	0.02661
2144.66240	0.02620
2143.37663	0.02573
2142.09087	0.02509
2140.80510	0.02437
2139.51933	0.02392
2138.23356	0.02409
2136.94779	0.02488
2135.66202	0.02591
2134.37625	0.02683
2133.09048	0.02762
2131.80471	0.02838
2130.51895	0.02910
2129.23318	0.02964
2127.94741	0.03000
2126.66164	0.03036
2125.37587	0.03093
2124.09010	0.03164
2122.80433	0.03222
2121.51856	0.03249
2120.23280	0.03260
2118.94703	0.03280
2117.66126	0.03319
2116.37549	0.03367
2115.08972	0.03397
2113.80395	0.03386
2112.51818	0.03323
2111.23241	0.03226
2109.94664	0.03136
2108.66088	0.03091
2107.37511	0.03107
2106.08934	0.03166
2104.80357	0.03233
2103.51780	0.03274
2102.23203	0.03275
2100.94626	0.03242
2099.66049	0.03152
2098.37473	0.03072
2097.08896	0.03014
2095.80319	0.02988
2094.51742	0.03009
2093.23165	0.03075
2091.94588	0.03152
2090.66011	0.03201
2089.37434	0.03202
2088.08857	0.03163
2086.80281	0.03106
2085.51704	0.03042
2084.23127	0.02979
2082.94550	0.02932
2081.65973	0.02918
2080.37396	0.02933
2079.08819	0.02947
2077.80242	0.02925
2076.51666	0.02867
2075.23089	0.02800
2073.94512	0.02750
2072.65935	0.02722
2071.37358	0.02702
2070.08781	0.02679
2068.80204	0.02658
2067.51627	0.02662
2066.23050	0.02704
2064.94474	0.02761
2063.65897	0.02786
2062.37320	0.02756
2061.08743	0.02694
2059.80166	0.02638
2058.51589	0.02606
2057.23012	0.02581
2055.94435	0.02541
2054.65859	0.02490
2053.37282	0.02461
2052.08705	0.02486
2050.80128	0.02558
2049.51551	0.02618
2048.22974	0.02591
2046.94397	0.02461
2045.65820	0.02292
2044.37243	0.02175
2043.08667	0.02140
2041.80090	0.02138
2040.51513	0.02099
2039.22936	0.02006
2037.94359	0.01895
2036.65782	0.01818
2035.37205	0.01799
2034.08628	0.01823
2032.80052	0.01848
2031.51475	0.01848
2030.22898	0.01840
2028.94321	0.01867
2027.65744	0.01945
2026.37167	0.02056
2025.08590	0.02167
2023.80013	0.02253
2022.51436	0.02278
2021.22860	0.02210
2019.94283	0.02069
2018.65706	0.01922
2017.37129	0.01832
2016.08552	0.01816
2014.79975	0.01859
2013.51398	0.01946
2012.22821	0.02054
2010.94245	0.02130
2009.65668	0.02130
2008.37091	0.02052
2007.08514	0.01950
2005.79937	0.01879
2004.51360	0.01871
2003.22783	0.01923
2001.94206	0.02013
2000.65629	0.02114
1999.37053	0.02196
1998.08476	0.02245
1996.79899	0.02269
1995.51322	0.02297
1994.22745	0.02359
1992.94168	0.02445
1991.65591	0.02505
1990.37014	0.02504
1989.08438	0.02458
1987.79861	0.02410
1986.51284	0.02385
1985.22707	0.02373
1983.94130	0.02357
1982.65553	0.02321
1981.36976	0.02260
1980.08399	0.02176
1978.79822	0.02092
1977.51246	0.02039
1976.22669	0.02035
1974.94092	0.02069
1973.65515	0.02109
1972.36938	0.02124
1971.08361	0.02109
1969.79784	0.02078
1968.51207	0.02051
1967.22631	0.02034
1965.94054	0.02035
1964.65477	0.02068
1963.36900	0.02137
1962.08323	0.02214
1960.79746	0.02253
1959.51169	0.02240
1958.22592	0.02217
1956.94015	0.02241
1955.65439	0.02323
1954.36862	0.02414
1953.08285	0.02466
1951.79708	0.02471
1950.51131	0.02455
1949.22554	0.02437
1947.93977	0.02424
1946.65400	0.02414
1945.36823	0.02408
1944.08247	0.02406
1942.79670	0.02408
1941.51093	0.02413
1940.22516	0.02426
1938.93939	0.02450
1937.65362	0.02479
1936.36785	0.02504
1935.08208	0.02514
1933.79632	0.02507
1932.51055	0.02493
1931.22478	0.02486
1929.93901	0.02493
1928.65324	0.02512
1927.36747	0.02531
1926.08170	0.02545
1924.79593	0.02555
1923.51016	0.02568
1922.22440	0.02589
1920.93863	0.02614
1919.65286	0.02634
1918.36709	0.02641
1917.08132	0.02635
1915.79555	0.02627
1914.50978	0.02626
1913.22401	0.02634
1911.93825	0.02646
1910.65248	0.02657
1909.36671	0.02658
1908.08094	0.02644
1906.79517	0.02621
1905.50940	0.02608
1904.22363	0.02615
1902.93786	0.02632
1901.65209	0.02644
1900.36633	0.02647
1899.08056	0.02649
1897.79479	0.02653
1896.50902	0.02656
1895.22325	0.02653
1893.93748	0.02648
1892.65171	0.02646
1891.36594	0.02644
1890.08018	0.02643
1888.79441	0.02644
1887.50864	0.02652
1886.22287	0.02661
1884.93710	0.02666
1883.65133	0.02661
1882.36556	0.02652
1881.07979	0.02644
1879.79402	0.02642
1878.50826	0.02647
1877.22249	0.02651
1875.93672	0.02652
1874.65095	0.02654
1873.36518	0.02666
1872.07941	0.02681
1870.79364	0.02688
1869.50787	0.02683
1868.22211	0.02676
1866.93634	0.02676
1865.65057	0.02678
1864.36480	0.02667
1863.07903	0.02640
1861.79326	0.02614
1860.50749	0.02603
1859.22172	0.02604
1857.93595	0.02610
1856.65019	0.02613
1855.36442	0.02617
1854.07865	0.02621
1852.79288	0.02625
1851.50711	0.02625
1850.22134	0.02624
1848.93557	0.02623
1847.64980	0.02619
1846.36404	0.02612
1845.07827	0.02607
1843.79250	0.02609
1842.50673	0.02617
1841.22096	0.02626
1839.93519	0.02632
1838.64942	0.02634
1837.36365	0.02633
1836.07788	0.02632
1834.79212	0.02634
1833.50635	0.02640
1832.22058	0.02644
1830.93481	0.02641
1829.64904	0.02633
1828.36327	0.02628
1827.07750	0.02627
1825.79173	0.02627
1824.50597	0.02625
1823.22020	0.02619
1821.93443	0.02608
1820.64866	0.02595
1819.36289	0.02587
1818.07712	0.02590
1816.79135	0.02603
1815.50558	0.02622
1814.21981	0.02640
1812.93405	0.02651
1811.64828	0.02653
1810.36251	0.02647
1809.07674	0.02643
1807.79097	0.02644
1806.50520	0.02649
1805.21943	0.02652
1803.93366	0.02648
1802.64790	0.02641
1801.36213	0.02636
1800.07636	0.02634
1798.79059	0.02633
1797.50482	0.02629
1796.21905	0.02625
1794.93328	0.02623
1793.64751	0.02629
1792.36174	0.02640
1791.07598	0.02652
1789.79021	0.02658
1788.50444	0.02653
1787.21867	0.02641
1785.93290	0.02630
1784.64713	0.02627
1783.36136	0.02634
1782.07559	0.02644
1780.78983	0.02650
1779.50406	0.02650
1778.21829	0.02644
1776.93252	0.02636
1775.64675	0.02626
1774.36098	0.02613
1773.07521	0.02605
1771.78944	0.02610
1770.50367	0.02634
1769.21791	0.02670
1767.93214	0.02706
1766.64637	0.02734
1765.36060	0.02753
1764.07483	0.02768
1762.78906	0.02782
1761.50329	0.02801
1760.21752	0.02827
1758.93176	0.02858
1757.64599	0.02893
1756.36022	0.02931
1755.07445	0.02975
1753.78868	0.03024
1752.50291	0.03080
1751.21714	0.03144
1749.93137	0.03214
1748.64560	0.03288
1747.35984	0.03365
1746.07407	0.03443
1744.78830	0.03525
1743.50253	0.03611
1742.21676	0.03700
1740.93099	0.03790
1739.64522	0.03882
1738.35945	0.03976
1737.07369	0.04067
1735.78792	0.04152
1734.50215	0.04236
1733.21638	0.04332
1731.93061	0.04441
1730.64484	0.04556
1729.35907	0.04669
1728.07330	0.04778
1726.78753	0.04892
1725.50177	0.05018
1724.21600	0.05155
1722.93023	0.05300
1721.64446	0.05454
1720.35869	0.05625
1719.07292	0.05816
1717.78715	0.06026
1716.50138	0.06251
1715.21561	0.06482
1713.92985	0.06717
1712.64408	0.06954
1711.35831	0.07191
1710.07254	0.07423
1708.78677	0.07648
1707.50100	0.07869
1706.21523	0.08096
1704.92946	0.08334
1703.64370	0.08589
1702.35793	0.08865
1701.07216	0.09166
1699.78639	0.09495
1698.50062	0.09852
1697.21485	0.10236
1695.92908	0.10647
1694.64331	0.11078
1693.35754	0.11518
1692.07178	0.11963
1690.78601	0.12413
1689.50024	0.12874
1688.21447	0.13347
1686.92870	0.13844
1685.64293	0.14378
1684.35716	0.14952
1683.07139	0.15557
1681.78563	0.16187
1680.49986	0.16842
1679.21409	0.17527
1677.92832	0.18244
1676.64255	0.18991
1675.35678	0.19762
1674.07101	0.20550
1672.78524	0.21352
1671.49947	0.22169
1670.21371	0.23006
1668.92794	0.23857
1667.64217	0.24702
1666.35640	0.25528
1665.07063	0.26331
1663.78486	0.27114
1662.49909	0.27874
1661.21332	0.28597
1659.92756	0.29269
1658.64179	0.29876
1657.35602	0.30416
1656.07025	0.30900
1654.78448	0.31348
1653.49871	0.31776
1652.21294	0.32174
1650.92717	0.32517
1649.64140	0.32799
1648.35564	0.33036
1647.06987	0.33256
1645.78410	0.33472
1644.49833	0.33683
1643.21256	0.33884
1641.92679	0.34073
1640.64102	0.34245
1639.35525	0.34393
1638.06949	0.34514
1636.78372	0.34612
1635.49795	0.34694
1634.21218	0.34749
1632.92641	0.34757
1631.64064	0.34692
1630.35487	0.34535
1629.06910	0.34276
1627.78333	0.33912
1626.49757	0.33441
1625.21180	0.32866
1623.92603	0.32195
1622.64026	0.31445
1621.35449	0.30632
1620.06872	0.29773
1618.78295	0.28880
1617.49718	0.27969
1616.21142	0.27058
1614.92565	0.26158
1613.63988	0.25266
1612.35411	0.24375
1611.06834	0.23487
1609.78257	0.22615
1608.49680	0.21775
1607.21103	0.20973
1605.92526	0.20206
1604.63950	0.19473
1603.35373	0.18780
1602.06796	0.18132
1600.78219	0.17533
1599.49642	0.16985
1598.21065	0.16484
1596.92488	0.16028
1595.63911	0.15613
1594.35335	0.15236
1593.06758	0.14901
1591.78181	0.14613
1590.49604	0.14376
1589.21027	0.14190
1587.92450	0.14050
1586.63873	0.13952
1585.35296	0.13890
1584.06719	0.13865
1582.78143	0.13877
1581.49566	0.13930
1580.20989	0.14025
1578.92412	0.14169
1577.63835	0.14369
1576.35258	0.14626
1575.06681	0.14933
1573.78104	0.15271
1572.49528	0.15633
1571.20951	0.16021
1569.92374	0.16446
1568.63797	0.16910
1567.35220	0.17406
1566.06643	0.17923
1564.78066	0.18449
1563.49489	0.18975
1562.20912	0.19495
1560.92336	0.20013
1559.63759	0.20533
1558.35182	0.21050
1557.06605	0.21548
1555.78028	0.22015
1554.49451	0.22450
1553.20874	0.22850
1551.92297	0.23212
1550.63721	0.23529
1549.35144	0.23801
1548.06567	0.24028
1546.77990	0.24216
1545.49413	0.24366
1544.20836	0.24482
1542.92259	0.24560
1541.63682	0.24600
1540.35105	0.24608
1539.06529	0.24589
1537.77952	0.24545
1536.49375	0.24474
1535.20798	0.24374
1533.92221	0.24246
1532.63644	0.24093
1531.35067	0.23918
1530.06490	0.23721
1528.77914	0.23502
1527.49337	0.23262
1526.20760	0.23005
1524.92183	0.22739
1523.63606	0.22466
1522.35029	0.22191
1521.06452	0.21916
1519.77875	0.21638
1518.49298	0.21352
1517.20722	0.21043
1515.92145	0.20697
1514.63568	0.20305
1513.34991	0.19871
1512.06414	0.19405
1510.77837	0.18920
1509.49260	0.18420
1508.20683	0.17908
1506.92107	0.17392
1505.63530	0.16884
1504.34953	0.16392
1503.06376	0.15915
1501.77799	0.15450
1500.49222	0.14996
1499.20645	0.14552
1497.92068	0.14120
1496.63491	0.13699
1495.34915	0.13292
1494.06338	0.12904
1492.77761	0.12540
1491.49184	0.12205
1490.20607	0.11908
1488.92030	0.11654
1487.63453	0.11448
1486.34876	0.11288
1485.06299	0.11172
1483.77723	0.11099
1482.49146	0.11070
1481.20569	0.11084
1479.91992	0.11140
1478.63415	0.11238
1477.34838	0.11381
1476.06261	0.11574
1474.77684	0.11821
1473.49108	0.12117
1472.20531	0.12445
1470.91954	0.12787
1469.63377	0.13127
1468.34800	0.13457
1467.06223	0.13778
1465.77646	0.14095
1464.49069	0.14410
1463.20492	0.14720
1461.91916	0.15016
1460.63339	0.15296
1459.34762	0.15567
1458.06185	0.15839
1456.77608	0.16113
1455.49031	0.16369
1454.20454	0.16581
1452.91877	0.16728
1451.63301	0.16808
1450.34724	0.16831
1449.06147	0.16808
1447.77570	0.16748
1446.48993	0.16658
1445.20416	0.16541
1443.91839	0.16401
1442.63262	0.16244
1441.34685	0.16072
1440.06109	0.15881
1438.77532	0.15665
1437.48955	0.15426
1436.20378	0.15172
1434.91801	0.14911
1433.63224	0.14650
1432.34647	0.14398
1431.06070	0.14163
1429.77494	0.13958
1428.48917	0.13787
1427.20340	0.13647
1425.91763	0.13534
1424.63186	0.13444
1423.34609	0.13372
1422.06032	0.13316
1420.77455	0.13278
1419.48878	0.13259
1418.20302	0.13259
1416.91725	0.13276
1415.63148	0.13306
1414.34571	0.13349
1413.05994	0.13399
1411.77417	0.13445
1410.48840	0.13476
1409.20263	0.13487
1407.91687	0.13479
1406.63110	0.13457
1405.34533	0.13419
1404.05956	0.13364
1402.77379	0.13291
1401.48802	0.13199
1400.20225	0.13091
1398.91648	0.12972
1397.63071	0.12851
1396.34495	0.12740
1395.05918	0.12647
1393.77341	0.12570
1392.48764	0.12505
1391.20187	0.12446
1389.91610	0.12391
1388.63033	0.12341
1387.34456	0.12297
1386.05880	0.12256
1384.77303	0.12214
1383.48726	0.12171
1382.20149	0.12128
1380.91572	0.12088
1379.62995	0.12048
1378.34418	0.12001
1377.05841	0.11938
1375.77264	0.11855
1374.48688	0.11757
1373.20111	0.11653
1371.91534	0.11549
1370.62957	0.11441
1369.34380	0.11323
1368.05803	0.11190
1366.77226	0.11049
1365.48649	0.10910
1364.20073	0.10789
1362.91496	0.10690
1361.62919	0.10615
1360.34342	0.10560
1359.05765	0.10528
1357.77188	0.10521
1356.48611	0.10542
1355.20034	0.10594
1353.91457	0.10676
1352.62881	0.10784
1351.34304	0.10913
1350.05727	0.11055
1348.77150	0.11207
1347.48573	0.11362
1346.19996	0.11519
1344.91419	0.11678
1343.62842	0.11833
1342.34266	0.11978
1341.05689	0.12104
1339.77112	0.12202
1338.48535	0.12267
1337.19958	0.12298
1335.91381	0.12292
1334.62804	0.12251
1333.34227	0.12177
1332.05650	0.12076
1330.77074	0.11956
1329.48497	0.11825
1328.19920	0.11687
1326.91343	0.11550
1325.62766	0.11420
1324.34189	0.11301
1323.05612	0.11199
1321.77035	0.11116
1320.48459	0.11055
1319.19882	0.11012
1317.91305	0.10981
1316.62728	0.10954
1315.34151	0.10928
1314.05574	0.10900
1312.76997	0.10868
1311.48420	0.10831
1310.19843	0.10790
1308.91267	0.10745
1307.62690	0.10701
1306.34113	0.10664
1305.05536	0.10640
1303.76959	0.10629
1302.48382	0.10624
1301.19805	0.10623
1299.91228	0.10625
1298.62652	0.10631
1297.34075	0.10644
1296.05498	0.10668
1294.76921	0.10706
1293.48344	0.10762
1292.19767	0.10833
1290.91190	0.10916
1289.62613	0.11006
1288.34036	0.11101
1287.05460	0.11199
1285.76883	0.11297
1284.48306	0.11391
1283.19729	0.11474
1281.91152	0.11544
1280.62575	0.11596
1279.33998	0.11632
1278.05421	0.11655
1276.76845	0.11669
1275.48268	0.11682
1274.19691	0.11701
1272.91114	0.11729
1271.62537	0.11764
1270.33960	0.11804
1269.05383	0.11851
1267.76806	0.11907
1266.48229	0.11973
1265.19653	0.12047
1263.91076	0.12130
1262.62499	0.12222
1261.33922	0.12322
1260.05345	0.12428
1258.76768	0.12535
1257.48191	0.12639
1256.19614	0.12747
1254.91037	0.12868
1253.62461	0.13009
1252.33884	0.13168
1251.05307	0.13341
1249.76730	0.13524
1248.48153	0.13714
1247.19576	0.13906
1245.90999	0.14098
1244.62422	0.14286
1243.33846	0.14466
1242.05269	0.14630
1240.76692	0.14770
1239.48115	0.14881
1238.19538	0.14962
1236.90961	0.15014
1235.62384	0.15036
1234.33807	0.15029
1233.05230	0.14993
1231.76654	0.14926
1230.48077	0.14826
1229.19500	0.14690
1227.90923	0.14517
1226.62346	0.14308
1225.33769	0.14071
1224.05192	0.13818
1222.76615	0.13562
1221.48039	0.13315
1220.19462	0.13081
1218.90885	0.12867
1217.62308	0.12679
1216.33731	0.12526
1215.05154	0.12415
1213.76577	0.12352
1212.48000	0.12332
1211.19423	0.12346
1209.90847	0.12377
1208.62270	0.12415
1207.33693	0.12452
1206.05116	0.12485
1204.76539	0.12507
1203.47962	0.12505
1202.19385	0.12465
1200.90808	0.12386
1199.62232	0.12272
1198.33655	0.12122
1197.05078	0.11953
1195.76501	0.11776
1194.47924	0.11599
1193.19347	0.11427
1191.90770	0.11260
1190.62193	0.11104
1189.33616	0.10963
1188.05040	0.10839
1186.76463	0.10728
1185.47886	0.10625
1184.19309	0.10529
1182.90732	0.10439
1181.62155	0.10357
1180.33578	0.10288
1179.05001	0.10237
1177.76425	0.10202
1176.47848	0.10180
1175.19271	0.10161
1173.90694	0.10144
1172.62117	0.10130
1171.33540	0.10121
1170.04963	0.10120
1168.76386	0.10124
1167.47809	0.10131
1166.19233	0.10137
1164.90656	0.10144
1163.62079	0.10146
1162.33502	0.10136
1161.04925	0.10110
1159.76348	0.10067
1158.47771	0.10007
1157.19194	0.09929
1155.90618	0.09834
1154.62041	0.09726
1153.33464	0.09611
1152.04887	0.09492
1150.76310	0.09372
1149.47733	0.09253
1148.19156	0.09139
1146.90579	0.09036
1145.62002	0.08949
1144.33426	0.08873
1143.04849	0.08802
1141.76272	0.08733
1140.47695	0.08666
1139.19118	0.08606
1137.90541	0.08551
1136.61964	0.08501
1135.33387	0.08457
1134.04811	0.08424
1132.76234	0.08404
1131.47657	0.08389
1130.19080	0.08376
1128.90503	0.08363
1127.61926	0.08354
1126.33349	0.08350
1125.04772	0.08349
1123.76195	0.08348
1122.47619	0.08352
1121.19042	0.08361
1119.90465	0.08372
1118.61888	0.08384
1117.33311	0.08399
1116.04734	0.08422
1114.76157	0.08456
1113.47580	0.08494
1112.19004	0.08526
1110.90427	0.08553
1109.61850	0.08583
1108.33273	0.08621
1107.04696	0.08664
1105.76119	0.08709
1104.47542	0.08757
1103.18965	0.08813
1101.90388	0.08877
1100.61812	0.08943
1099.33235	0.09004
1098.04658	0.09061
1096.76081	0.09117
1095.47504	0.09181
1094.18927	0.09256
1092.90350	0.09345
1091.61773	0.09447
1090.33197	0.09559
1089.04620	0.09681
1087.76043	0.09815
1086.47466	0.09961
1085.18889	0.10106
1083.90312	0.10231
1082.61735	0.10324
1081.33158	0.10379
1080.04581	0.10396
1078.76005	0.10376
1077.47428	0.10320
1076.18851	0.10236
1074.90274	0.10143
1073.61697	0.10059
1072.33120	0.09992
1071.04543	0.09938
1069.75966	0.09893
1068.47390	0.09857
1067.18813	0.09833
1065.90236	0.09817
1064.61659	0.09800
1063.33082	0.09777
1062.04505	0.09738
1060.75928	0.09684
1059.47351	0.09620
1058.18774	0.09559
1056.90198	0.09504
1055.61621	0.09448
1054.33044	0.09387
1053.04467	0.09321
1051.75890	0.09256
1050.47313	0.09194
1049.18736	0.09140
1047.90159	0.09099
1046.61583	0.09072
1045.33006	0.09050
1044.04429	0.09025
1042.75852	0.09000
1041.47275	0.08986
1040.18698	0.08994
1038.90121	0.09026
1037.61544	0.09074
1036.32967	0.09129
1035.04391	0.09185
1033.75814	0.09236
1032.47237	0.09271
1031.18660	0.09277
1029.90083	0.09243
1028.61506	0.09170
1027.32929	0.09068
1026.04352	0.08949
1024.75775	0.08820
1023.47199	0.08688
1022.18622	0.08562
1020.90045	0.08447
1019.61468	0.08345
1018.32891	0.08257
1017.04314	0.08177
1015.75737	0.08104
1014.47160	0.08030
1013.18584	0.07951
1011.90007	0.07863
1010.61430	0.07766
1009.32853	0.07665
1008.04276	0.07568
1006.75699	0.07479
1005.47122	0.07397
1004.18545	0.07314
1002.89968	0.07226
1001.61392	0.07132
1000.32815	0.07037
999.04238	0.06943
997.75661	0.06857
996.47084	0.06783
995.18507	0.06721
993.89930	0.06667
992.61353	0.06612
991.32777	0.06553
990.04200	0.06494
988.75623	0.06443
987.47046	0.06409
986.18469	0.06392
984.89892	0.06383
983.61315	0.06374
982.32738	0.06364
981.04161	0.06364
979.75585	0.06387
978.47008	0.06431
977.18431	0.06485
975.89854	0.06529
974.61277	0.06552
973.32700	0.06554
972.04123	0.06544
970.75546	0.06529
969.46970	0.06507
968.18393	0.06477
966.89816	0.06442
965.61239	0.06409
964.32662	0.06382
963.04085	0.06366
961.75508	0.06357
960.46931	0.06348
959.18354	0.06334
957.89778	0.06312
956.61201	0.06289
955.32624	0.06271
954.04047	0.06256
952.75470	0.06240
951.46893	0.06225
950.18316	0.06217
948.89739	0.06219
947.61163	0.06231
946.32586	0.06248
945.04009	0.06266
943.75432	0.06283
942.46855	0.06295
941.18278	0.06300
939.89701	0.06296
938.61124	0.06284
937.32547	0.06265
936.03971	0.06239
934.75394	0.06209
933.46817	0.06177
932.18240	0.06143
930.89663	0.06109
929.61086	0.06076
928.32509	0.06046
927.03932	0.06020
925.75356	0.05998
924.46779	0.05976
923.18202	0.05952
921.89625	0.05924
920.61048	0.05892
919.32471	0.05857
918.03894	0.05814
916.75317	0.05760
915.46740	0.05694
914.18164	0.05624
912.89587	0.05562
911.61010	0.05516
910.32433	0.05484
909.03856	0.05460
907.75279	0.05439
906.46702	0.05419
905.18125	0.05400
903.89549	0.05379
902.60972	0.05354
901.32395	0.05325
900.03818	0.05294
898.75241	0.05261
897.46664	0.05222
896.18087	0.05179
894.89510	0.05140
893.60933	0.05114
892.32357	0.05103
891.03780	0.05105
889.75203	0.05115
888.46626	0.05130
887.18049	0.05144
885.89472	0.05157
884.60895	0.05169
883.32318	0.05179
882.03742	0.05183
880.75165	0.05179
879.46588	0.05174
878.18011	0.05179
876.89434	0.05199
875.60857	0.05228
874.32280	0.05248
873.03703	0.05244
871.75126	0.05218
870.46550	0.05186
869.17973	0.05163
867.89396	0.05149
866.60819	0.05136
865.32242	0.05117
864.03665	0.05097
862.75088	0.05084
861.46511	0.05078
860.17935	0.05071
858.89358	0.05059
857.60781	0.05042
856.32204	0.05023
855.03627	0.05005
853.75050	0.04991
852.46473	0.04982
851.17896	0.04976
849.89319	0.04965
848.60743	0.04944
847.32166	0.04915
846.03589	0.04882
844.75012	0.04852
843.46435	0.04828
842.17858	0.04810
840.89281	0.04793
839.60704	0.04775
838.32128	0.04751
837.03551	0.04727
835.74974	0.04708
834.46397	0.04702
833.17820	0.04708
831.89243	0.04720
830.60666	0.04734
829.32089	0.04748
828.03512	0.04765
826.74936	0.04786
825.46359	0.04813
824.17782	0.04842
822.89205	0.04873
821.60628	0.04907
820.32051	0.04946
819.03474	0.04988
817.74897	0.05022
816.46321	0.05040
815.17744	0.05045
813.89167	0.05049
812.60590	0.05062
811.32013	0.05086
810.03436	0.05113
808.74859	0.05140
807.46282	0.05166
806.17705	0.05191
804.89129	0.05211
803.60552	0.05225
802.31975	0.05236
801.03398	0.05251
799.74821	0.05270
798.46244	0.05293
797.17667	0.05317
795.89090	0.05340
794.60513	0.05359
793.31937	0.05378
792.03360	0.05397
790.74783	0.05416
789.46206	0.05434
788.17629	0.05449
786.89052	0.05464
785.60475	0.05479
784.31898	0.05494
783.03322	0.05505
781.74745	0.05513
780.46168	0.05523
779.17591	0.05536
777.89014	0.05553
776.60437	0.05573
775.31860	0.05593
774.03283	0.05611
772.74706	0.05627
771.46130	0.05643
770.17553	0.05657
768.88976	0.05672
767.60399	0.05692
766.31822	0.05723
765.03245	0.05760
763.74668	0.05800
762.46091	0.05837
761.17515	0.05870
759.88938	0.05897
758.60361	0.05916
757.31784	0.05933
756.03207	0.05953
754.74630	0.05979
753.46053	0.06010
752.17476	0.06043
750.88899	0.06077
749.60323	0.06112
748.31746	0.06150
747.03169	0.06195
745.74592	0.06250
744.46015	0.06309
743.17438	0.06358
741.88861	0.06386
740.60284	0.06400
739.31708	0.06418
738.03131	0.06455
736.74554	0.06507
735.45977	0.06560
734.17400	0.06604
732.88823	0.06641
731.60246	0.06682
730.31669	0.06737
729.03092	0.06804
727.74516	0.06874
726.45939	0.06938
725.17362	0.06994
723.88785	0.07040
722.60208	0.07095
721.31631	0.07151
720.03054	0.07197
718.74477	0.07231
717.45901	0.07255
716.17324	0.07273
714.88747	0.07289
713.60170	0.07306
712.31593	0.07326
711.03016	0.07350
709.74439	0.07378
708.45862	0.07410
707.17285	0.07448
705.88709	0.07490
704.60132	0.07535
703.31555	0.07577
702.02978	0.07610
700.74401	0.07637
699.45824	0.07662
698.17247	0.07687
696.88670	0.07712
695.60094	0.07733
694.31517	0.07748
693.02940	0.07759
691.74363	0.07770
690.45786	0.07786
689.17209	0.07809
687.88632	0.07835
686.60055	0.07860
685.31478	0.07881
684.02902	0.07899
682.74325	0.07917
681.45748	0.07938
680.17171	0.07961
678.88594	0.07990
677.60017	0.08025
676.31440	0.08065
675.02863	0.08100
673.74287	0.08123
672.45710	0.08136
671.17133	0.08149
669.88556	0.08169
668.59979	0.08192
667.31402	0.08208
666.02825	0.08231
664.74248	0.08251
663.45671	0.08269
662.17095	0.08288
660.88518	0.08308
659.59941	0.08333
658.31364	0.08358
657.02787	0.08377
655.74210	0.08387
654.45633	0.08393
653.17056	0.08400
651.88480	0.08408
650.59903	0.08416
649.31326	0.08420
648.02749	0.08424
646.74172	0.08430
645.45595	0.08441
644.17018	0.08454
642.88441	0.08467
641.59864	0.08476
640.31288	0.08480
639.02711	0.08481
637.74134	0.08485
636.45557	0.08491
635.16980	0.08499
633.88403	0.08509
632.59826	0.08523
631.31249	0.08536
630.02673	0.08523
628.74096	0.08484
627.45519	0.08492
626.16942	0.08392
624.88365	0.08223
623.59788	0.08073
622.31211	0.07982
621.02634	0.07951
619.74057	0.07987
618.45481	0.08105
617.16904	0.08267
615.88327	0.08384
614.59750	0.08402
613.31173	0.08347
612.02596	0.08284
610.74019	0.08252
609.45442	0.08260
608.16866	0.08310
606.88289	0.08377
605.59712	0.08410
604.31135	0.08381
603.02558	0.08331
601.73981	0.08327
600.45404	0.08382
599.16827	0.08455
597.88250	0.08504
596.59674	0.08518
595.31097	0.08517
594.02520	0.08518
592.73943	0.08527
591.45366	0.08539
590.16789	0.08549
588.88212	0.08562
587.59635	0.08583
586.31059	0.08611
585.02482	0.08635
583.73905	0.08648
582.45328	0.08651
581.16751	0.08646
579.88174	0.08637
578.59597	0.08623
577.31020	0.08609
576.02443	0.08604
574.73867	0.08611
573.45290	0.08625
572.16713	0.08634
570.88136	0.08641
569.59559	0.08657
568.30982	0.08691
567.02405	0.08734
565.73828	0.08772
564.45251	0.08796
563.16675	0.08814
561.88098	0.08832
560.59521	0.08850
559.30944	0.08861
558.02367	0.08860
556.73790	0.08849
555.45213	0.08832
554.16636	0.08820
552.88060	0.08820
551.59483	0.08831
550.30906	0.08845
549.02329	0.08851
547.73752	0.08845
546.45175	0.08829
545.16598	0.08809
543.88021	0.08785
542.59444	0.08758
541.30868	0.08724
540.02291	0.08690
538.73714	0.08667
537.45137	0.08666
536.16560	0.08685
534.87983	0.08709
533.59406	0.08726
532.30829	0.08730
531.02253	0.08728
529.73676	0.08726
528.45099	0.08729
527.16522	0.08734
525.87945	0.08730
524.59368	0.08704
523.30791	0.08657
522.02214	0.08604
520.73637	0.08561
519.45061	0.08526
518.16484	0.08488
516.87907	0.08437
515.59330	0.08382
514.30753	0.08336
513.02176	0.08305
511.73599	0.08279
510.45022	0.08247
509.16446	0.08204
507.87869	0.08149
506.59292	0.08089
505.30715	0.08031
504.02138	0.07980
502.73561	0.07934
501.44984	0.07889
500.16407	0.07844
498.87830	0.07806
497.59254	0.07776
496.30677	0.07752
495.02100	0.07724
493.73523	0.07687
492.44946	0.07640
491.16369	0.07591
489.87792	0.07550
488.59215	0.07520
487.30639	0.07500
486.02062	0.07483
484.73485	0.07468
483.44908	0.07458
482.16331	0.07455
480.87754	0.07456
479.59177	0.07455
478.30600	0.07445
477.02023	0.07424
475.73447	0.07397
474.44870	0.07368
473.16293	0.07337
471.87716	0.07301
470.59139	0.07263
469.30562	0.07230
468.01985	0.07209
466.73408	0.07195
465.44832	0.07176
464.16255	0.07141
462.87678	0.07093
461.59101	0.07038
460.30524	0.06981
459.01947	0.06925
457.73370	0.06870
456.44793	0.06817
455.16216	0.06769
453.87640	0.06721
452.59063	0.06672
451.30486	0.06622
450.01909	0.06576
448.73332	0.06535
447.44755	0.06494
446.16178	0.06449
444.87601	0.06403
443.59025	0.06364
442.30448	0.06335
441.01871	0.06308
439.73294	0.06277
438.44717	0.06241
437.16140	0.06205
435.87563	0.06167
434.58986	0.06127
433.30409	0.06087
432.01833	0.06053
430.73256	0.06027
429.44679	0.06003
428.16102	0.05975
426.87525	0.05939
425.58948	0.05896
424.30371	0.05851
423.01794	0.05804
421.73218	0.05758
420.44641	0.05713
419.16064	0.05673
417.87487	0.05642
416.58910	0.05620
415.30333	0.05603
414.01756	0.05588
412.73179	0.05571
411.44602	0.05550
410.16026	0.05519
408.87449	0.05478
407.58872	0.05433
406.30295	0.05393
405.01718	0.05361
403.73141	0.05338
402.44564	0.05319
401.15987	0.05301
399.87411	0.05282
