3997.45528	0.06626
3996.16951	0.06547
3994.88374	0.06482
3993.59798	0.06460
3992.31221	0.06483
3991.02644	0.06516
3989.74067	0.06518
3988.45490	0.06493
3987.16913	0.06472
3985.88336	0.06467
3984.59759	0.06460
3983.31183	0.06433
3982.02606	0.06390
3980.74029	0.06349
3979.45452	0.06324
3978.16875	0.06331
3976.88298	0.06373
3975.59721	0.06434
3974.31144	0.06481
3973.02567	0.06499
3971.73991	0.06490
3970.45414	0.06461
3969.16837	0.06424
3967.88260	0.06401
3966.59683	0.06407
3965.31106	0.06433
3964.02529	0.06457
3962.73952	0.06464
3961.45376	0.06448
3960.16799	0.06412
3958.88222	0.06366
3957.59645	0.06333
3956.31068	0.06324
3955.02491	0.06325
3953.73914	0.06315
3952.45337	0.06298
3951.16760	0.06293
3949.88184	0.06296
3948.59607	0.06272
3947.31030	0.06205
3946.02453	0.06126
3944.73876	0.06079
3943.45299	0.06068
3942.16722	0.06063
3940.88145	0.06046
3939.59569	0.06040
3938.30992	0.06073
3937.02415	0.06138
3935.73838	0.06201
3934.45261	0.06232
3933.16684	0.06223
3931.88107	0.06182
3930.59530	0.06125
3929.30953	0.06071
3928.02377	0.06034
3926.73800	0.06022
3925.45223	0.06035
3924.16646	0.06067
3922.88069	0.06110
3921.59492	0.06149
3920.30915	0.06161
3919.02338	0.06125
3917.73762	0.06039
3916.45185	0.05937
3915.16608	0.05872
3913.88031	0.05878
3912.59454	0.05939
3911.30877	0.06010
3910.02300	0.06052
3908.73723	0.06048
3907.45146	0.06004
3906.16570	0.05948
3904.87993	0.05917
3903.59416	0.05931
3902.30839	0.05975
3901.02262	0.06017
3899.73685	0.06032
3898.45108	0.06018
3897.16531	0.05992
3895.87955	0.05974
3894.59378	0.05975
3893.30801	0.05991
3892.02224	0.06003
3890.73647	0.05994
3889.45070	0.05980
3888.16493	0.05991
3886.87916	0.06015
3885.59339	0.06002
3884.30763	0.05950
3883.02186	0.05922
3881.73609	0.05966
3880.45032	0.06036
3879.16455	0.06054
3877.87878	0.06002
3876.59301	0.05931
3875.30724	0.05887
3874.02148	0.05871
3872.73571	0.05878
3871.44994	0.05919
3870.16417	0.05992
3868.87840	0.06073
3867.59263	0.06136
3866.30686	0.06164
3865.02109	0.06147
3863.73532	0.06100
3862.44956	0.06051
3861.16379	0.06003
3859.87802	0.05933
3858.59225	0.05839
3857.30648	0.05764
3856.02071	0.05755
3854.73494	0.05805
3853.44917	0.05855
3852.16341	0.05873
3850.87764	0.05881
3849.59187	0.05895
3848.30610	0.05904
3847.02033	0.05893
3845.73456	0.05872
3844.44879	0.05854
3843.16302	0.05841
3841.87725	0.05831
3840.59149	0.05836
3839.30572	0.05855
3838.01995	0.05851
3836.73418	0.05797
3835.44841	0.05718
3834.16264	0.05674
3832.87687	0.05692
3831.59110	0.05742
3830.30534	0.05776
3829.01957	0.05763
3827.73380	0.05706
3826.44803	0.05639
3825.16226	0.05615
3823.87649	0.05672
3822.59072	0.05782
3821.30495	0.05866
3820.01918	0.05876
3818.73342	0.05848
3817.44765	0.05832
3816.16188	0.05821
3814.87611	0.05786
3813.59034	0.05730
3812.30457	0.05674
3811.01880	0.05628
3809.73303	0.05597
3808.44726	0.05586
3807.16150	0.05570
3805.87573	0.05533
3804.58996	0.05507
3803.30419	0.05527
3802.01842	0.05579
3800.73265	0.05614
3799.44688	0.05623
3798.16111	0.05624
3796.87535	0.05615
3795.58958	0.05589
3794.30381	0.05568
3793.01804	0.05573
3791.73227	0.05593
3790.44650	0.05600
3789.16073	0.05582
3787.87496	0.05555
3786.58919	0.05542
3785.30343	0.05546
3784.01766	0.05558
3782.73189	0.05571
3781.44612	0.05588
3780.16035	0.05599
3778.87458	0.05586
3777.58881	0.05542
3776.30304	0.05488
3775.01728	0.05458
3773.73151	0.05465
3772.44574	0.05501
3771.15997	0.05537
3769.87420	0.05550
3768.58843	0.05550
3767.30266	0.05564
3766.01689	0.05591
3764.73112	0.05606
3763.44536	0.05587
3762.15959	0.05539
3760.87382	0.05475
3759.58805	0.05408
3758.30228	0.05357
3757.01651	0.05330
3755.73074	0.05329
3754.44497	0.05353
3753.15921	0.05390
3751.87344	0.05414
3750.58767	0.05414
3749.30190	0.05395
3748.01613	0.05383
3746.73036	0.05412
3745.44459	0.05465
3744.15882	0.05474
3742.87305	0.05423
3741.58729	0.05372
3740.30152	0.05356
3739.01575	0.05356
3737.72998	0.05343
3736.44421	0.05310
3735.15844	0.05274
3733.87267	0.05268
3732.58690	0.05309
3731.30114	0.05373
3730.01537	0.05429
3728.72960	0.05463
3727.44383	0.05464
3726.15806	0.05425
3724.87229	0.05359
3723.58652	0.05290
3722.30075	0.05225
3721.01498	0.05163
3719.72922	0.05104
3718.44345	0.05058
3717.15768	0.05033
3715.87191	0.05034
3714.58614	0.05057
3713.30037	0.05081
3712.01460	0.05091
3710.72883	0.05098
3709.44307	0.05127
3708.15730	0.05177
3706.87153	0.05219
3705.58576	0.05228
3704.29999	0.05212
3703.01422	0.05189
3701.72845	0.05158
3700.44268	0.05115
3699.15691	0.05077
3697.87115	0.05073
3696.58538	0.05115
3695.29961	0.05188
3694.01384	0.05255
3692.72807	0.05276
3691.44230	0.05241
3690.15653	0.05184
3688.87076	0.05132
3687.58500	0.05079
3686.29923	0.05019
3685.01346	0.04967
3683.72769	0.04954
3682.44192	0.05001
3681.15615	0.05090
3679.87038	0.05174
3678.58461	0.05223
3677.29884	0.05244
3676.01308	0.05247
3674.72731	0.05239
3673.44154	0.05253
3672.15577	0.05315
3670.87000	0.05394
3669.58423	0.05427
3668.29846	0.05400
3667.01269	0.05342
3665.72693	0.05284
3664.44116	0.05248
3663.15539	0.05245
3661.86962	0.05276
3660.58385	0.05328
3659.29808	0.05379
3658.01231	0.05406
3656.72654	0.05383
3655.44077	0.05320
3654.15501	0.05277
3652.86924	0.05317
3651.58347	0.05426
3650.29770	0.05529
3649.01193	0.05567
3647.72616	0.05551
3646.44039	0.05521
3645.15462	0.05510
3643.86886	0.05531
3642.58309	0.05588
3641.29732	0.05669
3640.01155	0.05742
3638.72578	0.05787
3637.44001	0.05824
3636.15424	0.05884
3634.86847	0.05957
3633.58270	0.05994
3632.29694	0.05978
3631.01117	0.05954
3629.72540	0.05969
3628.43963	0.06024
3627.15386	0.06088
3625.86809	0.06136
3624.58232	0.06161
3623.29655	0.06179
3622.01079	0.06222
3620.72502	0.06302
3619.43925	0.06388
3618.15348	0.06438
3616.86771	0.06446
3615.58194	0.06446
3614.29617	0.06474
3613.01040	0.06541
3611.72463	0.06640
3610.43887	0.06754
3609.15310	0.06871
3607.86733	0.06983
3606.58156	0.07093
3605.29579	0.07200
3604.01002	0.07291
3602.72425	0.07341
3601.43848	0.07343
3600.15272	0.07313
3598.86695	0.07296
3597.58118	0.07320
3596.29541	0.07380
3595.00964	0.07449
3593.72387	0.07516
3592.43810	0.07585
3591.15233	0.07669
3589.86656	0.07763
3588.58080	0.07829
3587.29503	0.07829
3586.00926	0.07778
3584.72349	0.07744
3583.43772	0.07784
3582.15195	0.07898
3580.86618	0.08041
3579.58041	0.08170
3578.29464	0.08276
3577.00888	0.08373
3575.72311	0.08472
3574.43734	0.08573
3573.15157	0.08661
3571.86580	0.08731
3570.58003	0.08787
3569.29426	0.08839
3568.00849	0.08889
3566.72273	0.08940
3565.43696	0.09002
3564.15119	0.09074
3562.86542	0.09130
3561.57965	0.09146
3560.29388	0.09134
3559.00811	0.09140
3557.72234	0.09199
3556.43657	0.09309
3555.15081	0.09432
3553.86504	0.09532
3552.57927	0.09598
3551.29350	0.09651
3550.00773	0.09722
3548.72196	0.09823
3547.43619	0.09935
3546.15042	0.10031
3544.86466	0.10097
3543.57889	0.10146
3542.29312	0.10198
3541.00735	0.10265
3539.72158	0.10344
3538.43581	0.10423
3537.15004	0.10491
3535.86427	0.10554
3534.57850	0.10628
3533.29274	0.10722
3532.00697	0.10836
3530.72120	0.10958
3529.43543	0.11083
3528.14966	0.11210
3526.86389	0.11329
3525.57812	0.11430
3524.29235	0.11508
3523.00659	0.11576
3521.72082	0.11643
3520.43505	0.11707
3519.14928	0.11757
3517.86351	0.11795
3516.57774	0.11835
3515.29197	0.11881
3514.00620	0.11918
3512.72043	0.11933
3511.43467	0.11935
3510.14890	0.11946
3508.86313	0.11980
3507.57736	0.12039
3506.29159	0.12106
3505.00582	0.12164
3503.72005	0.12210
3502.43428	0.12258
3501.14852	0.12317
3499.86275	0.12382
3498.57698	0.12442
3497.29121	0.12498
3496.00544	0.12566
3494.71967	0.12661
3493.43390	0.12777
3492.14813	0.12885
3490.86236	0.12955
3489.57660	0.12981
3488.29083	0.12983
3487.00506	0.12993
3485.71929	0.13034
3484.43352	0.13105
3483.14775	0.13191
3481.86198	0.13272
3480.57621	0.13343
3479.29045	0.13415
3478.00468	0.13498
3476.71891	0.13584
3475.43314	0.13650
3474.14737	0.13680
3472.86160	0.13682
3471.57583	0.13688
3470.29006	0.13723
3469.00429	0.13791
3467.71853	0.13869
3466.43276	0.13935
3465.14699	0.13981
3463.86122	0.14015
3462.57545	0.14048
3461.28968	0.14089
3460.00391	0.14144
3458.71814	0.14215
3457.43238	0.14294
3456.14661	0.14362
3454.86084	0.14403
3453.57507	0.14417
3452.28930	0.14422
3451.00353	0.14452
3449.71776	0.14531
3448.43199	0.14652
3447.14622	0.14776
3445.86046	0.14855
3444.57469	0.14874
3443.28892	0.14862
3442.00315	0.14860
3440.71738	0.14874
3439.43161	0.14883
3438.14584	0.14879
3436.86007	0.14890
3435.57431	0.14946
3434.28854	0.15037
3433.00277	0.15131
3431.71700	0.15213
3430.43123	0.15292
3429.14546	0.15376
3427.85969	0.15452
3426.57392	0.15506
3425.28815	0.15534
3424.00239	0.15549
3422.71662	0.15563
3421.43085	0.15585
3420.14508	0.15619
3418.85931	0.15662
3417.57354	0.15710
3416.28777	0.15755
3415.00200	0.15796
3413.71624	0.15831
3412.43047	0.15862
3411.14470	0.15895
3409.85893	0.15938
3408.57316	0.15988
3407.28739	0.16041
3406.00162	0.16099
3404.71585	0.16171
3403.43008	0.16249
3402.14432	0.16311
3400.85855	0.16337
3399.57278	0.16330
3398.28701	0.16316
3397.00124	0.16317
3395.71547	0.16353
3394.42970	0.16437
3393.14393	0.16559
3391.85817	0.16681
3390.57240	0.16761
3389.28663	0.16784
3388.00086	0.16769
3386.71509	0.16755
3385.42932	0.16773
3384.14355	0.16833
3382.85778	0.16925
3381.57201	0.17035
3380.28625	0.17153
3379.00048	0.17268
3377.71471	0.17369
3376.42894	0.17441
3375.14317	0.17491
3373.85740	0.17546
3372.57163	0.17630
3371.28586	0.17736
3370.00010	0.17836
3368.71433	0.17916
3367.42856	0.17994
3366.14279	0.18095
3364.85702	0.18225
3363.57125	0.18367
3362.28548	0.18504
3360.99971	0.18636
3359.71394	0.18765
3358.42818	0.18884
3357.14241	0.18981
3355.85664	0.19058
3354.57087	0.19136
3353.28510	0.19234
3351.99933	0.19347
3350.71356	0.19465
3349.42779	0.19582
3348.14202	0.19701
3346.85626	0.19819
3345.57049	0.19931
3344.28472	0.20037
3342.99895	0.20142
3341.71318	0.20252
3340.42741	0.20364
3339.14164	0.20474
3337.85587	0.20577
3336.57011	0.20674
3335.28434	0.20773
3333.99857	0.20887
3332.71280	0.21016
3331.42703	0.21146
3330.14126	0.21255
3328.85549	0.21335
3327.56972	0.21393
3326.28395	0.21441
3324.99819	0.21484
3323.71242	0.21527
3322.42665	0.21579
3321.14088	0.21641
3319.85511	0.21708
3318.56934	0.21769
3317.28357	0.21814
3315.99780	0.21851
3314.71204	0.21905
3313.42627	0.21996
3312.14050	0.22114
3310.85473	0.22222
3309.56896	0.22287
3308.28319	0.22302
3306.99742	0.22283
3305.71165	0.22255
3304.42588	0.22233
3303.14012	0.22222
3301.85435	0.22226
3300.56858	0.22248
3299.28281	0.22291
3297.99704	0.22344
3296.71127	0.22395
3295.42550	0.22435
3294.13973	0.22467
3292.85397	0.22494
3291.56820	0.22507
3290.28243	0.22492
3288.99666	0.22449
3287.71089	0.22399
3286.42512	0.22363
3285.13935	0.22345
3283.85358	0.22327
3282.56781	0.22292
3281.28205	0.22240
3279.99628	0.22182
3278.71051	0.22132
3277.42474	0.22105
3276.13897	0.22107
3274.85320	0.22128
3273.56743	0.22137
3272.28166	0.22106
3270.99590	0.22035
3269.71013	0.21949
3268.42436	0.21875
3267.13859	0.21820
3265.85282	0.21775
3264.56705	0.21726
3263.28128	0.21664
3261.99551	0.21593
3260.70974	0.21516
3259.42398	0.21435
3258.13821	0.21345
3256.85244	0.21251
3255.56667	0.21165
3254.28090	0.21092
3252.99513	0.21027
3251.70936	0.20974
3250.42359	0.20944
3249.13783	0.20943
3247.85206	0.20954
3246.56629	0.20938
3245.28052	0.20871
3243.99475	0.20754
3242.70898	0.20617
3241.42321	0.20499
3240.13744	0.20420
3238.85167	0.20381
3237.56591	0.20367
3236.28014	0.20366
3234.99437	0.20368
3233.70860	0.20355
3232.42283	0.20306
3231.13706	0.20217
3229.85129	0.20108
3228.56552	0.20014
3227.27976	0.19947
3225.99399	0.19895
3224.70822	0.19846
3223.42245	0.19808
3222.13668	0.19789
3220.85091	0.19777
3219.56514	0.19748
3218.27937	0.19695
3216.99360	0.19638
3215.70784	0.19600
3214.42207	0.19591
3213.13630	0.19595
3211.85053	0.19585
3210.56476	0.19540
3209.27899	0.19468
3207.99322	0.19397
3206.70745	0.19349
3205.42169	0.19317
3204.13592	0.19282
3202.85015	0.19225
3201.56438	0.19142
3200.27861	0.19034
3198.99284	0.18921
3197.70707	0.18835
3196.42130	0.18800
3195.13553	0.18809
3193.84977	0.18821
3192.56400	0.18791
3191.27823	0.18707
3189.99246	0.18593
3188.70669	0.18482
3187.42092	0.18398
3186.13515	0.18343
3184.84938	0.18300
3183.56362	0.18241
3182.27785	0.18151
3180.99208	0.18041
3179.70631	0.17938
3178.42054	0.17852
3177.13477	0.17766
3175.84900	0.17665
3174.56323	0.17558
3173.27746	0.17468
3171.99170	0.17412
3170.70593	0.17382
3169.42016	0.17352
3168.13439	0.17300
3166.84862	0.17220
3165.56285	0.17124
3164.27708	0.17032
3162.99131	0.16964
3161.70555	0.16918
3160.41978	0.16875
3159.13401	0.16808
3157.84824	0.16709
3156.56247	0.16595
3155.27670	0.16487
3153.99093	0.16399
3152.70516	0.16323
3151.41939	0.16245
3150.13363	0.16152
3148.84786	0.16052
3147.56209	0.15955
3146.27632	0.15866
3144.99055	0.15779
3143.70478	0.15691
3142.41901	0.15606
3141.13324	0.15527
3139.84748	0.15459
3138.56171	0.15405
3137.27594	0.15367
3135.99017	0.15339
3134.70440	0.15316
3133.41863	0.15292
3132.13286	0.15260
3130.84709	0.15203
3129.56132	0.15113
3128.27556	0.15010
3126.98979	0.14930
3125.70402	0.14896
3124.41825	0.14904
3123.13248	0.14935
3121.84671	0.14965
3120.56094	0.14979
3119.27517	0.14974
3117.98940	0.14951
3116.70364	0.14916
3115.41787	0.14874
3114.13210	0.14829
3112.84633	0.14793
3111.56056	0.14777
3110.27479	0.14782
3108.98902	0.14799
3107.70325	0.14823
3106.41749	0.14851
3105.13172	0.14880
3103.84595	0.14903
3102.56018	0.14916
3101.27441	0.14923
3099.98864	0.14936
3098.70287	0.14969
3097.41710	0.15018
3096.13133	0.15070
3094.84557	0.15112
3093.55980	0.15147
3092.27403	0.15182
3090.98826	0.15214
3089.70249	0.15231
3088.41672	0.15226
3087.13095	0.15211
3085.84518	0.15206
3084.55942	0.15224
3083.27365	0.15255
3081.98788	0.15284
3080.70211	0.15303
3079.41634	0.15317
3078.13057	0.15337
3076.84480	0.15365
3075.55903	0.15392
3074.27326	0.15400
3072.98750	0.15382
3071.70173	0.15344
3070.41596	0.15303
3069.13019	0.15281
3067.84442	0.15286
3066.55865	0.15307
3065.27288	0.15320
3063.98711	0.15298
3062.70135	0.15233
3061.41558	0.15136
3060.12981	0.15031
3058.84404	0.14937
3057.55827	0.14859
3056.27250	0.14790
3054.98673	0.14725
3053.70096	0.14668
3052.41519	0.14627
3051.12943	0.14597
3049.84366	0.14551
3048.55789	0.14471
3047.27212	0.14369
3045.98635	0.14282
3044.70058	0.14232
3043.41481	0.14209
3042.12904	0.14185
3040.84328	0.14141
3039.55751	0.14076
3038.27174	0.13995
3036.98597	0.13902
3035.70020	0.13806
3034.41443	0.13717
3033.12866	0.13638
3031.84289	0.13563
3030.55712	0.13485
3029.27136	0.13401
3027.98559	0.13322
3026.69982	0.13259
3025.41405	0.13215
3024.12828	0.13178
3022.84251	0.13135
3021.55674	0.13082
3020.27097	0.13025
3018.98521	0.12970
3017.69944	0.12917
3016.41367	0.12860
3015.12790	0.12803
3013.84213	0.12757
3012.55636	0.12735
3011.27059	0.12729
3009.98482	0.12719
3008.69905	0.12690
3007.41329	0.12648
3006.12752	0.12611
3004.84175	0.12590
3003.55598	0.12589
3002.27021	0.12602
3000.98444	0.12623
2999.69867	0.12637
2998.41290	0.12638
2997.12714	0.12632
2995.84137	0.12635
2994.55560	0.12652
2993.26983	0.12683
2991.98406	0.12722
2990.69829	0.12767
2989.41252	0.12819
2988.12675	0.12877
2986.84098	0.12936
2985.55522	0.12989
2984.26945	0.13040
2982.98368	0.13100
2981.69791	0.13169
2980.41214	0.13237
2979.12637	0.13297
2977.84060	0.13351
2976.55483	0.13401
2975.26907	0.13440
2973.98330	0.13461
2972.69753	0.13476
2971.41176	0.13509
2970.12599	0.13575
2968.84022	0.13660
2967.55445	0.13737
2966.26868	0.13797
2964.98291	0.13851
2963.69715	0.13917
2962.41138	0.14001
2961.12561	0.14090
2959.83984	0.14165
2958.55407	0.14213
2957.26830	0.14235
2955.98253	0.14244
2954.69676	0.14251
2953.41100	0.14262
2952.12523	0.14277
2950.83946	0.14291
2949.55369	0.14297
2948.26792	0.14301
2946.98215	0.14317
2945.69638	0.14358
2944.41061	0.14424
2943.12484	0.14506
2941.83908	0.14595
2940.55331	0.14689
2939.26754	0.14791
2937.98177	0.14899
2936.69600	0.15007
2935.41023	0.15114
2934.12446	0.15223
2932.83869	0.15338
2931.55293	0.15448
2930.26716	0.15534
2928.98139	0.15588
2927.69562	0.15613
2926.40985	0.15622
2925.12408	0.15625
2923.83831	0.15620
2922.55254	0.15595
2921.26677	0.15540
2919.98101	0.15457
2918.69524	0.15353
2917.40947	0.15229
2916.12370	0.15078
2914.83793	0.14892
2913.55216	0.14675
2912.26639	0.14443
2910.98062	0.14224
2909.69486	0.14037
2908.40909	0.13881
2907.12332	0.13740
2905.83755	0.13600
2904.55178	0.13463
2903.26601	0.13337
2901.98024	0.13221
2900.69447	0.13105
2899.40870	0.12987
2898.12294	0.12881
2896.83717	0.12805
2895.55140	0.12759
2894.26563	0.12728
2892.97986	0.12694
2891.69409	0.12651
2890.40832	0.12601
2889.12255	0.12548
2887.83678	0.12497
2886.55102	0.12465
2885.26525	0.12463
2883.97948	0.12488
2882.69371	0.12520
2881.40794	0.12544
2880.12217	0.12554
2878.83640	0.12558
2877.55063	0.12563
2876.26487	0.12570
2874.97910	0.12564
2873.69333	0.12535
2872.40756	0.12483
2871.12179	0.12427
2869.83602	0.12378
2868.55025	0.12336
2867.26448	0.12294
2865.97871	0.12248
2864.69295	0.12206
2863.40718	0.12179
2862.12141	0.12175
2860.83564	0.12196
2859.54987	0.12235
2858.26410	0.12282
2856.97833	0.12329
2855.69256	0.12363
2854.40680	0.12372
2853.12103	0.12354
2851.83526	0.12309
2850.54949	0.12240
2849.26372	0.12133
2847.97795	0.11974
2846.69218	0.11770
2845.40641	0.11551
2844.12064	0.11353
2842.83488	0.11194
2841.54911	0.11070
2840.26334	0.10969
2838.97757	0.10882
2837.69180	0.10801
2836.40603	0.10719
2835.12026	0.10637
2833.83449	0.10558
2832.54873	0.10486
2831.26296	0.10426
2829.97719	0.10379
2828.69142	0.10340
2827.40565	0.10300
2826.11988	0.10260
2824.83411	0.10231
2823.54834	0.10220
2822.26257	0.10217
2820.97681	0.10196
2819.69104	0.10149
2818.40527	0.10089
2817.11950	0.10036
2815.83373	0.09996
2814.54796	0.09959
2813.26219	0.09923
2811.97642	0.09891
2810.69066	0.09867
2809.40489	0.09851
2808.11912	0.09839
2806.83335	0.09829
2805.54758	0.09815
2804.26181	0.09793
2802.97604	0.09756
2801.69027	0.09704
2800.40450	0.09651
2799.11874	0.09608
2797.83297	0.09579
2796.54720	0.09555
2795.26143	0.09524
2793.97566	0.09489
2792.68989	0.09461
2791.40412	0.09443
2790.11835	0.09431
2788.83259	0.09419
2787.54682	0.09409
2786.26105	0.09403
2784.97528	0.09398
2783.68951	0.09387
2782.40374	0.09367
2781.11797	0.09336
2779.83220	0.09292
2778.54643	0.09244
2777.26067	0.09203
2775.97490	0.09180
2774.68913	0.09168
2773.40336	0.09149
2772.11759	0.09110
2770.83182	0.09061
2769.54605	0.09022
2768.26028	0.09004
2766.97452	0.08999
2765.68875	0.08994
2764.40298	0.08981
2763.11721	0.08962
2761.83144	0.08944
2760.54567	0.08931
2759.25990	0.08917
2757.97413	0.08890
2756.68836	0.08850
2755.40260	0.08806
2754.11683	0.08771
2752.83106	0.08745
2751.54529	0.08723
2750.25952	0.08703
2748.97375	0.08683
2747.68798	0.08667
2746.40221	0.08651
2745.11645	0.08632
2743.83068	0.08611
2742.54491	0.08591
2741.25914	0.08572
2739.97337	0.08548
2738.68760	0.08515
2737.40183	0.08480
2736.11606	0.08458
2734.83029	0.08451
2733.54453	0.08452
2732.25876	0.08444
2730.97299	0.08421
2729.68722	0.08390
2728.40145	0.08359
2727.11568	0.08332
2725.82991	0.08305
2724.54414	0.08269
2723.25838	0.08222
2721.97261	0.08176
2720.68684	0.08143
2719.40107	0.08126
2718.11530	0.08119
2716.82953	0.08115
2715.54376	0.08109
2714.25799	0.08098
2712.97222	0.08082
2711.68646	0.08065
2710.40069	0.08052
2709.11492	0.08044
2707.82915	0.08034
2706.54338	0.08014
2705.25761	0.07990
2703.97184	0.07972
2702.68607	0.07966
2701.40031	0.07968
2700.11454	0.07964
2698.82877	0.07948
2697.54300	0.07921
2696.25723	0.07894
2694.97146	0.07874
2693.68569	0.07863
2692.39992	0.07856
2691.11415	0.07844
2689.82839	0.07826
2688.54262	0.07810
2687.25685	0.07804
2685.97108	0.07810
2684.68531	0.07817
2683.39954	0.07813
2682.11377	0.07795
2680.82800	0.07776
2679.54224	0.07768
2678.25647	0.07776
2676.97070	0.07791
2675.68493	0.07802
2674.39916	0.07800
2673.11339	0.07782
2671.82762	0.07756
2670.54185	0.07734
2669.25608	0.07723
2667.97032	0.07720
2666.68455	0.07714
2665.39878	0.07703
2664.11301	0.07694
2662.82724	0.07695
2661.54147	0.07704
2660.25570	0.07710
2658.96993	0.07705
2657.68417	0.07687
2656.39840	0.07657
2655.11263	0.07616
2653.82686	0.07569
2652.54109	0.07531
2651.25532	0.07508
2649.96955	0.07490
2648.68378	0.07467
2647.39801	0.07437
2646.11225	0.07408
2644.82648	0.07382
2643.54071	0.07351
2642.25494	0.07311
2640.96917	0.07264
2639.68340	0.07224
2638.39763	0.07201
2637.11186	0.07187
2635.82609	0.07172
2634.54033	0.07145
2633.25456	0.07111
2631.96879	0.07074
2630.68302	0.07041
2629.39725	0.07015
2628.11148	0.06997
2626.82571	0.06982
2625.53994	0.06961
2624.25418	0.06928
2622.96841	0.06887
2621.68264	0.06846
2620.39687	0.06807
2619.11110	0.06768
2617.82533	0.06726
2616.53956	0.06688
2615.25379	0.06664
2613.96802	0.06661
2612.68226	0.06676
2611.39649	0.06703
2610.11072	0.06726
2608.82495	0.06729
2607.53918	0.06699
2606.25341	0.06645
2604.96764	0.06588
2603.68187	0.06544
2602.39611	0.06521
2601.11034	0.06515
2599.82457	0.06515
2598.53880	0.06509
2597.25303	0.06493
2595.96726	0.06477
2594.68149	0.06469
2593.39572	0.06461
2592.10995	0.06444
2590.82419	0.06419
2589.53842	0.06394
2588.25265	0.06367
2586.96688	0.06330
2585.68111	0.06288
2584.39534	0.06259
2583.10957	0.06250
2581.82380	0.06245
2580.53804	0.06229
2579.25227	0.06202
2577.96650	0.06182
2576.68073	0.06182
2575.39496	0.06194
2574.10919	0.06194
2572.82342	0.06171
2571.53765	0.06136
2570.25188	0.06108
2568.96612	0.06096
2567.68035	0.06098
2566.39458	0.06100
2565.10881	0.06091
2563.82304	0.06072
2562.53727	0.06056
2561.25150	0.06049
2559.96573	0.06041
2558.67997	0.06011
2557.39420	0.05965
2556.10843	0.05929
2554.82266	0.05917
2553.53689	0.05923
2552.25112	0.05930
2550.96535	0.05929
2549.67958	0.05917
2548.39381	0.05888
2547.10805	0.05845
2545.82228	0.05801
2544.53651	0.05773
2543.25074	0.05761
2541.96497	0.05748
2540.67920	0.05723
2539.39343	0.05684
2538.10766	0.05635
2536.82190	0.05575
2535.53613	0.05517
2534.25036	0.05486
2532.96459	0.05495
2531.67882	0.05526
2530.39305	0.05547
2529.10728	0.05548
2527.82151	0.05541
2526.53574	0.05542
2525.24998	0.05546
2523.96421	0.05540
2522.67844	0.05516
2521.39267	0.05485
2520.10690	0.05472
2518.82113	0.05490
2517.53536	0.05525
2516.24959	0.05553
2514.96383	0.05565
2513.67806	0.05564
2512.39229	0.05561
2511.10652	0.05554
2509.82075	0.05539
2508.53498	0.05512
2507.24921	0.05471
2505.96344	0.05425
2504.67767	0.05388
2503.39191	0.05368
2502.10614	0.05361
2500.82037	0.05358
2499.53460	0.05362
2498.24883	0.05376
2496.96306	0.05389
2495.67729	0.05379
2494.39152	0.05344
2493.10576	0.05308
2491.81999	0.05299
2490.53422	0.05312
2489.24845	0.05325
2487.96268	0.05316
2486.67691	0.05288
2485.39114	0.05256
2484.10537	0.05234
2482.81960	0.05230
2481.53384	0.05238
2480.24807	0.05248
2478.96230	0.05256
2477.67653	0.05263
2476.39076	0.05275
2475.10499	0.05289
2473.81922	0.05304
2472.53345	0.05321
2471.24769	0.05337
2469.96192	0.05342
2468.67615	0.05322
2467.39038	0.05281
2466.10461	0.05233
2464.81884	0.05196
2463.53307	0.05170
2462.24730	0.05145
2460.96153	0.05114
2459.67577	0.05086
2458.39000	0.05079
2457.10423	0.05106
2455.81846	0.05155
2454.53269	0.05198
2453.24692	0.05212
2451.96115	0.05199
2450.67538	0.05178
2449.38962	0.05163
2448.10385	0.05150
2446.81808	0.05126
2445.53231	0.05088
2444.24654	0.05049
2442.96077	0.05029
2441.67500	0.05033
2440.38923	0.05051
2439.10346	0.05068
2437.81770	0.05078
2436.53193	0.05088
2435.24616	0.05104
2433.96039	0.05119
2432.67462	0.05121
2431.38885	0.05104
2430.10308	0.05084
2428.81731	0.05080
2427.53155	0.05095
2426.24578	0.05113
2424.96001	0.05112
2423.67424	0.05086
2422.38847	0.05050
2421.10270	0.05022
2419.81693	0.05012
2418.53116	0.05016
2417.24539	0.05034
2415.95963	0.05063
2414.67386	0.05100
2413.38809	0.05127
2412.10232	0.05130
2410.81655	0.05108
2409.53078	0.05072
2408.24501	0.05031
2406.95924	0.04990
2405.67347	0.04959
2404.38771	0.04946
2403.10194	0.04950
2401.81617	0.04962
2400.53040	0.04974
2399.24463	0.04978
2397.95886	0.04978
2396.67309	0.04975
2395.38732	0.04969
2394.10156	0.04964
2392.81579	0.04960
2391.53002	0.04958
2390.24425	0.04958
2388.95848	0.04962
2387.67271	0.04962
2386.38694	0.04953
2385.10117	0.04937
2383.81540	0.04927
2382.52964	0.04926
2381.24387	0.04929
2379.95810	0.04928
2378.67233	0.04925
2377.38656	0.04930
2376.10079	0.04945
2374.81502	0.04960
2373.52925	0.04967
2372.24349	0.04964
2370.95772	0.04957
2369.67195	0.04958
2368.38618	0.04977
2367.10041	0.05014
2365.81464	0.05059
2364.52887	0.05100
2363.24310	0.05124
2361.95733	0.05128
2360.67157	0.05116
2359.38580	0.05099
2358.10003	0.05088
2356.81426	0.05086
2355.52849	0.05090
2354.24272	0.05090
2352.95695	0.05080
2351.67118	0.05067
2350.38542	0.05061
2349.09965	0.05066
2347.81388	0.05078
2346.52811	0.05087
2345.24234	0.05089
2343.95657	0.05088
2342.67080	0.05093
2341.38503	0.05106
2340.09926	0.05113
2338.81350	0.05100
2337.52773	0.05067
2336.24196	0.05032
2334.95619	0.05015
2333.67042	0.05021
2332.38465	0.05033
2331.09888	0.05039
2329.81311	0.05039
2328.52735	0.05054
2327.24158	0.05097
2325.95581	0.05153
2324.67004	0.05189
2323.38427	0.05185
2322.09850	0.05146
2320.81273	0.05100
2319.52696	0.05065
2318.24119	0.05041
2316.95543	0.05019
2315.66966	0.04992
2314.38389	0.04956
2313.09812	0.04909
2311.81235	0.04853
2310.52658	0.04799
2309.24081	0.04758
2307.95504	0.04734
2306.66928	0.04723
2305.38351	0.04719
2304.09774	0.04720
2302.81197	0.04719
2301.52620	0.04709
2300.24043	0.04677
2298.95466	0.04625
2297.66889	0.04565
2296.38312	0.04515
2295.09736	0.04484
2293.81159	0.04469
2292.52582	0.04459
2291.24005	0.04448
2289.95428	0.04434
2288.66851	0.04423
2287.38274	0.04422
2286.09697	0.04426
2284.81121	0.04413
2283.52544	0.04363
2282.23967	0.04282
2280.95390	0.04207
2279.66813	0.04169
2278.38236	0.04175
2277.09659	0.04202
2275.81082	0.04219
2274.52505	0.04206
2273.23929	0.04163
2271.95352	0.04108
2270.66775	0.04057
2269.38198	0.04008
2268.09621	0.03952
2266.81044	0.03895
2265.52467	0.03852
2264.23890	0.03836
2262.95314	0.03845
2261.66737	0.03874
2260.38160	0.03912
2259.09583	0.03938
2257.81006	0.03933
2256.52429	0.03897
2255.23852	0.03847
2253.95275	0.03802
2252.66698	0.03765
2251.38122	0.03731
2250.09545	0.03703
2248.80968	0.03689
2247.52391	0.03677
2246.23814	0.03698
2244.95237	0.03740
2243.66660	0.03771
2242.38083	0.03768
2241.09507	0.03748
2239.80930	0.03749
2238.52353	0.03777
2237.23776	0.03789
2235.95199	0.03747
2234.66622	0.03662
2233.38045	0.03593
2232.09468	0.03579
2230.80891	0.03605
2229.52315	0.03631
2228.23738	0.03636
2226.95161	0.03630
2225.66584	0.03628
2224.38007	0.03634
2223.09430	0.03635
2221.80853	0.03607
2220.52276	0.03535
2219.23700	0.03435
2217.95123	0.03342
2216.66546	0.03267
2215.37969	0.03196
2214.09392	0.03130
2212.80815	0.03105
2211.52238	0.03138
2210.23661	0.03204
2208.95084	0.03255
2207.66508	0.03273
2206.37931	0.03266
2205.09354	0.03248
2203.80777	0.03224
2202.52200	0.03189
2201.23623	0.03137
2199.95046	0.03081
2198.66469	0.03043
2197.37893	0.03027
2196.09316	0.03005
2194.80739	0.02966
2193.52162	0.02932
2192.23585	0.02915
2190.95008	0.02893
2189.66431	0.02846
2188.37854	0.02788
2187.09277	0.02744
2185.80701	0.02716
2184.52124	0.02687
2183.23547	0.02665
2181.94970	0.02683
2180.66393	0.02757
2179.37816	0.02847
2178.09239	0.02894
2176.80662	0.02866
2175.52085	0.02788
2174.23509	0.02714
2172.94932	0.02692
2171.66355	0.02722
2170.37778	0.02754
2169.09201	0.02729
2167.80624	0.02625
2166.52047	0.02465
2165.23470	0.02281
2163.94894	0.02108
2162.66317	0.01993
2161.37740	0.01974
2160.09163	0.02047
2158.80586	0.02170
2157.52009	0.02298
2156.23432	0.02396
2154.94855	0.02449
2153.66278	0.02472
2152.37702	0.02491
2151.09125	0.02518
2149.80548	0.02563
2148.51971	0.02642
2147.23394	0.02743
2145.94817	0.02825
2144.66240	0.02854
2143.37663	0.02839
2142.09087	0.02798
2140.80510	0.02737
2139.51933	0.02675
2138.23356	0.02653
2136.94779	0.02698
2135.66202	0.02795
2134.37625	0.02910
2133.09048	0.03014
2131.80471	0.03087
2130.51895	0.03110
2129.23318	0.03095
2127.94741	0.03084
2126.66164	0.03117
2125.37587	0.03193
2124.09010	0.03274
2122.80433	0.03324
2121.51856	0.03345
2120.23280	0.03360
2118.94703	0.03385
2117.66126	0.03417
2116.37549	0.03451
2115.08972	0.03475
2113.80395	0.03468
2112.51818	0.03412
2111.23241	0.03324
2109.94664	0.03251
2108.66088	0.03242
2107.37511	0.03306
2106.08934	0.03402
2104.80357	0.03474
2103.51780	0.03493
2102.23203	0.03476
2100.94626	0.03461
2099.66049	0.03489
2098.37473	0.03486
2097.08896	0.03436
2095.80319	0.03361
2094.51742	0.03302
2093.23165	0.03283
2091.94588	0.03300
2090.66011	0.03319
2089.37434	0.03311
2088.08857	0.03273
2086.80281	0.03228
2085.51704	0.03195
2084.23127	0.03174
2082.94550	0.03154
2081.65973	0.03139
2080.37396	0.03149
2079.08819	0.03190
2077.80242	0.03238
2076.51666	0.03257
2075.23089	0.03235
2073.94512	0.03189
2072.65935	0.03135
2071.37358	0.03075
2070.08781	0.03008
2068.80204	0.02948
2067.51627	0.02922
2066.23050	0.02945
2064.94474	0.03000
2063.65897	0.03041
2062.37320	0.03022
2061.08743	0.02937
2059.80166	0.02819
2058.51589	0.02713
2057.23012	0.02645
2055.94435	0.02613
2054.65859	0.02608
2053.37282	0.02626
2052.08705	0.02666
2050.80128	0.02709
2049.51551	0.02715
2048.22974	0.02655
2046.94397	0.02543
2045.65820	0.02427
2044.37243	0.02349
2043.08667	0.02316
2041.80090	0.02302
2040.51513	0.02285
2039.22936	0.02268
2037.94359	0.02274
2036.65782	0.02312
2035.37205	0.02363
2034.08628	0.02384
2032.80052	0.02336
2031.51475	0.02227
2030.22898	0.02129
2028.94321	0.02133
2027.65744	0.02257
2026.37167	0.02431
2025.08590	0.02567
2023.80013	0.02632
2022.51436	0.02622
2021.22860	0.02535
2019.94283	0.02384
2018.65706	0.02218
2017.37129	0.02089
2016.08552	0.02022
2014.79975	0.02019
2013.51398	0.02084
2012.22821	0.02194
2010.94245	0.02295
2009.65668	0.02340
2008.37091	0.02330
2007.08514	0.02304
2005.79937	0.02295
2004.51360	0.02310
2003.22783	0.02339
2001.94206	0.02364
2000.65629	0.02366
1999.37053	0.02337
1998.08476	0.02291
1996.79899	0.02255
1995.51322	0.02256
1994.22745	0.02305
1992.94168	0.02384
1991.65591	0.02451
1990.37014	0.02473
1989.08438	0.02460
1987.79861	0.02447
1986.51284	0.02450
1985.22707	0.02462
1983.94130	0.02465
1982.65553	0.02450
1981.36976	0.02410
1980.08399	0.02336
1978.79822	0.02237
1977.51246	0.02143
1976.22669	0.02082
1974.94092	0.02063
1973.65515	0.02087
1972.36938	0.02153
1971.08361	0.02242
1969.79784	0.02311
1968.51207	0.02323
1967.22631	0.02286
1965.94054	0.02252
1964.65477	0.02279
1963.36900	0.02381
1962.08323	0.02509
1960.79746	0.02582
1959.51169	0.02549
1958.22592	0.02441
1956.94015	0.02332
1955.65439	0.02280
1954.36862	0.02289
1953.08285	0.02329
1951.79708	0.02371
1950.51131	0.02399
1949.22554	0.02407
1947.93977	0.02397
1946.65400	0.02381
1945.36823	0.02374
1944.08247	0.02383
1942.79670	0.02408
1941.51093	0.02437
1940.22516	0.02462
1938.93939	0.02481
1937.65362	0.02499
1936.36785	0.02516
1935.08208	0.02532
1933.79632	0.02545
1932.51055	0.02560
1931.22478	0.02582
1929.93901	0.02608
1928.65324	0.02627
1927.36747	0.02632
1926.08170	0.02625
1924.79593	0.02615
1923.51016	0.02615
1922.22440	0.02632
1920.93863	0.02663
1919.65286	0.02696
1918.36709	0.02714
1917.08132	0.02716
1915.79555	0.02720
1914.50978	0.02736
1913.22401	0.02749
1911.93825	0.02744
1910.65248	0.02723
1909.36671	0.02697
1908.08094	0.02674
1906.79517	0.02658
1905.50940	0.02655
1904.22363	0.02665
1902.93786	0.02678
1901.65209	0.02681
1900.36633	0.02671
1899.08056	0.02658
1897.79479	0.02649
1896.50902	0.02650
1895.22325	0.02661
1893.93748	0.02679
1892.65171	0.02694
1891.36594	0.02701
1890.08018	0.02706
1888.79441	0.02719
1887.50864	0.02738
1886.22287	0.02751
1884.93710	0.02746
1883.65133	0.02723
1882.36556	0.02689
1881.07979	0.02650
1879.79402	0.02617
1878.50826	0.02604
1877.22249	0.02612
1875.93672	0.02630
1874.65095	0.02649
1873.36518	0.02669
1872.07941	0.02698
1870.79364	0.02731
1869.50787	0.02752
1868.22211	0.02751
1866.93634	0.02729
1865.65057	0.02694
1864.36480	0.02656
1863.07903	0.02627
1861.79326	0.02618
1860.50749	0.02627
1859.22172	0.02641
1857.93595	0.02645
1856.65019	0.02640
1855.36442	0.02630
1854.07865	0.02619
1852.79288	0.02603
1851.50711	0.02586
1850.22134	0.02573
1848.93557	0.02570
1847.64980	0.02575
1846.36404	0.02589
1845.07827	0.02609
1843.79250	0.02627
1842.50673	0.02635
1841.22096	0.02635
1839.93519	0.02633
1838.64942	0.02626
1837.36365	0.02612
1836.07788	0.02595
1834.79212	0.02583
1833.50635	0.02582
1832.22058	0.02595
1830.93481	0.02616
1829.64904	0.02633
1828.36327	0.02638
1827.07750	0.02638
1825.79173	0.02641
1824.50597	0.02645
1823.22020	0.02644
1821.93443	0.02633
1820.64866	0.02617
1819.36289	0.02601
1818.07712	0.02590
1816.79135	0.02584
1815.50558	0.02584
1814.21981	0.02587
1812.93405	0.02585
1811.64828	0.02570
1810.36251	0.02546
1809.07674	0.02523
1807.79097	0.02511
1806.50520	0.02509
1805.21943	0.02513
1803.93366	0.02519
1802.64790	0.02529
1801.36213	0.02538
1800.07636	0.02541
1798.79059	0.02535
1797.50482	0.02522
1796.21905	0.02511
1794.93328	0.02510
1793.64751	0.02520
1792.36174	0.02530
1791.07598	0.02528
1789.79021	0.02514
1788.50444	0.02496
1787.21867	0.02484
1785.93290	0.02483
1784.64713	0.02487
1783.36136	0.02487
1782.07559	0.02481
1780.78983	0.02469
1779.50406	0.02450
1778.21829	0.02426
1776.93252	0.02406
1775.64675	0.02399
1774.36098	0.02408
1773.07521	0.02424
1771.78944	0.02431
1770.50367	0.02429
1769.21791	0.02425
1767.93214	0.02420
1766.64637	0.02410
1765.36060	0.02402
1764.07483	0.02400
1762.78906	0.02403
1761.50329	0.02400
1760.21752	0.02390
1758.93176	0.02384
1757.64599	0.02386
1756.36022	0.02393
1755.07445	0.02406
1753.78868	0.02428
1752.50291	0.02459
1751.21714	0.02485
1749.93137	0.02497
1748.64560	0.02498
1747.35984	0.02494
1746.07407	0.02489
1744.78830	0.02488
1743.50253	0.02497
1742.21676	0.02517
1740.93099	0.02545
1739.64522	0.02572
1738.35945	0.02596
1737.07369	0.02627
1735.78792	0.02669
1734.50215	0.02706
1733.21638	0.02719
1731.93061	0.02715
1730.64484	0.02715
1729.35907	0.02726
1728.07330	0.02748
1726.78753	0.02782
1725.50177	0.02835
1724.21600	0.02902
1722.93023	0.02973
1721.64446	0.03045
1720.35869	0.03128
1719.07292	0.03230
1717.78715	0.03343
1716.50138	0.03456
1715.21561	0.03572
1713.92985	0.03702
1712.64408	0.03852
1711.35831	0.04020
1710.07254	0.04201
1708.78677	0.04392
1707.50100	0.04589
1706.21523	0.04788
1704.92946	0.04987
1703.64370	0.05197
1702.35793	0.05439
1701.07216	0.05707
1699.78639	0.05979
1698.50062	0.06256
1697.21485	0.06555
1695.92908	0.06868
1694.64331	0.07165
1693.35754	0.07446
1692.07178	0.07734
1690.78601	0.08039
1689.50024	0.08351
1688.21447	0.08670
1686.92870	0.09010
1685.64293	0.09375
1684.35716	0.09745
1683.07139	0.10102
1681.78563	0.10465
1680.49986	0.10856
1679.21409	0.11282
1677.92832	0.11736
1676.64255	0.12211
1675.35678	0.12695
1674.07101	0.13180
1672.78524	0.13677
1671.49947	0.14199
1670.21371	0.14741
1668.92794	0.15282
1667.64217	0.15805
1666.35640	0.16313
1665.07063	0.16817
1663.78486	0.17321
1662.49909	0.17820
1661.21332	0.18303
1659.92756	0.18759
1658.64179	0.19174
1657.35602	0.19547
1656.07025	0.19899
1654.78448	0.20255
1653.49871	0.20601
1652.21294	0.20898
1650.92717	0.21142
1649.64140	0.21369
1648.35564	0.21606
1647.06987	0.21843
1645.78410	0.22061
1644.49833	0.22256
1643.21256	0.22440
1641.92679	0.22622
1640.64102	0.22803
1639.35525	0.22981
1638.06949	0.23164
1636.78372	0.23347
1635.49795	0.23513
1634.21218	0.23648
1632.92641	0.23754
1631.64064	0.23837
1630.35487	0.23886
1629.06910	0.23882
1627.78333	0.23811
1626.49757	0.23675
1625.21180	0.23478
1623.92603	0.23222
1622.64026	0.22904
1621.35449	0.22528
1620.06872	0.22116
1618.78295	0.21689
1617.49718	0.21246
1616.21142	0.20778
1614.92565	0.20283
1613.63988	0.19778
1612.35411	0.19273
1611.06834	0.18767
1609.78257	0.18260
1608.49680	0.17753
1607.21103	0.17252
1605.92526	0.16764
1604.63950	0.16296
1603.35373	0.15856
1602.06796	0.15444
1600.78219	0.15062
1599.49642	0.14709
1598.21065	0.14388
1596.92488	0.14096
1595.63911	0.13828
1594.35335	0.13582
1593.06758	0.13359
1591.78181	0.13163
1590.49604	0.12998
1589.21027	0.12865
1587.92450	0.12763
1586.63873	0.12690
1585.35296	0.12645
1584.06719	0.12627
1582.78143	0.12635
1581.49566	0.12669
1580.20989	0.12733
1578.92412	0.12833
1577.63835	0.12977
1576.35258	0.13152
1575.06681	0.13339
1573.78104	0.13542
1572.49528	0.13773
1571.20951	0.14036
1569.92374	0.14321
1568.63797	0.14619
1567.35220	0.14931
1566.06643	0.15262
1564.78066	0.15602
1563.49489	0.15944
1562.20912	0.16295
1560.92336	0.16658
1559.63759	0.17017
1558.35182	0.17344
1557.06605	0.17636
1555.78028	0.17917
1554.49451	0.18194
1553.20874	0.18454
1551.92297	0.18688
1550.63721	0.18895
1549.35144	0.19076
1548.06567	0.19232
1546.77990	0.19365
1545.49413	0.19477
1544.20836	0.19566
1542.92259	0.19640
1541.63682	0.19706
1540.35105	0.19760
1539.06529	0.19780
1537.77952	0.19761
1536.49375	0.19720
1535.20798	0.19677
1533.92221	0.19630
1532.63644	0.19571
1531.35067	0.19498
1530.06490	0.19416
1528.77914	0.19328
1527.49337	0.19230
1526.20760	0.19121
1524.92183	0.19004
1523.63606	0.18885
1522.35029	0.18764
1521.06452	0.18631
1519.77875	0.18481
1518.49298	0.18326
1517.20722	0.18164
1515.92145	0.17983
1514.63568	0.17774
1513.34991	0.17538
1512.06414	0.17281
1510.77837	0.17007
1509.49260	0.16726
1508.20683	0.16442
1506.92107	0.16144
1505.63530	0.15819
1504.34953	0.15473
1503.06376	0.15128
1501.77799	0.14796
1500.49222	0.14476
1499.20645	0.14161
1497.92068	0.13846
1496.63491	0.13525
1495.34915	0.13196
1494.06338	0.12866
1492.77761	0.12550
1491.49184	0.12249
1490.20607	0.11963
1488.92030	0.11694
1487.63453	0.11455
1486.34876	0.11253
1485.06299	0.11087
1483.77723	0.10953
1482.49146	0.10850
1481.20569	0.10776
1479.91992	0.10735
1478.63415	0.10731
1477.34838	0.10766
1476.06261	0.10838
1474.77684	0.10944
1473.49108	0.11080
1472.20531	0.11235
1470.91954	0.11399
1469.63377	0.11575
1468.34800	0.11762
1467.06223	0.11958
1465.77646	0.12155
1464.49069	0.12349
1463.20492	0.12544
1461.91916	0.12746
1460.63339	0.12964
1459.34762	0.13199
1458.06185	0.13444
1456.77608	0.13676
1455.49031	0.13874
1454.20454	0.14037
1452.91877	0.14168
1451.63301	0.14267
1450.34724	0.14332
1449.06147	0.14367
1447.77570	0.14375
1446.48993	0.14354
1445.20416	0.14305
1443.91839	0.14236
1442.63262	0.14147
1441.34685	0.14039
1440.06109	0.13914
1438.77532	0.13775
1437.48955	0.13623
1436.20378	0.13450
1434.91801	0.13257
1433.63224	0.13055
1432.34647	0.12857
1431.06070	0.12670
1429.77494	0.12503
1428.48917	0.12360
1427.20340	0.12242
1425.91763	0.12146
1424.63186	0.12066
1423.34609	0.11999
1422.06032	0.11948
1420.77455	0.11916
1419.48878	0.11896
1418.20302	0.11877
1416.91725	0.11862
1415.63148	0.11860
1414.34571	0.11876
1413.05994	0.11906
1411.77417	0.11946
1410.48840	0.11993
1409.20263	0.12048
1407.91687	0.12108
1406.63110	0.12173
1405.34533	0.12234
1404.05956	0.12287
1402.77379	0.12330
1401.48802	0.12364
1400.20225	0.12386
1398.91648	0.12390
1397.63071	0.12378
1396.34495	0.12358
1395.05918	0.12333
1393.77341	0.12303
1392.48764	0.12267
1391.20187	0.12229
1389.91610	0.12193
1388.63033	0.12156
1387.34456	0.12113
1386.05880	0.12066
1384.77303	0.12017
1383.48726	0.11968
1382.20149	0.11919
1380.91572	0.11867
1379.62995	0.11812
1378.34418	0.11748
1377.05841	0.11675
1375.77264	0.11593
1374.48688	0.11504
1373.20111	0.11406
1371.91534	0.11302
1370.62957	0.11190
1369.34380	0.11069
1368.05803	0.10937
1366.77226	0.10798
1365.48649	0.10660
1364.20073	0.10529
1362.91496	0.10410
1361.62919	0.10303
1360.34342	0.10212
1359.05765	0.10141
1357.77188	0.10094
1356.48611	0.10070
1355.20034	0.10066
1353.91457	0.10085
1352.62881	0.10127
1351.34304	0.10193
1350.05727	0.10280
1348.77150	0.10382
1347.48573	0.10491
1346.19996	0.10605
1344.91419	0.10723
1343.62842	0.10844
1342.34266	0.10963
1341.05689	0.11072
1339.77112	0.11166
1338.48535	0.11239
1337.19958	0.11287
1335.91381	0.11308
1334.62804	0.11298
1333.34227	0.11257
1332.05650	0.11191
1330.77074	0.11108
1329.48497	0.11014
1328.19920	0.10913
1326.91343	0.10810
1325.62766	0.10713
1324.34189	0.10628
1323.05612	0.10560
1321.77035	0.10511
1320.48459	0.10478
1319.19882	0.10453
1317.91305	0.10429
1316.62728	0.10402
1315.34151	0.10367
1314.05574	0.10324
1312.76997	0.10273
1311.48420	0.10219
1310.19843	0.10163
1308.91267	0.10107
1307.62690	0.10052
1306.34113	0.09999
1305.05536	0.09951
1303.76959	0.09907
1302.48382	0.09866
1301.19805	0.09827
1299.91228	0.09790
1298.62652	0.09756
1297.34075	0.09728
1296.05498	0.09709
1294.76921	0.09707
1293.48344	0.09722
1292.19767	0.09755
1290.91190	0.09803
1289.62613	0.09861
1288.34036	0.09927
1287.05460	0.09997
1285.76883	0.10072
1284.48306	0.10149
1283.19729	0.10223
1281.91152	0.10284
1280.62575	0.10324
1279.33998	0.10341
1278.05421	0.10344
1276.76845	0.10341
1275.48268	0.10338
1274.19691	0.10336
1272.91114	0.10335
1271.62537	0.10341
1270.33960	0.10356
1269.05383	0.10381
1267.76806	0.10415
1266.48229	0.10452
1265.19653	0.10493
1263.91076	0.10538
1262.62499	0.10592
1261.33922	0.10656
1260.05345	0.10731
1258.76768	0.10814
1257.48191	0.10900
1256.19614	0.10987
1254.91037	0.11077
1253.62461	0.11172
1252.33884	0.11278
1251.05307	0.11398
1249.76730	0.11535
1248.48153	0.11682
1247.19576	0.11832
1245.90999	0.11982
1244.62422	0.12130
1243.33846	0.12278
1242.05269	0.12420
1240.76692	0.12547
1239.48115	0.12649
1238.19538	0.12726
1236.90961	0.12780
1235.62384	0.12814
1234.33807	0.12828
1233.05230	0.12817
1231.76654	0.12777
1230.48077	0.12708
1229.19500	0.12610
1227.90923	0.12484
1226.62346	0.12332
1225.33769	0.12160
1224.05192	0.11972
1222.76615	0.11777
1221.48039	0.11583
1220.19462	0.11399
1218.90885	0.11227
1217.62308	0.11071
1216.33731	0.10935
1215.05154	0.10827
1213.76577	0.10754
1212.48000	0.10717
1211.19423	0.10710
1209.90847	0.10728
1208.62270	0.10761
1207.33693	0.10805
1206.05116	0.10850
1204.76539	0.10888
1203.47962	0.10910
1202.19385	0.10905
1200.90808	0.10867
1199.62232	0.10793
1198.33655	0.10693
1197.05078	0.10567
1195.76501	0.10423
1194.47924	0.10271
1193.19347	0.10118
1191.90770	0.09969
1190.62193	0.09827
1189.33616	0.09692
1188.05040	0.09569
1186.76463	0.09458
1185.47886	0.09360
1184.19309	0.09267
1182.90732	0.09177
1181.62155	0.09092
1180.33578	0.09021
1179.05001	0.08966
1177.76425	0.08924
1176.47848	0.08888
1175.19271	0.08855
1173.90694	0.08828
1172.62117	0.08805
1171.33540	0.08788
1170.04963	0.08774
1168.76386	0.08768
1167.47809	0.08770
1166.19233	0.08778
1164.90656	0.08788
1163.62079	0.08795
1162.33502	0.08798
1161.04925	0.08796
1159.76348	0.08788
1158.47771	0.08766
1157.19194	0.08721
1155.90618	0.08649
1154.62041	0.08559
1153.33464	0.08465
1152.04887	0.08373
1150.76310	0.08283
1149.47733	0.08188
1148.19156	0.08089
1146.90579	0.07993
1145.62002	0.07906
1144.33426	0.07830
1143.04849	0.07760
1141.76272	0.07694
1140.47695	0.07629
1139.19118	0.07566
1137.90541	0.07507
1136.61964	0.07453
1135.33387	0.07407
1134.04811	0.07374
1132.76234	0.07356
1131.47657	0.07345
1130.19080	0.07335
1128.90503	0.07323
1127.61926	0.07308
1126.33349	0.07291
1125.04772	0.07271
1123.76195	0.07251
1122.47619	0.07236
1121.19042	0.07231
1119.90465	0.07232
1118.61888	0.07236
1117.33311	0.07241
1116.04734	0.07245
1114.76157	0.07248
1113.47580	0.07249
1112.19004	0.07252
1110.90427	0.07262
1109.61850	0.07282
1108.33273	0.07308
1107.04696	0.07337
1105.76119	0.07366
1104.47542	0.07393
1103.18965	0.07420
1101.90388	0.07449
1100.61812	0.07478
1099.33235	0.07507
1098.04658	0.07535
1096.76081	0.07565
1095.47504	0.07599
1094.18927	0.07642
1092.90350	0.07699
1091.61773	0.07769
1090.33197	0.07853
1089.04620	0.07950
1087.76043	0.08064
1086.47466	0.08190
1085.18889	0.08313
1083.90312	0.08412
1082.61735	0.08473
1081.33158	0.08498
1080.04581	0.08495
1078.76005	0.08472
1077.47428	0.08432
1076.18851	0.08375
1074.90274	0.08306
1073.61697	0.08235
1072.33120	0.08175
1071.04543	0.08131
1069.75966	0.08104
1068.47390	0.08093
1067.18813	0.08090
1065.90236	0.08088
1064.61659	0.08083
1063.33082	0.08073
1062.04505	0.08059
1060.75928	0.08042
1059.47351	0.08021
1058.18774	0.07995
1056.90198	0.07965
1055.61621	0.07929
1054.33044	0.07886
1053.04467	0.07838
1051.75890	0.07788
1050.47313	0.07739
1049.18736	0.07699
1047.90159	0.07670
1046.61583	0.07653
1045.33006	0.07641
1044.04429	0.07629
1042.75852	0.07617
1041.47275	0.07611
1040.18698	0.07622
1038.90121	0.07654
1037.61544	0.07706
1036.32967	0.07768
1035.04391	0.07834
1033.75814	0.07898
1032.47237	0.07953
1031.18660	0.07990
1029.90083	0.07996
1028.61506	0.07967
1027.32929	0.07908
1026.04352	0.07829
1024.75775	0.07737
1023.47199	0.07640
1022.18622	0.07545
1020.90045	0.07461
1019.61468	0.07391
1018.32891	0.07335
1017.04314	0.07290
1015.75737	0.07251
1014.47160	0.07211
1013.18584	0.07161
1011.90007	0.07100
1010.61430	0.07030
1009.32853	0.06955
1008.04276	0.06884
1006.75699	0.06817
1005.47122	0.06753
1004.18545	0.06685
1002.89968	0.06616
1001.61392	0.06549
1000.32815	0.06486
999.04238	0.06422
997.75661	0.06358
996.47084	0.06294
995.18507	0.06232
993.89930	0.06174
992.61353	0.06118
991.32777	0.06066
990.04200	0.06020
988.75623	0.05984
987.47046	0.05960
986.18469	0.05946
984.89892	0.05932
983.61315	0.05914
982.32738	0.05897
981.04161	0.05896
979.75585	0.05918
978.47008	0.05958
977.18431	0.06000
975.89854	0.06029
974.61277	0.06041
973.32700	0.06038
972.04123	0.06021
970.75546	0.05989
969.46970	0.05944
968.18393	0.05896
966.89816	0.05853
965.61239	0.05819
964.32662	0.05794
963.04085	0.05771
961.75508	0.05748
960.46931	0.05722
959.18354	0.05693
957.89778	0.05664
956.61201	0.05639
955.32624	0.05620
954.04047	0.05605
952.75470	0.05588
951.46893	0.05568
950.18316	0.05551
948.89739	0.05543
947.61163	0.05543
946.32586	0.05546
945.04009	0.05548
943.75432	0.05553
942.46855	0.05560
941.18278	0.05563
939.89701	0.05560
938.61124	0.05550
937.32547	0.05539
936.03971	0.05527
934.75394	0.05514
933.46817	0.05497
932.18240	0.05479
930.89663	0.05458
929.61086	0.05436
928.32509	0.05415
927.03932	0.05401
925.75356	0.05397
924.46779	0.05397
923.18202	0.05392
921.89625	0.05374
920.61048	0.05341
919.32471	0.05304
918.03894	0.05272
916.75317	0.05246
915.46740	0.05216
914.18164	0.05176
912.89587	0.05129
911.61010	0.05087
910.32433	0.05060
909.03856	0.05047
907.75279	0.05037
906.46702	0.05025
905.18125	0.05012
903.89549	0.05003
902.60972	0.05000
901.32395	0.04996
900.03818	0.04984
898.75241	0.04962
897.46664	0.04937
896.18087	0.04918
894.89510	0.04904
893.60933	0.04893
892.32357	0.04882
891.03780	0.04878
889.75203	0.04882
888.46626	0.04892
887.18049	0.04902
885.89472	0.04911
884.60895	0.04922
883.32318	0.04932
882.03742	0.04934
880.75165	0.04925
879.46588	0.04911
878.18011	0.04907
876.89434	0.04918
875.60857	0.04936
874.32280	0.04951
873.03703	0.04956
871.75126	0.04954
870.46550	0.04950
869.17973	0.04948
867.89396	0.04944
866.60819	0.04934
865.32242	0.04920
864.03665	0.04903
862.75088	0.04886
861.46511	0.04874
860.17935	0.04873
858.89358	0.04885
857.60781	0.04899
856.32204	0.04905
855.03627	0.04901
853.75050	0.04898
852.46473	0.04903
851.17896	0.04913
849.89319	0.04918
848.60743	0.04912
847.32166	0.04898
846.03589	0.04883
844.75012	0.04868
843.46435	0.04852
842.17858	0.04833
840.89281	0.04811
839.60704	0.04787
838.32128	0.04762
837.03551	0.04737
835.74974	0.04718
834.46397	0.04708
833.17820	0.04709
831.89243	0.04720
830.60666	0.04737
829.32089	0.04754
828.03512	0.04769
826.74936	0.04782
825.46359	0.04797
824.17782	0.04814
822.89205	0.04832
821.60628	0.04852
820.32051	0.04874
819.03474	0.04897
817.74897	0.04917
816.46321	0.04934
815.17744	0.04948
813.89167	0.04960
812.60590	0.04971
811.32013	0.04989
810.03436	0.05018
808.74859	0.05055
807.46282	0.05089
806.17705	0.05113
804.89129	0.05125
803.60552	0.05130
802.31975	0.05134
801.03398	0.05144
799.74821	0.05158
798.46244	0.05173
797.17667	0.05186
795.89090	0.05197
794.60513	0.05210
793.31937	0.05233
792.03360	0.05263
790.74783	0.05293
789.46206	0.05315
788.17629	0.05329
786.89052	0.05342
785.60475	0.05359
784.31898	0.05379
783.03322	0.05399
781.74745	0.05418
780.46168	0.05437
779.17591	0.05460
777.89014	0.05483
776.60437	0.05501
775.31860	0.05516
774.03283	0.05529
772.74706	0.05543
771.46130	0.05556
770.17553	0.05568
768.88976	0.05579
767.60399	0.05593
766.31822	0.05610
765.03245	0.05630
763.74668	0.05652
762.46091	0.05678
761.17515	0.05702
759.88938	0.05721
758.60361	0.05741
757.31784	0.05771
756.03207	0.05809
754.74630	0.05842
753.46053	0.05856
752.17476	0.05858
750.88899	0.05864
749.60323	0.05886
748.31746	0.05922
747.03169	0.05959
745.74592	0.05985
744.46015	0.05997
743.17438	0.06006
741.88861	0.06029
740.60284	0.06068
739.31708	0.06109
738.03131	0.06144
736.74554	0.06178
735.45977	0.06220
734.17400	0.06268
732.88823	0.06310
731.60246	0.06346
730.31669	0.06385
729.03092	0.06432
727.74516	0.06479
726.45939	0.06511
725.17362	0.06526
723.88785	0.06535
722.60208	0.06564
721.31631	0.06606
720.03054	0.06649
718.74477	0.06687
717.45901	0.06719
716.17324	0.06744
714.88747	0.06763
713.60170	0.06779
712.31593	0.06797
711.03016	0.06822
709.74439	0.06852
708.45862	0.06885
707.17285	0.06920
705.88709	0.06960
704.60132	0.07002
703.31555	0.07042
702.02978	0.07075
700.74401	0.07099
699.45824	0.07120
698.17247	0.07141
696.88670	0.07163
695.60094	0.07184
694.31517	0.07202
693.02940	0.07216
691.74363	0.07226
690.45786	0.07236
689.17209	0.07245
687.88632	0.07253
686.60055	0.07261
685.31478	0.07274
684.02902	0.07292
682.74325	0.07317
681.45748	0.07346
680.17171	0.07379
678.88594	0.07410
677.60017	0.07437
676.31440	0.07457
675.02863	0.07473
673.74287	0.07490
672.45710	0.07508
671.17133	0.07528
669.88556	0.07548
668.59979	0.07569
667.31402	0.07592
666.02825	0.07617
664.74248	0.07639
663.45671	0.07655
662.17095	0.07667
660.88518	0.07679
659.59941	0.07695
658.31364	0.07715
657.02787	0.07735
655.74210	0.07753
654.45633	0.07767
653.17056	0.07779
651.88480	0.07791
650.59903	0.07805
649.31326	0.07817
648.02749	0.07823
646.74172	0.07822
645.45595	0.07819
644.17018	0.07821
642.88441	0.07833
641.59864	0.07848
640.31288	0.07860
639.02711	0.07865
637.74134	0.07867
636.45557	0.07869
635.16980	0.07870
633.88403	0.07871
632.59826	0.07869
631.31249	0.07867
630.02673	0.07884
628.74096	0.07911
627.45519	0.07872
626.16942	0.07895
624.88365	0.07944
623.59788	0.07963
622.31211	0.07956
621.02634	0.07963
619.74057	0.08003
618.45481	0.08045
617.16904	0.08041
615.88327	0.07956
614.59750	0.07790
613.31173	0.07585
612.02596	0.07412
610.74019	0.07349
609.45442	0.07429
608.16866	0.07608
606.88289	0.07797
605.59712	0.07924
604.31135	0.07981
603.02558	0.08012
601.73981	0.08058
600.45404	0.08121
599.16827	0.08178
597.88250	0.08210
596.59674	0.08218
595.31097	0.08208
594.02520	0.08185
592.73943	0.08151
591.45366	0.08114
590.16789	0.08086
588.88212	0.08074
587.59635	0.08074
586.31059	0.08076
585.02482	0.08071
583.73905	0.08064
582.45328	0.08063
581.16751	0.08069
579.88174	0.08075
578.59597	0.08072
577.31020	0.08067
576.02443	0.08069
574.73867	0.08082
573.45290	0.08104
572.16713	0.08133
570.88136	0.08166
569.59559	0.08202
568.30982	0.08239
567.02405	0.08279
565.73828	0.08317
564.45251	0.08345
563.16675	0.08354
561.88098	0.08348
560.59521	0.08336
559.30944	0.08325
558.02367	0.08314
556.73790	0.08300
555.45213	0.08283
554.16636	0.08264
552.88060	0.08248
551.59483	0.08238
550.30906	0.08234
549.02329	0.08235
547.73752	0.08234
546.45175	0.08225
545.16598	0.08207
543.88021	0.08184
542.59444	0.08163
541.30868	0.08145
540.02291	0.08133
538.73714	0.08130
537.45137	0.08141
536.16560	0.08160
534.87983	0.08178
533.59406	0.08189
532.30829	0.08195
531.02253	0.08204
529.73676	0.08218
528.45099	0.08230
527.16522	0.08234
525.87945	0.08225
524.59368	0.08201
523.30791	0.08168
522.02214	0.08132
520.73637	0.08103
519.45061	0.08080
518.16484	0.08058
516.87907	0.08033
515.59330	0.08006
514.30753	0.07983
513.02176	0.07965
511.73599	0.07953
510.45022	0.07944
509.16446	0.07933
507.87869	0.07915
506.59292	0.07885
505.30715	0.07844
504.02138	0.07801
502.73561	0.07761
501.44984	0.07728
500.16407	0.07704
498.87830	0.07690
497.59254	0.07680
496.30677	0.07665
495.02100	0.07640
493.73523	0.07604
492.44946	0.07561
491.16369	0.07516
489.87792	0.07478
488.59215	0.07454
487.30639	0.07444
486.02062	0.07437
484.73485	0.07425
483.44908	0.07407
482.16331	0.07390
480.87754	0.07377
479.59177	0.07368
478.30600	0.07358
477.02023	0.07345
475.73447	0.07330
474.44870	0.07312
473.16293	0.07287
471.87716	0.07249
470.59139	0.07200
469.30562	0.07155
468.01985	0.07125
466.73408	0.07112
465.44832	0.07101
464.16255	0.07075
462.87678	0.07033
461.59101	0.06988
460.30524	0.06951
459.01947	0.06926
457.73370	0.06904
456.44793	0.06881
455.16216	0.06859
453.87640	0.06836
452.59063	0.06807
451.30486	0.06765
450.01909	0.06713
448.73332	0.06658
447.44755	0.06607
446.16178	0.06563
444.87601	0.06530
443.59025	0.06505
442.30448	0.06486
441.01871	0.06466
439.73294	0.06442
438.44717	0.06413
437.16140	0.06381
435.87563	0.06352
434.58986	0.06326
433.30409	0.06306
432.01833	0.06288
430.73256	0.06270
429.44679	0.06252
428.16102	0.06233
426.87525	0.06211
425.58948	0.06182
424.30371	0.06145
423.01794	0.06102
421.73218	0.06059
420.44641	0.06022
419.16064	0.05989
417.87487	0.05957
416.58910	0.05927
415.30333	0.05901
414.01756	0.05878
412.73179	0.05858
411.44602	0.05839
410.16026	0.05818
408.87449	0.05796
407.58872	0.05775
406.30295	0.05756
405.01718	0.05736
403.73141	0.05715
402.44564	0.05695
401.15987	0.05679
399.87411	0.05667
