3996.16951	0.03863
3994.24086	0.03931
3992.31221	0.03974
3990.38355	0.03994
3988.45490	0.04026
3986.52625	0.04050
3984.59759	0.04011
3982.66894	0.03937
3980.74029	0.03904
3978.81163	0.03935
3976.88298	0.03984
3974.95433	0.03989
3973.02567	0.03954
3971.09702	0.03928
3969.16837	0.03899
3967.23972	0.03854
3965.31106	0.03840
3963.38241	0.03873
3961.45376	0.03915
3959.52510	0.03920
3957.59645	0.03882
3955.66780	0.03870
3953.73914	0.03919
3951.81049	0.03964
3949.88184	0.03933
3947.95318	0.03869
3946.02453	0.03861
3944.09588	0.03897
3942.16722	0.03911
3940.23857	0.03884
3938.30992	0.03841
3936.38126	0.03797
3934.45261	0.03738
3932.52396	0.03721
3930.59530	0.03809
3928.66665	0.03910
3926.73800	0.03908
3924.80934	0.03811
3922.88069	0.03726
3920.95204	0.03694
3919.02338	0.03704
3917.09473	0.03756
3915.16608	0.03834
3913.23742	0.03865
3911.30877	0.03855
3909.38012	0.03851
3907.45146	0.03863
3905.52281	0.03866
3903.59416	0.03836
3901.66550	0.03770
3899.73685	0.03708
3897.80820	0.03732
3895.87955	0.03826
3893.95089	0.03881
3892.02224	0.03809
3890.09359	0.03710
3888.16493	0.03668
3886.23628	0.03669
3884.30763	0.03733
3882.37897	0.03723
3880.45032	0.03634
3878.52167	0.03592
3876.59301	0.03568
3874.66436	0.03571
3872.73571	0.03606
3870.80705	0.03564
3868.87840	0.03570
3866.94975	0.03636
3865.02109	0.03658
3863.09244	0.03692
3861.16379	0.03705
3859.23513	0.03695
3857.30648	0.03675
3855.37783	0.03584
3853.44917	0.03538
3851.52052	0.03607
3849.59187	0.03631
3847.66321	0.03633
3845.73456	0.03657
3843.80591	0.03674
3841.87725	0.03694
3839.94860	0.03695
3838.01995	0.03681
3836.09129	0.03698
3834.16264	0.03665
3832.23399	0.03611
3830.30534	0.03597
3828.37668	0.03558
3826.44803	0.03505
3824.51938	0.03504
3822.59072	0.03468
3820.66207	0.03456
3818.73342	0.03463
3816.80476	0.03388
3814.87611	0.03457
3812.94746	0.03606
3811.01880	0.03651
3809.09015	0.03597
3807.16150	0.03485
3805.23284	0.03479
3803.30419	0.03470
3801.37554	0.03416
3799.44688	0.03451
3797.51823	0.03432
3795.58958	0.03369
3793.66092	0.03359
3791.73227	0.03397
3789.80362	0.03437
3787.87496	0.03425
3785.94631	0.03375
3784.01766	0.03374
3782.08900	0.03444
3780.16035	0.03478
3778.23170	0.03458
3776.30304	0.03431
3774.37439	0.03417
3772.44574	0.03395
3770.51708	0.03343
3768.58843	0.03316
3766.65978	0.03291
3764.73112	0.03292
3762.80247	0.03337
3760.87382	0.03353
3758.94517	0.03363
3757.01651	0.03374
3755.08786	0.03358
3753.15921	0.03297
3751.23055	0.03322
3749.30190	0.03463
3747.37325	0.03588
3745.44459	0.03490
3743.51594	0.03408
3741.58729	0.03406
3739.65863	0.03370
3737.72998	0.03364
3735.80133	0.03352
3733.87267	0.03313
3731.94402	0.03249
3730.01537	0.03277
3728.08671	0.03314
3726.15806	0.03305
3724.22941	0.03298
3722.30075	0.03294
3720.37210	0.03283
3718.44345	0.03252
3716.51479	0.03259
3714.58614	0.03301
3712.65749	0.03279
3710.72883	0.03239
3708.80018	0.03229
3706.87153	0.03216
3704.94287	0.03188
3703.01422	0.03178
3701.08557	0.03240
3699.15691	0.03318
3697.22826	0.03300
3695.29961	0.03249
3693.37095	0.03233
3691.44230	0.03208
3689.51365	0.03132
3687.58500	0.03123
3685.65634	0.03202
3683.72769	0.03227
3681.79904	0.03218
3679.87038	0.03265
3677.94173	0.03355
3676.01308	0.03361
3674.08442	0.03370
3672.15577	0.03318
3670.22712	0.03243
3668.29846	0.03291
3666.36981	0.03342
3664.44116	0.03360
3662.51250	0.03355
3660.58385	0.03350
3658.65520	0.03385
3656.72654	0.03445
3654.79789	0.03535
3652.86924	0.03578
3650.94058	0.03537
3649.01193	0.03505
3647.08328	0.03511
3645.15462	0.03516
3643.22597	0.03512
3641.29732	0.03510
3639.36866	0.03533
3637.44001	0.03585
3635.51136	0.03642
3633.58270	0.03724
3631.65405	0.03819
3629.72540	0.03842
3627.79674	0.03863
3625.86809	0.03898
3623.93944	0.03892
3622.01079	0.03849
3620.08213	0.03814
3618.15348	0.03905
3616.22483	0.04027
3614.29617	0.04058
3612.36752	0.04086
3610.43887	0.04147
3608.51021	0.04210
3606.58156	0.04259
3604.65291	0.04268
3602.72425	0.04275
3600.79560	0.04307
3598.86695	0.04350
3596.93829	0.04409
3595.00964	0.04506
3593.08099	0.04603
3591.15233	0.04638
3589.22368	0.04628
3587.29503	0.04642
3585.36637	0.04675
3583.43772	0.04710
3581.50907	0.04775
3579.58041	0.04850
3577.65176	0.04921
3575.72311	0.05003
3573.79445	0.05082
3571.86580	0.05120
3569.93715	0.05103
3568.00849	0.05095
3566.07984	0.05166
3564.15119	0.05260
3562.22253	0.05328
3560.29388	0.05395
3558.36523	0.05461
3556.43657	0.05504
3554.50792	0.05534
3552.57927	0.05593
3550.65062	0.05705
3548.72196	0.05805
3546.79331	0.05863
3544.86466	0.05940
3542.93600	0.06012
3541.00735	0.06022
3539.07870	0.06022
3537.15004	0.06077
3535.22139	0.06146
3533.29274	0.06190
3531.36408	0.06243
3529.43543	0.06320
3527.50678	0.06395
3525.57812	0.06472
3523.64947	0.06555
3521.72082	0.06641
3519.79216	0.06704
3517.86351	0.06732
3515.93486	0.06763
3514.00620	0.06828
3512.07755	0.06902
3510.14890	0.06944
3508.22024	0.06948
3506.29159	0.06969
3504.36294	0.07048
3502.43428	0.07129
3500.50563	0.07157
3498.57698	0.07181
3496.64832	0.07233
3494.71967	0.07276
3492.79102	0.07307
3490.86236	0.07361
3488.93371	0.07420
3487.00506	0.07451
3485.07641	0.07461
3483.14775	0.07461
3481.21910	0.07474
3479.29045	0.07527
3477.36179	0.07610
3475.43314	0.07676
3473.50449	0.07709
3471.57583	0.07750
3469.64718	0.07811
3467.71853	0.07860
3465.78987	0.07904
3463.86122	0.07948
3461.93257	0.07981
3460.00391	0.08015
3458.07526	0.08065
3456.14661	0.08128
3454.21795	0.08182
3452.28930	0.08205
3450.36065	0.08205
3448.43199	0.08211
3446.50334	0.08267
3444.57469	0.08373
3442.64603	0.08473
3440.71738	0.08521
3438.78873	0.08512
3436.86007	0.08493
3434.93142	0.08520
3433.00277	0.08576
3431.07411	0.08619
3429.14546	0.08661
3427.21681	0.08714
3425.28815	0.08760
3423.35950	0.08811
3421.43085	0.08882
3419.50219	0.08945
3417.57354	0.08977
3415.64489	0.08981
3413.71624	0.08987
3411.78758	0.09011
3409.85893	0.09041
3407.93028	0.09086
3406.00162	0.09159
3404.07297	0.09216
3402.14432	0.09238
3400.21566	0.09288
3398.28701	0.09374
3396.35836	0.09436
3394.42970	0.09460
3392.50105	0.09485
3390.57240	0.09524
3388.64374	0.09557
3386.71509	0.09567
3384.78644	0.09580
3382.85778	0.09630
3380.92913	0.09694
3379.00048	0.09716
3377.07182	0.09721
3375.14317	0.09768
3373.21452	0.09851
3371.28586	0.09934
3369.35721	0.09996
3367.42856	0.10048
3365.49990	0.10125
3363.57125	0.10215
3361.64260	0.10293
3359.71394	0.10368
3357.78529	0.10407
3355.85664	0.10411
3353.92798	0.10466
3351.99933	0.10568
3350.07068	0.10628
3348.14202	0.10661
3346.21337	0.10728
3344.28472	0.10812
3342.35607	0.10887
3340.42741	0.10969
3338.49876	0.11076
3336.57011	0.11182
3334.64145	0.11234
3332.71280	0.11250
3330.78415	0.11287
3328.85549	0.11336
3326.92684	0.11365
3324.99819	0.11371
3323.06953	0.11372
3321.14088	0.11408
3319.21223	0.11492
3317.28357	0.11562
3315.35492	0.11577
3313.42627	0.11582
3311.49761	0.11618
3309.56896	0.11671
3307.64031	0.11710
3305.71165	0.11744
3303.78300	0.11784
3301.85435	0.11813
3299.92569	0.11828
3297.99704	0.11840
3296.06839	0.11839
3294.13973	0.11813
3292.21108	0.11792
3290.28243	0.11798
3288.35377	0.11800
3286.42512	0.11780
3284.49647	0.11775
3282.56781	0.11791
3280.63916	0.11780
3278.71051	0.11738
3276.78186	0.11701
3274.85320	0.11676
3272.92455	0.11630
3270.99590	0.11548
3269.06724	0.11468
3267.13859	0.11436
3265.20994	0.11448
3263.28128	0.11456
3261.35263	0.11448
3259.42398	0.11436
3257.49532	0.11398
3255.56667	0.11335
3253.63802	0.11300
3251.70936	0.11309
3249.78071	0.11315
3247.85206	0.11271
3245.92340	0.11189
3243.99475	0.11115
3242.06610	0.11064
3240.13744	0.11033
3238.20879	0.11016
3236.28014	0.10983
3234.35148	0.10908
3232.42283	0.10822
3230.49418	0.10783
3228.56552	0.10795
3226.63687	0.10806
3224.70822	0.10773
3222.77956	0.10711
3220.85091	0.10655
3218.92226	0.10628
3216.99360	0.10621
3215.06495	0.10598
3213.13630	0.10555
3211.20764	0.10517
3209.27899	0.10488
3207.35034	0.10473
3205.42169	0.10462
3203.49303	0.10414
3201.56438	0.10331
3199.63573	0.10266
3197.70707	0.10245
3195.77842	0.10234
3193.84977	0.10203
3191.92111	0.10165
3189.99246	0.10129
3188.06381	0.10074
3186.13515	0.10008
3184.20650	0.09969
3182.27785	0.09942
3180.34919	0.09890
3178.42054	0.09821
3176.49189	0.09755
3174.56323	0.09682
3172.63458	0.09617
3170.70593	0.09577
3168.77727	0.09534
3166.84862	0.09469
3164.91997	0.09396
3162.99131	0.09321
3161.06266	0.09245
3159.13401	0.09185
3157.20535	0.09149
3155.27670	0.09123
3153.34805	0.09095
3151.41939	0.09050
3149.49074	0.08998
3147.56209	0.08937
3145.63343	0.08848
3143.70478	0.08760
3141.77613	0.08715
3139.84748	0.08708
3137.91882	0.08702
3135.99017	0.08673
3134.06152	0.08627
3132.13286	0.08584
3130.20421	0.08546
3128.27556	0.08515
3126.34690	0.08488
3124.41825	0.08451
3122.48960	0.08417
3120.56094	0.08397
3118.63229	0.08363
3116.70364	0.08315
3114.77498	0.08293
3112.84633	0.08304
3110.91768	0.08318
3108.98902	0.08311
3107.06037	0.08282
3105.13172	0.08263
3103.20306	0.08274
3101.27441	0.08295
3099.34576	0.08303
3097.41710	0.08303
3095.48845	0.08329
3093.55980	0.08388
3091.63114	0.08442
3089.70249	0.08461
3087.77384	0.08456
3085.84518	0.08456
3083.91653	0.08470
3081.98788	0.08487
3080.05922	0.08497
3078.13057	0.08495
3076.20192	0.08472
3074.27326	0.08441
3072.34461	0.08418
3070.41596	0.08395
3068.48731	0.08385
3066.55865	0.08399
3064.63000	0.08396
3062.70135	0.08354
3060.77269	0.08326
3058.84404	0.08334
3056.91539	0.08310
3054.98673	0.08222
3053.05808	0.08132
3051.12943	0.08088
3049.20077	0.08079
3047.27212	0.08064
3045.34347	0.08025
3043.41481	0.07962
3041.48616	0.07896
3039.55751	0.07850
3037.62885	0.07824
3035.70020	0.07804
3033.77155	0.07770
3031.84289	0.07704
3029.91424	0.07632
3027.98559	0.07580
3026.05693	0.07518
3024.12828	0.07438
3022.19963	0.07393
3020.27097	0.07397
3018.34232	0.07396
3016.41367	0.07363
3014.48501	0.07319
3012.55636	0.07294
3010.62771	0.07298
3008.69905	0.07303
3006.77040	0.07293
3004.84175	0.07280
3002.91309	0.07262
3000.98444	0.07236
2999.05579	0.07215
2997.12714	0.07208
2995.19848	0.07193
2993.26983	0.07187
2991.34118	0.07230
2989.41252	0.07292
2987.48387	0.07307
2985.55522	0.07308
2983.62656	0.07353
2981.69791	0.07413
2979.76926	0.07445
2977.84060	0.07478
2975.91195	0.07534
2973.98330	0.07578
2972.05464	0.07602
2970.12599	0.07623
2968.19734	0.07648
2966.26868	0.07681
2964.34003	0.07717
2962.41138	0.07744
2960.48272	0.07756
2958.55407	0.07764
2956.62542	0.07776
2954.69676	0.07784
2952.76811	0.07786
2950.83946	0.07783
2948.91080	0.07783
2946.98215	0.07813
2945.05350	0.07863
2943.12484	0.07898
2941.19619	0.07917
2939.26754	0.07944
2937.33888	0.07984
2935.41023	0.08025
2933.48158	0.08066
2931.55293	0.08124
2929.62427	0.08195
2927.69562	0.08240
2925.76697	0.08251
2923.83831	0.08255
2921.90966	0.08249
2919.98101	0.08222
2918.05235	0.08176
2916.12370	0.08083
2914.19505	0.07933
2912.26639	0.07767
2910.33774	0.07638
2908.40909	0.07563
2906.48043	0.07492
2904.55178	0.07374
2902.62313	0.07248
2900.69447	0.07177
2898.76582	0.07150
2896.83717	0.07128
2894.90851	0.07096
2892.97986	0.07058
2891.05121	0.07013
2889.12255	0.06971
2887.19390	0.06940
2885.26525	0.06917
2883.33659	0.06909
2881.40794	0.06917
2879.47929	0.06914
2877.55063	0.06892
2875.62198	0.06897
2873.69333	0.06929
2871.76467	0.06931
2869.83602	0.06887
2867.90737	0.06815
2865.97871	0.06735
2864.05006	0.06696
2862.12141	0.06704
2860.19276	0.06716
2858.26410	0.06712
2856.33545	0.06706
2854.40680	0.06720
2852.47814	0.06737
2850.54949	0.06705
2848.62084	0.06613
2846.69218	0.06509
2844.76353	0.06414
2842.83488	0.06316
2840.90622	0.06231
2838.97757	0.06168
2837.04892	0.06101
2835.12026	0.06020
2833.19161	0.05945
2831.26296	0.05893
2829.33430	0.05876
2827.40565	0.05891
2825.47700	0.05894
2823.54834	0.05865
2821.61969	0.05827
2819.69104	0.05794
2817.76238	0.05767
2815.83373	0.05751
2813.90508	0.05754
2811.97642	0.05757
2810.04777	0.05740
2808.11912	0.05709
2806.19046	0.05679
2804.26181	0.05654
2802.33316	0.05626
2800.40450	0.05589
2798.47585	0.05553
2796.54720	0.05528
2794.61855	0.05508
2792.68989	0.05488
2790.76124	0.05477
2788.83259	0.05478
2786.90393	0.05458
2784.97528	0.05417
2783.04663	0.05394
2781.11797	0.05395
2779.18932	0.05399
2777.26067	0.05387
2775.33201	0.05350
2773.40336	0.05308
2771.47471	0.05278
2769.54605	0.05249
2767.61740	0.05222
2765.68875	0.05219
2763.76009	0.05226
2761.83144	0.05202
2759.90279	0.05160
2757.97413	0.05148
2756.04548	0.05160
2754.11683	0.05155
2752.18817	0.05121
2750.25952	0.05088
2748.33087	0.05074
2746.40221	0.05066
2744.47356	0.05057
2742.54491	0.05054
2740.61625	0.05041
2738.68760	0.05008
2736.75895	0.04977
2734.83029	0.04963
2732.90164	0.04954
2730.97299	0.04946
2729.04433	0.04934
2727.11568	0.04915
2725.18703	0.04899
2723.25838	0.04890
2721.32972	0.04880
2719.40107	0.04854
2717.47242	0.04820
2715.54376	0.04801
2713.61511	0.04786
2711.68646	0.04771
2709.75780	0.04768
2707.82915	0.04763
2705.90050	0.04741
2703.97184	0.04710
2702.04319	0.04690
2700.11454	0.04693
2698.18588	0.04689
2696.25723	0.04660
2694.32858	0.04631
2692.39992	0.04625
2690.47127	0.04641
2688.54262	0.04650
2686.61396	0.04630
2684.68531	0.04598
2682.75666	0.04578
2680.82800	0.04569
2678.89935	0.04566
2676.97070	0.04564
2675.04204	0.04554
2673.11339	0.04544
2671.18474	0.04546
2669.25608	0.04550
2667.32743	0.04547
2665.39878	0.04542
2663.47012	0.04542
2661.54147	0.04549
2659.61282	0.04548
2657.68417	0.04526
2655.75551	0.04493
2653.82686	0.04471
2651.89821	0.04459
2649.96955	0.04440
2648.04090	0.04404
2646.11225	0.04366
2644.18359	0.04352
2642.25494	0.04360
2640.32629	0.04358
2638.39763	0.04327
2636.46898	0.04281
2634.54033	0.04241
2632.61167	0.04218
2630.68302	0.04207
2628.75437	0.04191
2626.82571	0.04176
2624.89706	0.04162
2622.96841	0.04135
2621.03975	0.04111
2619.11110	0.04095
2617.18245	0.04069
2615.25379	0.04036
2613.32514	0.04016
2611.39649	0.04008
2609.46783	0.03990
2607.53918	0.03949
2605.61053	0.03902
2603.68187	0.03881
2601.75322	0.03896
2599.82457	0.03911
2597.89591	0.03899
2595.96726	0.03864
2594.03861	0.03810
2592.10995	0.03758
2590.18130	0.03725
2588.25265	0.03692
2586.32400	0.03662
2584.39534	0.03658
2582.46669	0.03691
2580.53804	0.03730
2578.60938	0.03741
2576.68073	0.03728
2574.75208	0.03702
2572.82342	0.03669
2570.89477	0.03637
2568.96612	0.03605
2567.03746	0.03588
2565.10881	0.03593
2563.18016	0.03607
2561.25150	0.03612
2559.32285	0.03603
2557.39420	0.03586
2555.46554	0.03576
2553.53689	0.03568
2551.60824	0.03539
2549.67958	0.03516
2547.75093	0.03527
2545.82228	0.03547
2543.89362	0.03535
2541.96497	0.03477
2540.03632	0.03402
2538.10766	0.03362
2536.17901	0.03378
2534.25036	0.03408
2532.32170	0.03418
2530.39305	0.03409
2528.46440	0.03382
2526.53574	0.03371
2524.60709	0.03392
2522.67844	0.03398
2520.74978	0.03371
2518.82113	0.03358
2516.89248	0.03386
2514.96383	0.03417
2513.03517	0.03404
2511.10652	0.03350
2509.17787	0.03295
2507.24921	0.03275
2505.32056	0.03297
2503.39191	0.03329
2501.46325	0.03360
2499.53460	0.03384
2497.60595	0.03385
2495.67729	0.03365
2493.74864	0.03322
2491.81999	0.03262
2489.89133	0.03218
2487.96268	0.03193
2486.03403	0.03173
2484.10537	0.03166
2482.17672	0.03173
2480.24807	0.03196
2478.31941	0.03217
2476.39076	0.03197
2474.46211	0.03150
2472.53345	0.03125
2470.60480	0.03144
2468.67615	0.03173
2466.74749	0.03182
2464.81884	0.03188
2462.89019	0.03184
2460.96153	0.03165
2459.03288	0.03162
2457.10423	0.03168
2455.17557	0.03151
2453.24692	0.03147
2451.31827	0.03157
2449.38962	0.03141
2447.46096	0.03136
2445.53231	0.03173
2443.60366	0.03182
2441.67500	0.03144
2439.74635	0.03121
2437.81770	0.03130
2435.88904	0.03155
2433.96039	0.03172
2432.03174	0.03140
2430.10308	0.03079
2428.17443	0.03053
2426.24578	0.03067
2424.31712	0.03087
2422.38847	0.03094
2420.45982	0.03084
2418.53116	0.03067
2416.60251	0.03054
2414.67386	0.03046
2412.74520	0.03048
2410.81655	0.03056
2408.88790	0.03054
2406.95924	0.03049
2405.03059	0.03048
2403.10194	0.03048
2401.17328	0.03058
2399.24463	0.03072
2397.31598	0.03074
2395.38732	0.03046
2393.45867	0.03019
2391.53002	0.03015
2389.60136	0.03022
2387.67271	0.03024
2385.74406	0.03027
2383.81540	0.03040
2381.88675	0.03048
2379.95810	0.03051
2378.02945	0.03064
2376.10079	0.03105
2374.17214	0.03145
2372.24349	0.03131
2370.31483	0.03015
2368.38618	0.03102
2366.45753	0.03100
2364.52887	0.03144
2362.60022	0.03105
2360.67157	0.03179
2358.74291	0.03023
2356.81426	0.03185
2354.88561	0.03186
2352.95695	0.03135
2351.02830	0.03188
2349.09965	0.03175
2347.17099	0.03200
2345.24234	0.03215
2343.31369	0.03210
2341.38503	0.03109
2339.45638	0.03005
2337.52773	0.03089
2335.59907	0.03200
2333.67042	0.03169
2331.74177	0.03125
2329.81311	0.03116
2327.88446	0.03145
2325.95581	0.03224
2324.02715	0.03280
2322.09850	0.03242
2320.16985	0.03160
2318.24119	0.03094
2316.31254	0.03051
2314.38389	0.03032
2312.45524	0.03030
2310.52658	0.03028
2308.59793	0.03010
2306.66928	0.02974
2304.74062	0.02935
2302.81197	0.02918
2300.88332	0.02901
2298.95466	0.02882
2297.02601	0.02853
2295.09736	0.02832
2293.16870	0.02832
2291.24005	0.02850
2289.31140	0.02864
2287.38274	0.02855
2285.45409	0.02816
2283.52544	0.02766
2281.59678	0.02721
2279.66813	0.02685
2277.73948	0.02653
2275.81082	0.02605
2273.88217	0.02559
2271.95352	0.02557
2270.02486	0.02574
2268.09621	0.02549
2266.16756	0.02501
2264.23890	0.02472
2262.31025	0.02456
2260.38160	0.02428
2258.45294	0.02390
2256.52429	0.02365
2254.59564	0.02340
2252.66698	0.02292
2250.73833	0.02276
2248.80968	0.02335
2246.88102	0.02374
2244.95237	0.02367
2243.02372	0.02313
2241.09507	0.02256
2239.16641	0.02213
2237.23776	0.02168
2235.30911	0.02147
2233.38045	0.02149
2231.45180	0.02122
2229.52315	0.02072
2227.59449	0.02071
2225.66584	0.02114
2223.73719	0.02091
2221.80853	0.02013
2219.87988	0.01996
2217.95123	0.02026
2216.02257	0.02047
2214.09392	0.02047
2212.16527	0.02030
2210.23661	0.02034
2208.30796	0.02046
2206.37931	0.02006
2204.45065	0.01931
2202.52200	0.01867
2200.59335	0.01830
2198.66469	0.01843
2196.73604	0.01875
2194.80739	0.01856
2192.87873	0.01791
2190.95008	0.01729
2189.02143	0.01695
2187.09277	0.01674
2185.16412	0.01638
2183.23547	0.01617
2181.30681	0.01655
2179.37816	0.01745
2177.44951	0.01809
2175.52085	0.01760
2173.59220	0.01673
2171.66355	0.01645
2169.73490	0.01582
2167.80624	0.01498
2165.87759	0.01592
2163.94894	0.01800
2162.02028	0.01782
2160.09163	0.01448
2158.16298	0.01170
2156.23432	0.01211
2154.30567	0.01371
2152.37702	0.01478
2150.44836	0.01549
2148.51971	0.01592
2146.59106	0.01627
2144.66240	0.01667
2142.73375	0.01673
2140.80510	0.01659
2138.87644	0.01688
2136.94779	0.01734
2135.01914	0.01757
2133.09048	0.01784
2131.16183	0.01828
2129.23318	0.01880
2127.30452	0.01943
2125.37587	0.02007
2123.44722	0.02029
2121.51856	0.01999
2119.58991	0.02003
2117.66126	0.02081
2115.73260	0.02122
2113.80395	0.02067
2111.87530	0.01982
2109.94664	0.01937
2108.01799	0.01948
2106.08934	0.01992
2104.16069	0.02029
2102.23203	0.02031
2100.30338	0.02014
2098.37473	0.02028
2096.44607	0.02006
2094.51742	0.01931
2092.58877	0.01868
2090.66011	0.01863
2088.73146	0.01884
2086.80281	0.01919
2084.87415	0.01965
2082.94550	0.02000
2081.01685	0.01993
2079.08819	0.01953
2077.15954	0.01914
2075.23089	0.01910
2073.30223	0.01944
2071.37358	0.01965
2069.44493	0.01909
2067.51627	0.01808
2065.58762	0.01762
2063.65897	0.01779
2061.73031	0.01770
2059.80166	0.01690
2057.87301	0.01597
2055.94435	0.01549
2054.01570	0.01540
2052.08705	0.01568
2050.15839	0.01648
2048.22974	0.01735
2046.30109	0.01786
2044.37243	0.01786
2042.44378	0.01705
2040.51513	0.01578
2038.58647	0.01462
2036.65782	0.01340
2034.72917	0.01255
2032.80052	0.01261
2030.87186	0.01268
2028.94321	0.01235
2027.01456	0.01240
2025.08590	0.01333
2023.15725	0.01487
2021.22860	0.01587
2019.29994	0.01519
2017.37129	0.01329
2015.44264	0.01239
2013.51398	0.01385
2011.58533	0.01576
2009.65668	0.01571
2007.72802	0.01405
2005.79937	0.01249
2003.87072	0.01194
2001.94206	0.01223
2000.01341	0.01312
1998.08476	0.01447
1996.15610	0.01554
1994.22745	0.01530
1992.29880	0.01384
1990.37014	0.01246
1988.44149	0.01242
1986.51284	0.01387
1984.58418	0.01521
1982.65553	0.01507
1980.72688	0.01476
1978.79822	0.01570
1976.86957	0.01680
1974.94092	0.01688
1973.01226	0.01601
1971.08361	0.01487
1969.15496	0.01435
1967.22631	0.01416
1965.29765	0.01370
1963.36900	0.01328
1961.44035	0.01307
1959.51169	0.01309
1957.58304	0.01353
1955.65439	0.01439
1953.72573	0.01537
1951.79708	0.01584
1949.86843	0.01561
1947.93977	0.01532
1946.01112	0.01551
1944.08247	0.01589
1942.15381	0.01629
1940.22516	0.01698
1938.29651	0.01739
1936.36785	0.01689
1934.43920	0.01612
1932.51055	0.01594
1930.58189	0.01630
1928.65324	0.01683
1926.72459	0.01727
1924.79593	0.01731
1922.86728	0.01694
1920.93863	0.01663
1919.00997	0.01665
1917.08132	0.01695
1915.15267	0.01713
1913.22401	0.01708
1911.29536	0.01727
1909.36671	0.01765
1907.43805	0.01787
1905.50940	0.01791
1903.58075	0.01782
1901.65209	0.01763
1899.72344	0.01737
1897.79479	0.01714
1895.86614	0.01713
1893.93748	0.01741
1892.00883	0.01755
1890.08018	0.01728
1888.15152	0.01709
1886.22287	0.01726
1884.29422	0.01747
1882.36556	0.01740
1880.43691	0.01712
1878.50826	0.01692
1876.57960	0.01692
1874.65095	0.01731
1872.72230	0.01789
1870.79364	0.01794
1868.86499	0.01740
1866.93634	0.01686
1865.00768	0.01651
1863.07903	0.01642
1861.15038	0.01654
1859.22172	0.01673
1857.29307	0.01691
1855.36442	0.01701
1853.43576	0.01703
1851.50711	0.01704
1849.57846	0.01705
1847.64980	0.01705
1845.72115	0.01691
1843.79250	0.01680
1841.86384	0.01690
1839.93519	0.01685
1838.00654	0.01679
1836.07788	0.01687
1834.14923	0.01697
1832.22058	0.01700
1830.29192	0.01704
1828.36327	0.01724
1826.43462	0.01724
1824.50597	0.01708
1822.57731	0.01712
1820.64866	0.01720
1818.72001	0.01700
1816.79135	0.01659
1814.86270	0.01639
1812.93405	0.01641
1811.00539	0.01645
1809.07674	0.01642
1807.14809	0.01626
1805.21943	0.01615
1803.29078	0.01619
1801.36213	0.01631
1799.43347	0.01653
1797.50482	0.01684
1795.57617	0.01714
1793.64751	0.01706
1791.71886	0.01677
1789.79021	0.01676
1787.86155	0.01685
1785.93290	0.01681
1784.00425	0.01672
1782.07559	0.01664
1780.14694	0.01651
1778.21829	0.01646
1776.28963	0.01651
1774.36098	0.01645
1772.43233	0.01635
1770.50367	0.01641
1768.57502	0.01620
1766.64637	0.01602
1764.71771	0.01605
1762.78906	0.01605
1760.86041	0.01625
1758.93176	0.01645
1757.00310	0.01642
1755.07445	0.01642
1753.14580	0.01633
1751.21714	0.01626
1749.28849	0.01648
1747.35984	0.01665
1745.43118	0.01674
1743.50253	0.01684
1741.57388	0.01694
1739.64522	0.01718
1737.71657	0.01774
1735.78792	0.01786
1733.85926	0.01775
1731.93061	0.01807
1730.00196	0.01812
1728.07330	0.01802
1726.14465	0.01814
1724.21600	0.01841
1722.28734	0.01898
1720.35869	0.01964
1718.43004	0.02003
1716.50138	0.02063
1714.57273	0.02139
1712.64408	0.02203
1710.71542	0.02288
1708.78677	0.02415
1706.85812	0.02580
1704.92946	0.02795
1703.00081	0.03038
1701.07216	0.03254
1699.14350	0.03523
1697.21485	0.03777
1695.28620	0.04006
1693.35754	0.04291
1691.42889	0.04537
1689.50024	0.04788
1687.57159	0.05081
1685.64293	0.05354
1683.71428	0.05661
1681.78563	0.06003
1679.85697	0.06317
1677.92832	0.06654
1675.99967	0.07006
1674.07101	0.07394
1672.14236	0.07794
1670.21371	0.08171
1668.28505	0.08561
1666.35640	0.08949
1664.42775	0.09297
1662.49909	0.09631
1660.57044	0.09963
1658.64179	0.10277
1656.71313	0.10575
1654.78448	0.10792
1652.85583	0.10960
1650.92717	0.11166
1648.99852	0.11295
1647.06987	0.11372
1645.14121	0.11489
1643.21256	0.11609
1641.28391	0.11704
1639.35525	0.11800
1637.42660	0.11864
1635.49795	0.11898
1633.56929	0.11938
1631.64064	0.11918
1629.71199	0.11824
1627.78333	0.11689
1625.85468	0.11517
1623.92603	0.11284
1621.99738	0.11021
1620.06872	0.10741
1618.14007	0.10402
1616.21142	0.10045
1614.28276	0.09711
1612.35411	0.09353
1610.42546	0.08997
1608.49680	0.08657
1606.56815	0.08336
1604.63950	0.08040
1602.71084	0.07770
1600.78219	0.07525
1598.85354	0.07303
1596.92488	0.07106
1594.99623	0.06940
1593.06758	0.06810
1591.13892	0.06718
1589.21027	0.06657
1587.28162	0.06622
1585.35296	0.06614
1583.42431	0.06641
1581.49566	0.06706
1579.56700	0.06810
1577.63835	0.06909
1575.70970	0.07026
1573.78104	0.07197
1571.85239	0.07347
1569.92374	0.07495
1567.99508	0.07687
1566.06643	0.07889
1564.13778	0.08107
1562.20912	0.08349
1560.28047	0.08561
1558.35182	0.08789
1556.42316	0.09006
1554.49451	0.09143
1552.56586	0.09271
1550.63721	0.09389
1548.70855	0.09492
1546.77990	0.09593
1544.85125	0.09687
1542.92259	0.09769
1540.99394	0.09801
1539.06529	0.09810
1537.13663	0.09809
1535.20798	0.09725
1533.27933	0.09605
1531.35067	0.09513
1529.42202	0.09417
1527.49337	0.09318
1525.56471	0.09237
1523.63606	0.09149
1521.70741	0.09026
1519.77875	0.08922
1517.85010	0.08803
1515.92145	0.08653
1513.99279	0.08490
1512.06414	0.08321
1510.13549	0.08177
1508.20683	0.08009
1506.27818	0.07811
1504.34953	0.07630
1502.42087	0.07427
1500.49222	0.07216
1498.56357	0.07023
1496.63491	0.06829
1494.70626	0.06653
1492.77761	0.06485
1490.84895	0.06313
1488.92030	0.06167
1486.99165	0.06050
1485.06299	0.05971
1483.13434	0.05936
1481.20569	0.05940
1479.27704	0.05979
1477.34838	0.06040
1475.41973	0.06123
1473.49108	0.06217
1471.56242	0.06340
1469.63377	0.06482
1467.70512	0.06608
1465.77646	0.06718
1463.84781	0.06842
1461.91916	0.06993
1459.99050	0.07153
1458.06185	0.07296
1456.13320	0.07443
1454.20454	0.07579
1452.27589	0.07644
1450.34724	0.07672
1448.41858	0.07677
1446.48993	0.07668
1444.56128	0.07640
1442.63262	0.07585
1440.70397	0.07521
1438.77532	0.07436
1436.84666	0.07327
1434.91801	0.07225
1432.98936	0.07110
1431.06070	0.06993
1429.13205	0.06907
1427.20340	0.06851
1425.27474	0.06819
1423.34609	0.06824
1421.41744	0.06834
1419.48878	0.06825
1417.56013	0.06836
1415.63148	0.06850
1413.70283	0.06861
1411.77417	0.06881
1409.84552	0.06910
1407.91687	0.06932
1405.98821	0.06935
1404.05956	0.06931
1402.13091	0.06922
1400.20225	0.06890
1398.27360	0.06842
1396.34495	0.06779
1394.41629	0.06707
1392.48764	0.06646
1390.55899	0.06579
1388.63033	0.06499
1386.70168	0.06420
1384.77303	0.06343
1382.84437	0.06261
1380.91572	0.06183
1378.98707	0.06106
1377.05841	0.06021
1375.12976	0.05924
1373.20111	0.05824
1371.27245	0.05726
1369.34380	0.05621
1367.41515	0.05514
1365.48649	0.05406
1363.55784	0.05290
1361.62919	0.05184
1359.70053	0.05111
1357.77188	0.05076
1355.84323	0.05075
1353.91457	0.05090
1351.98592	0.05108
1350.05727	0.05133
1348.12861	0.05179
1346.19996	0.05242
1344.27131	0.05311
1342.34266	0.05371
1340.41400	0.05406
1338.48535	0.05424
1336.55670	0.05427
1334.62804	0.05412
1332.69939	0.05377
1330.77074	0.05322
1328.84208	0.05250
1326.91343	0.05177
1324.98478	0.05118
1323.05612	0.05077
1321.12747	0.05046
1319.19882	0.05014
1317.27016	0.04981
1315.34151	0.04957
1313.41286	0.04932
1311.48420	0.04889
1309.55555	0.04838
1307.62690	0.04803
1305.69824	0.04786
1303.76959	0.04763
1301.84094	0.04720
1299.91228	0.04671
1297.98363	0.04634
1296.05498	0.04619
1294.12632	0.04627
1292.19767	0.04656
1290.26902	0.04696
1288.34036	0.04738
1286.41171	0.04781
1284.48306	0.04820
1282.55440	0.04851
1280.62575	0.04874
1278.69710	0.04884
1276.76845	0.04885
1274.83979	0.04880
1272.91114	0.04874
1270.98249	0.04875
1269.05383	0.04891
1267.12518	0.04917
1265.19653	0.04948
1263.26787	0.04985
1261.33922	0.05028
1259.41057	0.05077
1257.48191	0.05126
1255.55326	0.05172
1253.62461	0.05225
1251.69595	0.05296
1249.76730	0.05382
1247.83865	0.05467
1245.90999	0.05545
1243.98134	0.05623
1242.05269	0.05694
1240.12403	0.05744
1238.19538	0.05774
1236.26673	0.05785
1234.33807	0.05771
1232.40942	0.05732
1230.48077	0.05675
1228.55211	0.05597
1226.62346	0.05493
1224.69481	0.05363
1222.76615	0.05223
1220.83750	0.05090
1218.90885	0.04975
1216.98019	0.04879
1215.05154	0.04809
1213.12289	0.04772
1211.19423	0.04763
1209.26558	0.04775
1207.33693	0.04798
1205.40828	0.04824
1203.47962	0.04846
1201.55097	0.04843
1199.62232	0.04781
1197.69366	0.04705
1195.76501	0.04617
1193.83636	0.04528
1191.90770	0.04442
1189.97905	0.04360
1188.05040	0.04285
1186.12174	0.04220
1184.19309	0.04170
1182.26444	0.04132
1180.33578	0.04101
1178.40713	0.04083
1176.47848	0.04084
1174.54982	0.04094
1172.62117	0.04101
1170.69252	0.04108
1168.76386	0.04119
1166.83521	0.04135
1164.90656	0.04164
1162.97790	0.04200
1161.04925	0.04226
1159.12060	0.04231
1157.19194	0.04224
1155.26329	0.04222
1153.33464	0.04220
1151.40598	0.04205
1149.47733	0.04183
1147.54868	0.04158
1145.62002	0.04133
1143.69137	0.04121
1141.76272	0.04120
1139.83406	0.04125
1137.90541	0.04143
1135.97676	0.04178
1134.04811	0.04222
1132.11945	0.04275
1130.19080	0.04350
1128.26215	0.04440
1126.33349	0.04531
1124.40484	0.04632
1122.47619	0.04747
1120.54753	0.04866
1118.61888	0.04989
1116.69023	0.05117
1114.76157	0.05233
1112.83292	0.05327
1110.90427	0.05427
1108.97561	0.05545
1107.04696	0.05656
1105.11831	0.05752
1103.18965	0.05853
1101.26100	0.05964
1099.33235	0.06073
1097.40369	0.06169
1095.47504	0.06252
1093.54639	0.06332
1091.61773	0.06418
1089.68908	0.06512
1087.76043	0.06618
1085.83177	0.06725
1083.90312	0.06810
1081.97447	0.06873
1080.04581	0.06925
1078.11716	0.06976
1076.18851	0.07033
1074.25985	0.07103
1072.33120	0.07161
1070.40255	0.07196
1068.47390	0.07230
1066.54524	0.07281
1064.61659	0.07346
1062.68794	0.07418
1060.75928	0.07487
1058.83063	0.07539
1056.90198	0.07574
1054.97332	0.07615
1053.04467	0.07674
1051.11602	0.07742
1049.18736	0.07810
1047.25871	0.07883
1045.33006	0.07971
1043.40140	0.08064
1041.47275	0.08148
1039.54410	0.08233
1037.61544	0.08333
1035.68679	0.08452
1033.75814	0.08582
1031.82948	0.08709
1029.90083	0.08806
1027.97218	0.08862
1026.04352	0.08889
1024.11487	0.08896
1022.18622	0.08899
1020.25756	0.08902
1018.32891	0.08906
1016.40026	0.08906
1014.47160	0.08887
1012.54295	0.08839
1010.61430	0.08760
1008.68564	0.08661
1006.75699	0.08554
1004.82834	0.08445
1002.89968	0.08339
1000.97103	0.08228
999.04238	0.08106
997.11373	0.07971
995.18507	0.07828
993.25642	0.07680
991.32777	0.07535
989.39911	0.07391
987.47046	0.07242
985.54181	0.07095
983.61315	0.06961
981.68450	0.06831
979.75585	0.06704
977.82719	0.06585
975.89854	0.06483
973.96989	0.06391
972.04123	0.06293
970.11258	0.06188
968.18393	0.06098
966.25527	0.06038
964.32662	0.05990
962.39797	0.05948
960.46931	0.05915
958.54066	0.05881
956.61201	0.05829
954.68335	0.05761
952.75470	0.05689
950.82605	0.05613
948.89739	0.05531
946.96874	0.05447
945.04009	0.05365
943.11143	0.05295
941.18278	0.05238
939.25413	0.05174
937.32547	0.05097
935.39682	0.05022
933.46817	0.04963
931.53952	0.04916
929.61086	0.04865
927.68221	0.04809
925.75356	0.04756
923.82490	0.04704
921.89625	0.04651
919.96760	0.04605
918.03894	0.04558
916.11029	0.04504
914.18164	0.04445
912.25298	0.04382
910.32433	0.04334
908.39568	0.04311
906.46702	0.04296
904.53837	0.04277
902.60972	0.04253
900.68106	0.04229
898.75241	0.04211
896.82376	0.04205
894.89510	0.04197
892.96645	0.04158
891.03780	0.04102
889.10914	0.04081
887.18049	0.04099
885.25184	0.04130
883.32318	0.04178
881.39453	0.04238
879.46588	0.04286
877.53722	0.04330
875.60857	0.04383
873.67992	0.04420
871.75126	0.04428
869.82261	0.04426
867.89396	0.04417
865.96530	0.04379
864.03665	0.04320
862.10800	0.04266
860.17935	0.04219
858.25069	0.04170
856.32204	0.04136
854.39339	0.04121
852.46473	0.04105
850.53608	0.04076
848.60743	0.04036
846.67877	0.03991
844.75012	0.03956
842.82147	0.03931
840.89281	0.03906
838.96416	0.03871
837.03551	0.03830
835.10685	0.03800
833.17820	0.03780
831.24955	0.03752
829.32089	0.03717
827.39224	0.03695
825.46359	0.03696
823.53493	0.03708
821.60628	0.03718
819.67763	0.03721
817.74897	0.03707
815.82032	0.03675
813.89167	0.03658
811.96301	0.03671
810.03436	0.03681
808.10571	0.03672
806.17705	0.03661
804.24840	0.03656
802.31975	0.03663
800.39109	0.03682
798.46244	0.03699
796.53379	0.03696
794.60513	0.03678
792.67648	0.03659
790.74783	0.03648
788.81918	0.03663
786.89052	0.03702
784.96187	0.03734
783.03322	0.03743
781.10456	0.03744
779.17591	0.03753
777.24726	0.03763
775.31860	0.03760
773.38995	0.03750
771.46130	0.03747
769.53264	0.03739
767.60399	0.03723
765.67534	0.03725
763.74668	0.03751
761.81803	0.03785
759.88938	0.03823
757.96072	0.03876
756.03207	0.03916
754.10342	0.03910
752.17476	0.03877
750.24611	0.03861
748.31746	0.03860
746.38880	0.03868
744.46015	0.03888
742.53150	0.03910
740.60284	0.03929
738.67419	0.03942
736.74554	0.03951
734.81688	0.03971
732.88823	0.04006
730.95958	0.04052
729.03092	0.04094
727.10227	0.04107
725.17362	0.04104
723.24497	0.04103
721.31631	0.04136
719.38766	0.04169
717.45901	0.04191
715.53035	0.04198
713.60170	0.04199
711.67305	0.04203
709.74439	0.04220
707.81574	0.04242
705.88709	0.04264
703.95843	0.04292
702.02978	0.04322
700.10113	0.04338
698.17247	0.04341
696.24382	0.04343
694.31517	0.04348
692.38651	0.04346
690.45786	0.04333
688.52921	0.04329
686.60055	0.04344
684.67190	0.04373
682.74325	0.04396
680.81459	0.04399
678.88594	0.04391
676.95729	0.04386
675.02863	0.04395
673.09998	0.04408
671.17133	0.04421
669.24267	0.04442
667.31402	0.04455
665.38537	0.04443
663.45671	0.04427
661.52806	0.04425
659.59941	0.04422
657.67075	0.04419
655.74210	0.04425
653.81345	0.04443
651.88480	0.04473
649.95614	0.04494
648.02749	0.04448
646.09884	0.04370
644.17018	0.04349
642.24153	0.04376
640.31288	0.04404
638.38422	0.04431
636.45557	0.04454
634.52692	0.04449
632.59826	0.04432
630.66961	0.04350
628.74096	0.04060
626.81230	0.04361
624.88365	0.04896
622.95500	0.05397
621.02634	0.05517
619.09769	0.05247
617.16904	0.04978
615.24038	0.04762
613.31173	0.04686
611.38308	0.05049
609.45442	0.05563
607.52577	0.05754
605.59712	0.05873
603.66846	0.06088
601.73981	0.06153
599.81116	0.06030
597.88250	0.05876
595.95385	0.05740
594.02520	0.05631
592.09654	0.05585
590.16789	0.05585
588.23924	0.05591
586.31059	0.05619
584.38193	0.05705
582.45328	0.05820
580.52463	0.05910
578.59597	0.05965
576.66732	0.06011
574.73867	0.06059
572.81001	0.06128
570.88136	0.06258
568.95271	0.06436
567.02405	0.06613
565.09540	0.06778
563.16675	0.06929
561.23809	0.07048
559.30944	0.07116
557.38079	0.07105
555.45213	0.07026
553.52348	0.06925
551.59483	0.06821
549.66617	0.06713
547.73752	0.06624
545.80887	0.06555
543.88021	0.06467
541.95156	0.06364
540.02291	0.06281
538.09425	0.06231
536.16560	0.06218
534.23695	0.06234
532.30829	0.06246
530.37964	0.06229
528.45099	0.06200
526.52233	0.06152
524.59368	0.06071
522.66503	0.05993
520.73637	0.05929
518.80772	0.05840
516.87907	0.05730
514.95042	0.05639
513.02176	0.05582
511.09311	0.05557
509.16446	0.05533
507.23580	0.05480
505.30715	0.05398
503.37850	0.05286
501.44984	0.05166
499.52119	0.05103
497.59254	0.05108
495.66388	0.05115
493.73523	0.05068
491.80658	0.04982
489.87792	0.04904
487.94927	0.04871
486.02062	0.04860
484.09196	0.04836
482.16331	0.04798
480.23466	0.04754
478.30600	0.04694
476.37735	0.04618
474.44870	0.04563
472.52004	0.04555
470.59139	0.04577
468.66274	0.04589
466.73408	0.04580
464.80543	0.04550
462.87678	0.04502
460.94812	0.04440
459.01947	0.04377
457.09082	0.04336
455.16216	0.04301
453.23351	0.04248
451.30486	0.04197
449.37620	0.04161
447.44755	0.04130
445.51890	0.04099
443.59025	0.04056
441.66159	0.04004
439.73294	0.03961
437.80429	0.03932
435.87563	0.03899
433.94698	0.03855
432.01833	0.03810
430.08967	0.03773
428.16102	0.03745
426.23237	0.03715
424.30371	0.03678
422.37506	0.03636
420.44641	0.03586
418.51775	0.03539
416.58910	0.03503
414.66045	0.03463
412.73179	0.03426
410.80314	0.03402
408.87449	0.03386
406.94583	0.03362
405.01718	0.03316
403.08853	0.03250
401.15987	0.03186
399.23122	0.03144
