3997.45528	0.07233
3996.16951	0.07200
3994.88374	0.07175
3993.59798	0.07170
3992.31221	0.07185
3991.02644	0.07206
3989.74067	0.07225
3988.45490	0.07246
3987.16913	0.07272
3985.88336	0.07295
3984.59759	0.07304
3983.31183	0.07302
3982.02606	0.07292
3980.74029	0.07272
3979.45452	0.07241
3978.16875	0.07209
3976.88298	0.07189
3975.59721	0.07183
3974.31144	0.07185
3973.02567	0.07195
3971.73991	0.07213
3970.45414	0.07234
3969.16837	0.07248
3967.88260	0.07253
3966.59683	0.07250
3965.31106	0.07236
3964.02529	0.07208
3962.73952	0.07175
3961.45376	0.07149
3960.16799	0.07137
3958.88222	0.07132
3957.59645	0.07126
3956.31068	0.07110
3955.02491	0.07080
3953.73914	0.07045
3952.45337	0.07027
3951.16760	0.07036
3949.88184	0.07044
3948.59607	0.07006
3947.31030	0.06923
3946.02453	0.06845
3944.73876	0.06817
3943.45299	0.06833
3942.16722	0.06856
3940.88145	0.06870
3939.59569	0.06897
3938.30992	0.06949
3937.02415	0.07001
3935.73838	0.07014
3934.45261	0.06989
3933.16684	0.06965
3931.88107	0.06968
3930.59530	0.06979
3929.30953	0.06962
3928.02377	0.06910
3926.73800	0.06853
3925.45223	0.06818
3924.16646	0.06803
3922.88069	0.06793
3921.59492	0.06786
3920.30915	0.06797
3919.02338	0.06820
3917.73762	0.06828
3916.45185	0.06805
3915.16608	0.06776
3913.88031	0.06776
3912.59454	0.06812
3911.30877	0.06856
3910.02300	0.06875
3908.73723	0.06855
3907.45146	0.06803
3906.16570	0.06740
3904.87993	0.06696
3903.59416	0.06696
3902.30839	0.06739
3901.02262	0.06801
3899.73685	0.06848
3898.45108	0.06862
3897.16531	0.06844
3895.87955	0.06801
3894.59378	0.06748
3893.30801	0.06698
3892.02224	0.06680
3890.73647	0.06716
3889.45070	0.06781
3888.16493	0.06816
3886.87916	0.06790
3885.59339	0.06738
3884.30763	0.06706
3883.02186	0.06702
3881.73609	0.06704
3880.45032	0.06707
3879.16455	0.06713
3877.87878	0.06725
3876.59301	0.06742
3875.30724	0.06767
3874.02148	0.06791
3872.73571	0.06792
3871.44994	0.06767
3870.16417	0.06749
3868.87840	0.06761
3867.59263	0.06772
3866.30686	0.06744
3865.02109	0.06692
3863.73532	0.06657
3862.44956	0.06654
3861.16379	0.06672
3859.87802	0.06696
3858.59225	0.06720
3857.30648	0.06740
3856.02071	0.06744
3854.73494	0.06729
3853.44917	0.06711
3852.16341	0.06702
3850.87764	0.06703
3849.59187	0.06705
3848.30610	0.06696
3847.02033	0.06665
3845.73456	0.06621
3844.44879	0.06596
3843.16302	0.06613
3841.87725	0.06666
3840.59149	0.06719
3839.30572	0.06741
3838.01995	0.06724
3836.73418	0.06685
3835.44841	0.06645
3834.16264	0.06630
3832.87687	0.06654
3831.59110	0.06694
3830.30534	0.06693
3829.01957	0.06609
3827.73380	0.06474
3826.44803	0.06373
3825.16226	0.06372
3823.87649	0.06456
3822.59072	0.06558
3821.30495	0.06633
3820.01918	0.06663
3818.73342	0.06639
3817.44765	0.06571
3816.16188	0.06503
3814.87611	0.06462
3813.59034	0.06417
3812.30457	0.06342
3811.01880	0.06274
3809.73303	0.06256
3808.44726	0.06287
3807.16150	0.06340
3805.87573	0.06389
3804.58996	0.06413
3803.30419	0.06401
3802.01842	0.06379
3800.73265	0.06380
3799.44688	0.06403
3798.16111	0.06414
3796.87535	0.06400
3795.58958	0.06371
3794.30381	0.06336
3793.01804	0.06314
3791.73227	0.06315
3790.44650	0.06323
3789.16073	0.06303
3787.87496	0.06244
3786.58919	0.06177
3785.30343	0.06145
3784.01766	0.06161
3782.73189	0.06193
3781.44612	0.06208
3780.16035	0.06202
3778.87458	0.06195
3777.58881	0.06195
3776.30304	0.06196
3775.01728	0.06192
3773.73151	0.06186
3772.44574	0.06182
3771.15997	0.06180
3769.87420	0.06182
3768.58843	0.06186
3767.30266	0.06188
3766.01689	0.06191
3764.73112	0.06201
3763.44536	0.06203
3762.15959	0.06178
3760.87382	0.06137
3759.58805	0.06113
3758.30228	0.06119
3757.01651	0.06136
3755.73074	0.06133
3754.44497	0.06098
3753.15921	0.06050
3751.87344	0.06024
3750.58767	0.06039
3749.30190	0.06102
3748.01613	0.06193
3746.73036	0.06253
3745.44459	0.06250
3744.15882	0.06220
3742.87305	0.06202
3741.58729	0.06189
3740.30152	0.06167
3739.01575	0.06135
3737.72998	0.06088
3736.44421	0.06023
3735.15844	0.05951
3733.87267	0.05883
3732.58690	0.05849
3731.30114	0.05874
3730.01537	0.05943
3728.72960	0.05996
3727.44383	0.05993
3726.15806	0.05941
3724.87229	0.05876
3723.58652	0.05832
3722.30075	0.05821
3721.01498	0.05832
3719.72922	0.05851
3718.44345	0.05874
3717.15768	0.05896
3715.87191	0.05899
3714.58614	0.05866
3713.30037	0.05804
3712.01460	0.05746
3710.72883	0.05720
3709.44307	0.05724
3708.15730	0.05738
3706.87153	0.05748
3705.58576	0.05756
3704.29999	0.05772
3703.01422	0.05807
3701.72845	0.05854
3700.44268	0.05878
3699.15691	0.05853
3697.87115	0.05805
3696.58538	0.05794
3695.29961	0.05832
3694.01384	0.05874
3692.72807	0.05876
3691.44230	0.05834
3690.15653	0.05776
3688.87076	0.05742
3687.58500	0.05744
3686.29923	0.05749
3685.01346	0.05733
3683.72769	0.05717
3682.44192	0.05730
3681.15615	0.05762
3679.87038	0.05784
3678.58461	0.05773
3677.29884	0.05735
3676.01308	0.05701
3674.72731	0.05703
3673.44154	0.05739
3672.15577	0.05786
3670.87000	0.05840
3669.58423	0.05900
3668.29846	0.05946
3667.01269	0.05954
3665.72693	0.05934
3664.44116	0.05910
3663.15539	0.05901
3661.86962	0.05908
3660.58385	0.05916
3659.29808	0.05897
3658.01231	0.05840
3656.72654	0.05773
3655.44077	0.05749
3654.15501	0.05789
3652.86924	0.05880
3651.58347	0.05998
3650.29770	0.06113
3649.01193	0.06191
3647.72616	0.06208
3646.44039	0.06175
3645.15462	0.06128
3643.86886	0.06103
3642.58309	0.06114
3641.29732	0.06156
3640.01155	0.06221
3638.72578	0.06301
3637.44001	0.06385
3636.15424	0.06454
3634.86847	0.06490
3633.58270	0.06491
3632.29694	0.06461
3631.01117	0.06420
3629.72540	0.06408
3628.43963	0.06462
3627.15386	0.06560
3625.86809	0.06636
3624.58232	0.06655
3623.29655	0.06635
3622.01079	0.06611
3620.72502	0.06604
3619.43925	0.06615
3618.15348	0.06629
3616.86771	0.06627
3615.58194	0.06612
3614.29617	0.06612
3613.01040	0.06654
3611.72463	0.06726
3610.43887	0.06799
3609.15310	0.06866
3607.86733	0.06953
3606.58156	0.07077
3605.29579	0.07224
3604.01002	0.07355
3602.72425	0.07438
3601.43848	0.07470
3600.15272	0.07476
3598.86695	0.07485
3597.58118	0.07510
3596.29541	0.07541
3595.00964	0.07552
3593.72387	0.07524
3592.43810	0.07479
3591.15233	0.07474
3589.86656	0.07546
3588.58080	0.07681
3587.29503	0.07818
3586.00926	0.07905
3584.72349	0.07942
3583.43772	0.07976
3582.15195	0.08041
3580.86618	0.08130
3579.58041	0.08223
3578.29464	0.08308
3577.00888	0.08378
3575.72311	0.08433
3574.43734	0.08479
3573.15157	0.08531
3571.86580	0.08592
3570.58003	0.08641
3569.29426	0.08652
3568.00849	0.08632
3566.72273	0.08624
3565.43696	0.08665
3564.15119	0.08747
3562.86542	0.08831
3561.57965	0.08884
3560.29388	0.08911
3559.00811	0.08941
3557.72234	0.08991
3556.43657	0.09051
3555.15081	0.09100
3553.86504	0.09137
3552.57927	0.09184
3551.29350	0.09268
3550.00773	0.09380
3548.72196	0.09484
3547.43619	0.09548
3546.15042	0.09575
3544.86466	0.09598
3543.57889	0.09642
3542.29312	0.09710
3541.00735	0.09789
3539.72158	0.09867
3538.43581	0.09940
3537.15004	0.10006
3535.86427	0.10072
3534.57850	0.10143
3533.29274	0.10220
3532.00697	0.10300
3530.72120	0.10379
3529.43543	0.10449
3528.14966	0.10498
3526.86389	0.10525
3525.57812	0.10549
3524.29235	0.10597
3523.00659	0.10676
3521.72082	0.10765
3520.43505	0.10839
3519.14928	0.10893
3517.86351	0.10946
3516.57774	0.11015
3515.29197	0.11090
3514.00620	0.11145
3512.72043	0.11166
3511.43467	0.11160
3510.14890	0.11153
3508.86313	0.11165
3507.57736	0.11212
3506.29159	0.11297
3505.00582	0.11413
3503.72005	0.11536
3502.43428	0.11633
3501.14852	0.11685
3499.86275	0.11704
3498.57698	0.11712
3497.29121	0.11732
3496.00544	0.11765
3494.71967	0.11806
3493.43390	0.11847
3492.14813	0.11889
3490.86236	0.11937
3489.57660	0.11991
3488.29083	0.12045
3487.00506	0.12093
3485.71929	0.12150
3484.43352	0.12233
3483.14775	0.12341
3481.86198	0.12443
3480.57621	0.12504
3479.29045	0.12517
3478.00468	0.12509
3476.71891	0.12511
3475.43314	0.12535
3474.14737	0.12570
3472.86160	0.12608
3471.57583	0.12649
3470.29006	0.12694
3469.00429	0.12741
3467.71853	0.12788
3466.43276	0.12839
3465.14699	0.12889
3463.86122	0.12932
3462.57545	0.12962
3461.28968	0.12984
3460.00391	0.13004
3458.71814	0.13032
3457.43238	0.13076
3456.14661	0.13131
3454.86084	0.13183
3453.57507	0.13219
3452.28930	0.13244
3451.00353	0.13280
3449.71776	0.13342
3448.43199	0.13423
3447.14622	0.13499
3445.86046	0.13546
3444.57469	0.13557
3443.28892	0.13552
3442.00315	0.13561
3440.71738	0.13597
3439.43161	0.13648
3438.14584	0.13699
3436.86007	0.13749
3435.57431	0.13806
3434.28854	0.13865
3433.00277	0.13907
3431.71700	0.13927
3430.43123	0.13948
3429.14546	0.13997
3427.85969	0.14074
3426.57392	0.14157
3425.28815	0.14225
3424.00239	0.14273
3422.71662	0.14306
3421.43085	0.14325
3420.14508	0.14329
3418.85931	0.14323
3417.57354	0.14319
3416.28777	0.14337
3415.00200	0.14382
3413.71624	0.14448
3412.43047	0.14517
3411.14470	0.14582
3409.85893	0.14648
3408.57316	0.14714
3407.28739	0.14772
3406.00162	0.14817
3404.71585	0.14859
3403.43008	0.14908
3402.14432	0.14961
3400.85855	0.15001
3399.57278	0.15015
3398.28701	0.15019
3397.00124	0.15030
3395.71547	0.15064
3394.42970	0.15128
3393.14393	0.15210
3391.85817	0.15286
3390.57240	0.15328
3389.28663	0.15324
3388.00086	0.15293
3386.71509	0.15276
3385.42932	0.15312
3384.14355	0.15406
3382.85778	0.15528
3381.57201	0.15636
3380.28625	0.15711
3379.00048	0.15757
3377.71471	0.15793
3376.42894	0.15832
3375.14317	0.15888
3373.85740	0.15970
3372.57163	0.16074
3371.28586	0.16188
3370.00010	0.16297
3368.71433	0.16403
3367.42856	0.16512
3366.14279	0.16623
3364.85702	0.16727
3363.57125	0.16820
3362.28548	0.16912
3360.99971	0.17019
3359.71394	0.17142
3358.42818	0.17265
3357.14241	0.17372
3355.85664	0.17466
3354.57087	0.17563
3353.28510	0.17668
3351.99933	0.17770
3350.71356	0.17855
3349.42779	0.17929
3348.14202	0.18013
3346.85626	0.18119
3345.57049	0.18240
3344.28472	0.18358
3342.99895	0.18467
3341.71318	0.18572
3340.42741	0.18679
3339.14164	0.18787
3337.85587	0.18892
3336.57011	0.18990
3335.28434	0.19080
3333.99857	0.19162
3332.71280	0.19233
3331.42703	0.19289
3330.14126	0.19329
3328.85549	0.19370
3327.56972	0.19432
3326.28395	0.19520
3324.99819	0.19610
3323.71242	0.19674
3322.42665	0.19709
3321.14088	0.19741
3319.85511	0.19796
3318.56934	0.19876
3317.28357	0.19954
3315.99780	0.20002
3314.71204	0.20023
3313.42627	0.20050
3312.14050	0.20107
3310.85473	0.20187
3309.56896	0.20262
3308.28319	0.20314
3306.99742	0.20346
3305.71165	0.20369
3304.42588	0.20389
3303.14012	0.20404
3301.85435	0.20415
3300.56858	0.20424
3299.28281	0.20435
3297.99704	0.20443
3296.71127	0.20443
3295.42550	0.20435
3294.13973	0.20424
3292.85397	0.20420
3291.56820	0.20424
3290.28243	0.20431
3288.99666	0.20431
3287.71089	0.20422
3286.42512	0.20408
3285.13935	0.20397
3283.85358	0.20393
3282.56781	0.20389
3281.28205	0.20377
3279.99628	0.20354
3278.71051	0.20333
3277.42474	0.20331
3276.13897	0.20339
3274.85320	0.20328
3273.56743	0.20276
3272.28166	0.20191
3270.99590	0.20109
3269.71013	0.20055
3268.42436	0.20027
3267.13859	0.20008
3265.85282	0.19984
3264.56705	0.19954
3263.28128	0.19921
3261.99551	0.19885
3260.70974	0.19839
3259.42398	0.19773
3258.13821	0.19681
3256.85244	0.19572
3255.56667	0.19474
3254.28090	0.19409
3252.99513	0.19374
3251.70936	0.19353
3250.42359	0.19334
3249.13783	0.19316
3247.85206	0.19293
3246.56629	0.19249
3245.28052	0.19179
3243.99475	0.19100
3242.70898	0.19036
3241.42321	0.18992
3240.13744	0.18958
3238.85167	0.18922
3237.56591	0.18885
3236.28014	0.18849
3234.99437	0.18815
3233.70860	0.18779
3232.42283	0.18730
3231.13706	0.18656
3229.85129	0.18557
3228.56552	0.18453
3227.27976	0.18366
3225.99399	0.18303
3224.70822	0.18257
3223.42245	0.18231
3222.13668	0.18232
3220.85091	0.18254
3219.56514	0.18273
3218.27937	0.18265
3216.99360	0.18222
3215.70784	0.18161
3214.42207	0.18101
3213.13630	0.18057
3211.85053	0.18027
3210.56476	0.18000
3209.27899	0.17973
3207.99322	0.17955
3206.70745	0.17946
3205.42169	0.17935
3204.13592	0.17903
3202.85015	0.17843
3201.56438	0.17763
3200.27861	0.17673
3198.99284	0.17584
3197.70707	0.17511
3196.42130	0.17467
3195.13553	0.17457
3193.84977	0.17459
3192.56400	0.17444
3191.27823	0.17389
3189.99246	0.17301
3188.70669	0.17207
3187.42092	0.17132
3186.13515	0.17085
3184.84938	0.17049
3183.56362	0.16997
3182.27785	0.16912
3180.99208	0.16811
3179.70631	0.16726
3178.42054	0.16673
3177.13477	0.16632
3175.84900	0.16580
3174.56323	0.16514
3173.27746	0.16450
3171.99170	0.16400
3170.70593	0.16358
3169.42016	0.16316
3168.13439	0.16267
3166.84862	0.16204
3165.56285	0.16129
3164.27708	0.16055
3162.99131	0.15994
3161.70555	0.15950
3160.41978	0.15910
3159.13401	0.15853
3157.84824	0.15766
3156.56247	0.15655
3155.27670	0.15542
3153.99093	0.15445
3152.70516	0.15364
3151.41939	0.15287
3150.13363	0.15207
3148.84786	0.15132
3147.56209	0.15073
3146.27632	0.15025
3144.99055	0.14975
3143.70478	0.14909
3142.41901	0.14828
3141.13324	0.14743
3139.84748	0.14671
3138.56171	0.14618
3137.27594	0.14579
3135.99017	0.14544
3134.70440	0.14510
3133.41863	0.14479
3132.13286	0.14447
3130.84709	0.14408
3129.56132	0.14360
3128.27556	0.14308
3126.98979	0.14256
3125.70402	0.14209
3124.41825	0.14178
3123.13248	0.14178
3121.84671	0.14205
3120.56094	0.14231
3119.27517	0.14223
3117.98940	0.14177
3116.70364	0.14122
3115.41787	0.14087
3114.13210	0.14079
3112.84633	0.14091
3111.56056	0.14116
3110.27479	0.14154
3108.98902	0.14194
3107.70325	0.14214
3106.41749	0.14199
3105.13172	0.14163
3103.84595	0.14136
3102.56018	0.14131
3101.27441	0.14138
3099.98864	0.14144
3098.70287	0.14158
3097.41710	0.14188
3096.13133	0.14229
3094.84557	0.14266
3093.55980	0.14295
3092.27403	0.14320
3090.98826	0.14338
3089.70249	0.14343
3088.41672	0.14339
3087.13095	0.14345
3085.84518	0.14373
3084.55942	0.14416
3083.27365	0.14456
3081.98788	0.14487
3080.70211	0.14511
3079.41634	0.14532
3078.13057	0.14554
3076.84480	0.14574
3075.55903	0.14585
3074.27326	0.14583
3072.98750	0.14573
3071.70173	0.14564
3070.41596	0.14561
3069.13019	0.14559
3067.84442	0.14555
3066.55865	0.14549
3065.27288	0.14538
3063.98711	0.14515
3062.70135	0.14472
3061.41558	0.14414
3060.12981	0.14350
3058.84404	0.14288
3057.55827	0.14231
3056.27250	0.14179
3054.98673	0.14131
3053.70096	0.14083
3052.41519	0.14038
3051.12943	0.13994
3049.84366	0.13945
3048.55789	0.13881
3047.27212	0.13807
3045.98635	0.13735
3044.70058	0.13672
3043.41481	0.13615
3042.12904	0.13557
3040.84328	0.13500
3039.55751	0.13453
3038.27174	0.13418
3036.98597	0.13379
3035.70020	0.13321
3034.41443	0.13245
3033.12866	0.13164
3031.84289	0.13090
3030.55712	0.13024
3029.27136	0.12964
3027.98559	0.12908
3026.69982	0.12855
3025.41405	0.12802
3024.12828	0.12747
3022.84251	0.12691
3021.55674	0.12639
3020.27097	0.12592
3018.98521	0.12547
3017.69944	0.12499
3016.41367	0.12453
3015.12790	0.12417
3013.84213	0.12394
3012.55636	0.12378
3011.27059	0.12361
3009.98482	0.12338
3008.69905	0.12308
3007.41329	0.12273
3006.12752	0.12235
3004.84175	0.12200
3003.55598	0.12173
3002.27021	0.12158
3000.98444	0.12157
2999.69867	0.12172
2998.41290	0.12203
2997.12714	0.12244
2995.84137	0.12288
2994.55560	0.12324
2993.26983	0.12352
2991.98406	0.12374
2990.69829	0.12394
2989.41252	0.12416
2988.12675	0.12443
2986.84098	0.12476
2985.55522	0.12513
2984.26945	0.12554
2982.98368	0.12596
2981.69791	0.12640
2980.41214	0.12685
2979.12637	0.12731
2977.84060	0.12785
2976.55483	0.12850
2975.26907	0.12912
2973.98330	0.12951
2972.69753	0.12959
2971.41176	0.12959
2970.12599	0.12978
2968.84022	0.13026
2967.55445	0.13089
2966.26868	0.13155
2964.98291	0.13227
2963.69715	0.13306
2962.41138	0.13384
2961.12561	0.13450
2959.83984	0.13505
2958.55407	0.13555
2957.26830	0.13598
2955.98253	0.13620
2954.69676	0.13615
2953.41100	0.13591
2952.12523	0.13564
2950.83946	0.13549
2949.55369	0.13556
2948.26792	0.13587
2946.98215	0.13635
2945.69638	0.13687
2944.41061	0.13736
2943.12484	0.13788
2941.83908	0.13855
2940.55331	0.13940
2939.26754	0.14036
2937.98177	0.14130
2936.69600	0.14210
2935.41023	0.14268
2934.12446	0.14311
2932.83869	0.14359
2931.55293	0.14429
2930.26716	0.14515
2928.98139	0.14595
2927.69562	0.14652
2926.40985	0.14687
2925.12408	0.14717
2923.83831	0.14754
2922.55254	0.14796
2921.26677	0.14820
2919.98101	0.14807
2918.69524	0.14751
2917.40947	0.14656
2916.12370	0.14524
2914.83793	0.14356
2913.55216	0.14161
2912.26639	0.13953
2910.98062	0.13747
2909.69486	0.13553
2908.40909	0.13381
2907.12332	0.13238
2905.83755	0.13121
2904.55178	0.13018
2903.26601	0.12914
2901.98024	0.12799
2900.69447	0.12675
2899.40870	0.12560
2898.12294	0.12477
2896.83717	0.12434
2895.55140	0.12411
2894.26563	0.12385
2892.97986	0.12348
2891.69409	0.12307
2890.40832	0.12266
2889.12255	0.12224
2887.83678	0.12184
2886.55102	0.12158
2885.26525	0.12152
2883.97948	0.12159
2882.69371	0.12165
2881.40794	0.12163
2880.12217	0.12158
2878.83640	0.12160
2877.55063	0.12177
2876.26487	0.12200
2874.97910	0.12216
2873.69333	0.12208
2872.40756	0.12171
2871.12179	0.12116
2869.83602	0.12057
2868.55025	0.12002
2867.26448	0.11948
2865.97871	0.11891
2864.69295	0.11835
2863.40718	0.11796
2862.12141	0.11783
2860.83564	0.11801
2859.54987	0.11841
2858.26410	0.11891
2856.97833	0.11940
2855.69256	0.11982
2854.40680	0.12023
2853.12103	0.12067
2851.83526	0.12100
2850.54949	0.12097
2849.26372	0.12032
2847.97795	0.11897
2846.69218	0.11706
2845.40641	0.11494
2844.12064	0.11301
2842.83488	0.11152
2841.54911	0.11045
2840.26334	0.10965
2838.97757	0.10893
2837.69180	0.10814
2836.40603	0.10719
2835.12026	0.10613
2833.83449	0.10512
2832.54873	0.10433
2831.26296	0.10383
2829.97719	0.10359
2828.69142	0.10356
2827.40565	0.10359
2826.11988	0.10354
2824.83411	0.10330
2823.54834	0.10289
2822.26257	0.10243
2820.97681	0.10198
2819.69104	0.10153
2818.40527	0.10108
2817.11950	0.10072
2815.83373	0.10045
2814.54796	0.10020
2813.26219	0.09992
2811.97642	0.09961
2810.69066	0.09930
2809.40489	0.09902
2808.11912	0.09880
2806.83335	0.09866
2805.54758	0.09857
2804.26181	0.09846
2802.97604	0.09822
2801.69027	0.09787
2800.40450	0.09752
2799.11874	0.09727
2797.83297	0.09711
2796.54720	0.09696
2795.26143	0.09676
2793.97566	0.09653
2792.68989	0.09632
2791.40412	0.09617
2790.11835	0.09602
2788.83259	0.09579
2787.54682	0.09544
2786.26105	0.09504
2784.97528	0.09475
2783.68951	0.09471
2782.40374	0.09482
2781.11797	0.09490
2779.83220	0.09478
2778.54643	0.09446
2777.26067	0.09414
2775.97490	0.09399
2774.68913	0.09399
2773.40336	0.09396
2772.11759	0.09369
2770.83182	0.09319
2769.54605	0.09267
2768.26028	0.09230
2766.97452	0.09211
2765.68875	0.09201
2764.40298	0.09192
2763.11721	0.09181
2761.83144	0.09173
2760.54567	0.09167
2759.25990	0.09163
2757.97413	0.09155
2756.68836	0.09138
2755.40260	0.09112
2754.11683	0.09080
2752.83106	0.09044
2751.54529	0.09005
2750.25952	0.08969
2748.97375	0.08942
2747.68798	0.08925
2746.40221	0.08912
2745.11645	0.08894
2743.83068	0.08870
2742.54491	0.08848
2741.25914	0.08829
2739.97337	0.08811
2738.68760	0.08791
2737.40183	0.08767
2736.11606	0.08742
2734.83029	0.08719
2733.54453	0.08698
2732.25876	0.08678
2730.97299	0.08660
2729.68722	0.08645
2728.40145	0.08632
2727.11568	0.08616
2725.82991	0.08596
2724.54414	0.08569
2723.25838	0.08536
2721.97261	0.08499
2720.68684	0.08465
2719.40107	0.08441
2718.11530	0.08433
2716.82953	0.08438
2715.54376	0.08448
2714.25799	0.08451
2712.97222	0.08439
2711.68646	0.08415
2710.40069	0.08391
2709.11492	0.08374
2707.82915	0.08361
2706.54338	0.08347
2705.25761	0.08335
2703.97184	0.08327
2702.68607	0.08323
2701.40031	0.08317
2700.11454	0.08304
2698.82877	0.08280
2697.54300	0.08249
2696.25723	0.08218
2694.97146	0.08200
2693.68569	0.08198
2692.39992	0.08207
2691.11415	0.08213
2689.82839	0.08207
2688.54262	0.08190
2687.25685	0.08167
2685.97108	0.08149
2684.68531	0.08138
2683.39954	0.08128
2682.11377	0.08115
2680.82800	0.08101
2679.54224	0.08098
2678.25647	0.08111
2676.97070	0.08130
2675.68493	0.08139
2674.39916	0.08130
2673.11339	0.08107
2671.82762	0.08081
2670.54185	0.08062
2669.25608	0.08056
2667.97032	0.08056
2666.68455	0.08055
2665.39878	0.08043
2664.11301	0.08021
2662.82724	0.07997
2661.54147	0.07985
2660.25570	0.07986
2658.96993	0.07994
2657.68417	0.07999
2656.39840	0.07996
2655.11263	0.07981
2653.82686	0.07957
2652.54109	0.07927
2651.25532	0.07894
2649.96955	0.07860
2648.68378	0.07819
2647.39801	0.07768
2646.11225	0.07715
2644.82648	0.07675
2643.54071	0.07659
2642.25494	0.07660
2640.96917	0.07650
2639.68340	0.07614
2638.39763	0.07559
2637.11186	0.07502
2635.82609	0.07461
2634.54033	0.07440
2633.25456	0.07434
2631.96879	0.07435
2630.68302	0.07430
2629.39725	0.07417
2628.11148	0.07401
2626.82571	0.07392
2625.53994	0.07383
2624.25418	0.07360
2622.96841	0.07314
2621.68264	0.07256
2620.39687	0.07206
2619.11110	0.07175
2617.82533	0.07155
2616.53956	0.07132
2615.25379	0.07104
2613.96802	0.07076
2612.68226	0.07057
2611.39649	0.07052
2610.11072	0.07050
2608.82495	0.07039
2607.53918	0.07012
2606.25341	0.06979
2604.96764	0.06948
2603.68187	0.06920
2602.39611	0.06891
2601.11034	0.06861
2599.82457	0.06839
2598.53880	0.06825
2597.25303	0.06820
2595.96726	0.06817
2594.68149	0.06807
2593.39572	0.06788
2592.10995	0.06768
2590.82419	0.06760
2589.53842	0.06763
2588.25265	0.06756
2586.96688	0.06724
2585.68111	0.06674
2584.39534	0.06625
2583.10957	0.06594
2581.82380	0.06585
2580.53804	0.06596
2579.25227	0.06617
2577.96650	0.06631
2576.68073	0.06630
2575.39496	0.06617
2574.10919	0.06600
2572.82342	0.06579
2571.53765	0.06561
2570.25188	0.06551
2568.96612	0.06548
2567.68035	0.06547
2566.39458	0.06536
2565.10881	0.06510
2563.82304	0.06472
2562.53727	0.06437
2561.25150	0.06412
2559.96573	0.06390
2558.67997	0.06350
2557.39420	0.06289
2556.10843	0.06232
2554.82266	0.06208
2553.53689	0.06216
2552.25112	0.06230
2550.96535	0.06223
2549.67958	0.06201
2548.39381	0.06195
2547.10805	0.06223
2545.82228	0.06265
2544.53651	0.06286
2543.25074	0.06268
2541.96497	0.06225
2540.67920	0.06181
2539.39343	0.06145
2538.10766	0.06114
2536.82190	0.06087
2535.53613	0.06070
2534.25036	0.06059
2532.96459	0.06036
2531.67882	0.05997
2530.39305	0.05963
2529.10728	0.05957
2527.82151	0.05972
2526.53574	0.05981
2525.24998	0.05973
2523.96421	0.05956
2522.67844	0.05943
2521.39267	0.05942
2520.10690	0.05951
2518.82113	0.05966
2517.53536	0.05977
2516.24959	0.05980
2514.96383	0.05976
2513.67806	0.05970
2512.39229	0.05962
2511.10652	0.05951
2509.82075	0.05930
2508.53498	0.05904
2507.24921	0.05885
2505.96344	0.05888
2504.67767	0.05913
2503.39191	0.05935
2502.10614	0.05924
2500.82037	0.05878
2499.53460	0.05829
2498.24883	0.05806
2496.96306	0.05806
2495.67729	0.05801
2494.39152	0.05775
2493.10576	0.05735
2491.81999	0.05697
2490.53422	0.05669
2489.24845	0.05655
2487.96268	0.05658
2486.67691	0.05670
2485.39114	0.05673
2484.10537	0.05657
2482.81960	0.05633
2481.53384	0.05616
2480.24807	0.05614
2478.96230	0.05627
2477.67653	0.05657
2476.39076	0.05698
2475.10499	0.05726
2473.81922	0.05724
2472.53345	0.05700
2471.24769	0.05680
2469.96192	0.05675
2468.67615	0.05674
2467.39038	0.05664
2466.10461	0.05645
2464.81884	0.05630
2463.53307	0.05628
2462.24730	0.05634
2460.96153	0.05629
2459.67577	0.05602
2458.39000	0.05568
2457.10423	0.05554
2455.81846	0.05568
2454.53269	0.05597
2453.24692	0.05622
2451.96115	0.05635
2450.67538	0.05632
2449.38962	0.05624
2448.10385	0.05621
2446.81808	0.05625
2445.53231	0.05619
2444.24654	0.05594
2442.96077	0.05559
2441.67500	0.05534
2440.38923	0.05522
2439.10346	0.05516
2437.81770	0.05510
2436.53193	0.05505
2435.24616	0.05503
2433.96039	0.05506
2432.67462	0.05504
2431.38885	0.05487
2430.10308	0.05457
2428.81731	0.05431
2427.53155	0.05424
2426.24578	0.05427
2424.96001	0.05430
2423.67424	0.05430
2422.38847	0.05428
2421.10270	0.05421
2419.81693	0.05408
2418.53116	0.05403
2417.24539	0.05416
2415.95963	0.05441
2414.67386	0.05456
2413.38809	0.05452
2412.10232	0.05434
2410.81655	0.05417
2409.53078	0.05399
2408.24501	0.05370
2406.95924	0.05328
2405.67347	0.05290
2404.38771	0.05274
2403.10194	0.05288
2401.81617	0.05323
2400.53040	0.05356
2399.24463	0.05362
2397.95886	0.05355
2396.67309	0.05344
2395.38732	0.05338
2394.10156	0.05339
2392.81579	0.05346
2391.53002	0.05354
2390.24425	0.05362
2388.95848	0.05372
2387.67271	0.05381
2386.38694	0.05387
2385.10117	0.05395
2383.81540	0.05407
2382.52964	0.05419
2381.24387	0.05424
2379.95810	0.05419
2378.67233	0.05413
2377.38656	0.05411
2376.10079	0.05407
2374.81502	0.05390
2373.52925	0.05369
2372.24349	0.05363
2370.95772	0.05384
2369.67195	0.05420
2368.38618	0.05456
2367.10041	0.05485
2365.81464	0.05504
2364.52887	0.05507
2363.24310	0.05501
2361.95733	0.05502
2360.67157	0.05519
2359.38580	0.05528
2358.10003	0.05510
2356.81426	0.05480
2355.52849	0.05459
2354.24272	0.05456
2352.95695	0.05464
2351.67118	0.05480
2350.38542	0.05487
2349.09965	0.05473
2347.81388	0.05458
2346.52811	0.05476
2345.24234	0.05498
2343.95657	0.05465
2342.67080	0.05402
2341.38503	0.05412
2340.09926	0.05487
2338.81350	0.05489
2337.52773	0.05414
2336.24196	0.05428
2334.95619	0.05506
2333.67042	0.05478
2332.38465	0.05391
2331.09888	0.05412
2329.81311	0.05448
2328.52735	0.05405
2327.24158	0.05448
2325.95581	0.05543
2324.67004	0.05544
2323.38427	0.05537
2322.09850	0.05546
2320.81273	0.05477
2319.52696	0.05417
2318.24119	0.05380
2316.95543	0.05309
2315.66966	0.05264
2314.38389	0.05234
2313.09812	0.05183
2311.81235	0.05145
2310.52658	0.05106
2309.24081	0.05074
2307.95504	0.05065
2306.66928	0.05053
2305.38351	0.05043
2304.09774	0.05030
2302.81197	0.05012
2301.52620	0.04997
2300.24043	0.04977
2298.95466	0.04952
2297.66889	0.04918
2296.38312	0.04877
2295.09736	0.04836
2293.81159	0.04802
2292.52582	0.04782
2291.24005	0.04767
2289.95428	0.04747
2288.66851	0.04717
2287.38274	0.04686
2286.09697	0.04665
2284.81121	0.04658
2283.52544	0.04658
2282.23967	0.04649
2280.95390	0.04622
2279.66813	0.04587
2278.38236	0.04559
2277.09659	0.04541
2275.81082	0.04519
2274.52505	0.04471
2273.23929	0.04395
2271.95352	0.04314
2270.66775	0.04248
2269.38198	0.04198
2268.09621	0.04152
2266.81044	0.04109
2265.52467	0.04085
2264.23890	0.04089
2262.95314	0.04111
2261.66737	0.04132
2260.38160	0.04139
2259.09583	0.04142
2257.81006	0.04155
2256.52429	0.04179
2255.23852	0.04189
2253.95275	0.04158
2252.66698	0.04079
2251.38122	0.03978
2250.09545	0.03906
2248.80968	0.03898
2247.52391	0.03926
2246.23814	0.03998
2244.95237	0.04076
2243.66660	0.04105
2242.38083	0.04057
2241.09507	0.03961
2239.80930	0.03894
2238.52353	0.03902
2237.23776	0.03959
2235.95199	0.03999
2234.66622	0.03983
2233.38045	0.03924
2232.09468	0.03859
2230.80891	0.03812
2229.52315	0.03792
2228.23738	0.03796
2226.95161	0.03809
2225.66584	0.03808
2224.38007	0.03775
2223.09430	0.03714
2221.80853	0.03649
2220.52276	0.03606
2219.23700	0.03588
2217.95123	0.03581
2216.66546	0.03578
2215.37969	0.03579
2214.09392	0.03586
2212.80815	0.03592
2211.52238	0.03591
2210.23661	0.03576
2208.95084	0.03556
2207.66508	0.03560
2206.37931	0.03616
2205.09354	0.03710
2203.80777	0.03789
2202.52200	0.03802
2201.23623	0.03744
2199.95046	0.03650
2198.66469	0.03569
2197.37893	0.03525
2196.09316	0.03506
2194.80739	0.03485
2193.52162	0.03450
2192.23585	0.03404
2190.95008	0.03352
2189.66431	0.03299
2188.37854	0.03261
2187.09277	0.03252
2185.80701	0.03249
2184.52124	0.03211
2183.23547	0.03138
2181.94970	0.03084
2180.66393	0.03088
2179.37816	0.03129
2178.09239	0.03159
2176.80662	0.03168
2175.52085	0.03177
2174.23509	0.03193
2172.94932	0.03198
2171.66355	0.03167
2170.37778	0.03086
2169.09201	0.02961
2167.80624	0.02822
2166.52047	0.02699
2165.23470	0.02609
2163.94894	0.02563
2162.66317	0.02561
2161.37740	0.02578
2160.09163	0.02565
2158.80586	0.02496
2157.52009	0.02392
2156.23432	0.02306
2154.94855	0.02296
2153.66278	0.02393
2152.37702	0.02566
2151.09125	0.02730
2149.80548	0.02814
2148.51971	0.02824
2147.23394	0.02813
2145.94817	0.02816
2144.66240	0.02834
2143.37663	0.02853
2142.09087	0.02856
2140.80510	0.02838
2139.51933	0.02824
2138.23356	0.02854
2136.94779	0.02949
2135.66202	0.03091
2134.37625	0.03235
2133.09048	0.03341
2131.80471	0.03406
2130.51895	0.03447
2129.23318	0.03476
2127.94741	0.03488
2126.66164	0.03494
2125.37587	0.03515
2124.09010	0.03561
2122.80433	0.03611
2121.51856	0.03644
2120.23280	0.03665
2118.94703	0.03688
2117.66126	0.03708
2116.37549	0.03704
2115.08972	0.03666
2113.80395	0.03606
2112.51818	0.03550
2111.23241	0.03521
2109.94664	0.03529
2108.66088	0.03568
2107.37511	0.03622
2106.08934	0.03671
2104.80357	0.03692
2103.51780	0.03681
2102.23203	0.03656
2100.94626	0.03648
2099.66049	0.03720
2098.37473	0.03738
2097.08896	0.03690
2095.80319	0.03615
2094.51742	0.03544
2093.23165	0.03494
2091.94588	0.03461
2090.66011	0.03428
2089.37434	0.03385
2088.08857	0.03343
2086.80281	0.03329
2085.51704	0.03346
2084.23127	0.03372
2082.94550	0.03380
2081.65973	0.03363
2080.37396	0.03337
2079.08819	0.03320
2077.80242	0.03313
2076.51666	0.03310
2075.23089	0.03312
2073.94512	0.03323
2072.65935	0.03335
2071.37358	0.03323
2070.08781	0.03276
2068.80204	0.03221
2067.51627	0.03200
2066.23050	0.03220
2064.94474	0.03249
2063.65897	0.03244
2062.37320	0.03191
2061.08743	0.03109
2059.80166	0.03022
2058.51589	0.02943
2057.23012	0.02863
2055.94435	0.02779
2054.65859	0.02705
2053.37282	0.02666
2052.08705	0.02679
2050.80128	0.02739
2049.51551	0.02816
2048.22974	0.02868
2046.94397	0.02868
2045.65820	0.02817
2044.37243	0.02749
2043.08667	0.02699
2041.80090	0.02677
2040.51513	0.02667
2039.22936	0.02646
2037.94359	0.02605
2036.65782	0.02556
2035.37205	0.02509
2034.08628	0.02469
2032.80052	0.02432
2031.51475	0.02403
2030.22898	0.02404
2028.94321	0.02450
2027.65744	0.02534
2026.37167	0.02634
2025.08590	0.02728
2023.80013	0.02792
2022.51436	0.02798
2021.22860	0.02725
2019.94283	0.02591
2018.65706	0.02439
2017.37129	0.02317
2016.08552	0.02265
2014.79975	0.02304
2013.51398	0.02424
2012.22821	0.02570
2010.94245	0.02678
2009.65668	0.02713
2008.37091	0.02674
2007.08514	0.02581
2005.79937	0.02471
2004.51360	0.02391
2003.22783	0.02363
2001.94206	0.02375
2000.65629	0.02402
1999.37053	0.02429
1998.08476	0.02453
1996.79899	0.02468
1995.51322	0.02474
1994.22745	0.02472
1992.94168	0.02461
1991.65591	0.02434
1990.37014	0.02396
1989.08438	0.02366
1987.79861	0.02359
1986.51284	0.02363
1985.22707	0.02371
1983.94130	0.02402
1982.65553	0.02481
1981.36976	0.02592
1980.08399	0.02671
1978.79822	0.02661
1977.51246	0.02568
1976.22669	0.02463
1974.94092	0.02424
1973.65515	0.02480
1972.36938	0.02597
1971.08361	0.02708
1969.79784	0.02754
1968.51207	0.02722
1967.22631	0.02645
1965.94054	0.02577
1964.65477	0.02549
1963.36900	0.02550
1962.08323	0.02551
1960.79746	0.02536
1959.51169	0.02515
1958.22592	0.02507
1956.94015	0.02520
1955.65439	0.02545
1954.36862	0.02570
1953.08285	0.02596
1951.79708	0.02636
1950.51131	0.02691
1949.22554	0.02739
1947.93977	0.02754
1946.65400	0.02735
1945.36823	0.02710
1944.08247	0.02707
1942.79670	0.02729
1941.51093	0.02760
1940.22516	0.02786
1938.93939	0.02805
1937.65362	0.02826
1936.36785	0.02850
1935.08208	0.02862
1933.79632	0.02852
1932.51055	0.02827
1931.22478	0.02808
1929.93901	0.02810
1928.65324	0.02833
1927.36747	0.02868
1926.08170	0.02905
1924.79593	0.02931
1923.51016	0.02937
1922.22440	0.02929
1920.93863	0.02922
1919.65286	0.02921
1918.36709	0.02920
1917.08132	0.02917
1915.79555	0.02920
1914.50978	0.02934
1913.22401	0.02957
1911.93825	0.02976
1910.65248	0.02979
1909.36671	0.02963
1908.08094	0.02937
1906.79517	0.02918
1905.50940	0.02920
1904.22363	0.02945
1902.93786	0.02979
1901.65209	0.03000
1900.36633	0.02993
1899.08056	0.02960
1897.79479	0.02923
1896.50902	0.02901
1895.22325	0.02901
1893.93748	0.02911
1892.65171	0.02918
1891.36594	0.02923
1890.08018	0.02935
1888.79441	0.02959
1887.50864	0.02982
1886.22287	0.02986
1884.93710	0.02967
1883.65133	0.02940
1882.36556	0.02920
1881.07979	0.02911
1879.79402	0.02911
1878.50826	0.02917
1877.22249	0.02927
1875.93672	0.02936
1874.65095	0.02943
1873.36518	0.02947
1872.07941	0.02949
1870.79364	0.02945
1869.50787	0.02932
1868.22211	0.02917
1866.93634	0.02904
1865.65057	0.02890
1864.36480	0.02868
1863.07903	0.02839
1861.79326	0.02818
1860.50749	0.02815
1859.22172	0.02828
1857.93595	0.02841
1856.65019	0.02843
1855.36442	0.02839
1854.07865	0.02838
1852.79288	0.02840
1851.50711	0.02843
1850.22134	0.02842
1848.93557	0.02840
1847.64980	0.02836
1846.36404	0.02828
1845.07827	0.02821
1843.79250	0.02819
1842.50673	0.02823
1841.22096	0.02825
1839.93519	0.02820
1838.64942	0.02812
1837.36365	0.02803
1836.07788	0.02795
1834.79212	0.02795
1833.50635	0.02809
1832.22058	0.02831
1830.93481	0.02845
1829.64904	0.02848
1828.36327	0.02843
1827.07750	0.02834
1825.79173	0.02823
1824.50597	0.02814
1823.22020	0.02808
1821.93443	0.02801
1820.64866	0.02793
1819.36289	0.02782
1818.07712	0.02766
1816.79135	0.02743
1815.50558	0.02721
1814.21981	0.02708
1812.93405	0.02705
1811.64828	0.02707
1810.36251	0.02705
1809.07674	0.02699
1807.79097	0.02692
1806.50520	0.02687
1805.21943	0.02684
1803.93366	0.02679
1802.64790	0.02674
1801.36213	0.02670
1800.07636	0.02667
1798.79059	0.02661
1797.50482	0.02654
1796.21905	0.02652
1794.93328	0.02659
1793.64751	0.02669
1792.36174	0.02677
1791.07598	0.02675
1789.79021	0.02662
1788.50444	0.02639
1787.21867	0.02614
1785.93290	0.02599
1784.64713	0.02596
1783.36136	0.02602
1782.07559	0.02604
1780.78983	0.02596
1779.50406	0.02580
1778.21829	0.02563
1776.93252	0.02548
1775.64675	0.02537
1774.36098	0.02526
1773.07521	0.02518
1771.78944	0.02518
1770.50367	0.02522
1769.21791	0.02520
1767.93214	0.02518
1766.64637	0.02520
1765.36060	0.02524
1764.07483	0.02520
1762.78906	0.02505
1761.50329	0.02487
1760.21752	0.02474
1758.93176	0.02466
1757.64599	0.02469
1756.36022	0.02486
1755.07445	0.02514
1753.78868	0.02542
1752.50291	0.02560
1751.21714	0.02572
1749.93137	0.02579
1748.64560	0.02581
1747.35984	0.02579
1746.07407	0.02582
1744.78830	0.02596
1743.50253	0.02619
1742.21676	0.02644
1740.93099	0.02665
1739.64522	0.02689
1738.35945	0.02729
1737.07369	0.02776
1735.78792	0.02814
1734.50215	0.02840
1733.21638	0.02864
1731.93061	0.02887
1730.64484	0.02906
1729.35907	0.02920
1728.07330	0.02942
1726.78753	0.02975
1725.50177	0.03020
1724.21600	0.03075
1722.93023	0.03137
1721.64446	0.03205
1720.35869	0.03279
1719.07292	0.03361
1717.78715	0.03453
1716.50138	0.03554
1715.21561	0.03657
1713.92985	0.03765
1712.64408	0.03889
1711.35831	0.04037
1710.07254	0.04204
1708.78677	0.04382
1707.50100	0.04563
1706.21523	0.04748
1704.92946	0.04945
1703.64370	0.05158
1702.35793	0.05383
1701.07216	0.05622
1699.78639	0.05885
1698.50062	0.06161
1697.21485	0.06428
1695.92908	0.06686
1694.64331	0.06951
1693.35754	0.07216
1692.07178	0.07472
1690.78601	0.07731
1689.50024	0.08010
1688.21447	0.08314
1686.92870	0.08637
1685.64293	0.08973
1684.35716	0.09323
1683.07139	0.09679
1681.78563	0.10030
1680.49986	0.10383
1679.21409	0.10761
1677.92832	0.11171
1676.64255	0.11603
1675.35678	0.12055
1674.07101	0.12527
1672.78524	0.13017
1671.49947	0.13516
1670.21371	0.14024
1668.92794	0.14535
1667.64217	0.15037
1666.35640	0.15524
1665.07063	0.15998
1663.78486	0.16466
1662.49909	0.16927
1661.21332	0.17372
1659.92756	0.17788
1658.64179	0.18174
1657.35602	0.18540
1656.07025	0.18891
1654.78448	0.19224
1653.49871	0.19540
1652.21294	0.19840
1650.92717	0.20108
1649.64140	0.20327
1648.35564	0.20509
1647.06987	0.20683
1645.78410	0.20861
1644.49833	0.21039
1643.21256	0.21212
1641.92679	0.21384
1640.64102	0.21563
1639.35525	0.21748
1638.06949	0.21927
1636.78372	0.22087
1635.49795	0.22227
1634.21218	0.22345
1632.92641	0.22435
1631.64064	0.22489
1630.35487	0.22503
1629.06910	0.22472
1627.78333	0.22388
1626.49757	0.22246
1625.21180	0.22044
1623.92603	0.21786
1622.64026	0.21479
1621.35449	0.21131
1620.06872	0.20746
1618.78295	0.20325
1617.49718	0.19879
1616.21142	0.19423
1614.92565	0.18960
1613.63988	0.18483
1612.35411	0.17993
1611.06834	0.17500
1609.78257	0.17012
1608.49680	0.16533
1607.21103	0.16067
1605.92526	0.15616
1604.63950	0.15181
1603.35373	0.14765
1602.06796	0.14368
1600.78219	0.13993
1599.49642	0.13642
1598.21065	0.13317
1596.92488	0.13018
1595.63911	0.12742
1594.35335	0.12486
1593.06758	0.12250
1591.78181	0.12042
1590.49604	0.11866
1589.21027	0.11727
1587.92450	0.11621
1586.63873	0.11544
1585.35296	0.11492
1584.06719	0.11460
1582.78143	0.11447
1581.49566	0.11455
1580.20989	0.11497
1578.92412	0.11573
1577.63835	0.11679
1576.35258	0.11816
1575.06681	0.11982
1573.78104	0.12169
1572.49528	0.12371
1571.20951	0.12594
1569.92374	0.12849
1568.63797	0.13133
1567.35220	0.13432
1566.06643	0.13737
1564.78066	0.14051
1563.49489	0.14383
1562.20912	0.14727
1560.92336	0.15071
1559.63759	0.15407
1558.35182	0.15729
1557.06605	0.16023
1555.78028	0.16281
1554.49451	0.16514
1553.20874	0.16739
1551.92297	0.16956
1550.63721	0.17155
1549.35144	0.17334
1548.06567	0.17494
1546.77990	0.17633
1545.49413	0.17755
1544.20836	0.17865
1542.92259	0.17959
1541.63682	0.18028
1540.35105	0.18069
1539.06529	0.18089
1537.77952	0.18088
1536.49375	0.18063
1535.20798	0.18014
1533.92221	0.17952
1532.63644	0.17887
1531.35067	0.17812
1530.06490	0.17726
1528.77914	0.17632
1527.49337	0.17537
1526.20760	0.17442
1524.92183	0.17344
1523.63606	0.17236
1522.35029	0.17115
1521.06452	0.16989
1519.77875	0.16861
1518.49298	0.16720
1517.20722	0.16559
1515.92145	0.16376
1514.63568	0.16170
1513.34991	0.15943
1512.06414	0.15705
1510.77837	0.15468
1509.49260	0.15226
1508.20683	0.14967
1506.92107	0.14684
1505.63530	0.14386
1504.34953	0.14077
1503.06376	0.13759
1501.77799	0.13442
1500.49222	0.13140
1499.20645	0.12850
1497.92068	0.12561
1496.63491	0.12266
1495.34915	0.11973
1494.06338	0.11686
1492.77761	0.11406
1491.49184	0.11136
1490.20607	0.10885
1488.92030	0.10659
1487.63453	0.10457
1486.34876	0.10280
1485.06299	0.10128
1483.77723	0.10005
1482.49146	0.09913
1481.20569	0.09855
1479.91992	0.09829
1478.63415	0.09834
1477.34838	0.09870
1476.06261	0.09937
1474.77684	0.10033
1473.49108	0.10154
1472.20531	0.10298
1470.91954	0.10454
1469.63377	0.10614
1468.34800	0.10772
1467.06223	0.10932
1465.77646	0.11101
1464.49069	0.11281
1463.20492	0.11472
1461.91916	0.11670
1460.63339	0.11876
1459.34762	0.12086
1458.06185	0.12298
1456.77608	0.12504
1455.49031	0.12694
1454.20454	0.12850
1452.91877	0.12967
1451.63301	0.13052
1450.34724	0.13114
1449.06147	0.13150
1447.77570	0.13158
1446.48993	0.13139
1445.20416	0.13096
1443.91839	0.13034
1442.63262	0.12955
1441.34685	0.12863
1440.06109	0.12756
1438.77532	0.12629
1437.48955	0.12482
1436.20378	0.12317
1434.91801	0.12141
1433.63224	0.11956
1432.34647	0.11773
1431.06070	0.11603
1429.77494	0.11454
1428.48917	0.11327
1427.20340	0.11217
1425.91763	0.11124
1424.63186	0.11049
1423.34609	0.10993
1422.06032	0.10954
1420.77455	0.10926
1419.48878	0.10908
1418.20302	0.10899
1416.91725	0.10890
1415.63148	0.10881
1414.34571	0.10876
1413.05994	0.10886
1411.77417	0.10909
1410.48840	0.10944
1409.20263	0.10984
1407.91687	0.11026
1406.63110	0.11064
1405.34533	0.11095
1404.05956	0.11119
1402.77379	0.11134
1401.48802	0.11136
1400.20225	0.11122
1398.91648	0.11092
1397.63071	0.11052
1396.34495	0.11006
1395.05918	0.10962
1393.77341	0.10927
1392.48764	0.10897
1391.20187	0.10865
1389.91610	0.10826
1388.63033	0.10781
1387.34456	0.10736
1386.05880	0.10693
1384.77303	0.10650
1383.48726	0.10604
1382.20149	0.10559
1380.91572	0.10519
1379.62995	0.10481
1378.34418	0.10442
1377.05841	0.10396
1375.77264	0.10340
1374.48688	0.10273
1373.20111	0.10197
1371.91534	0.10113
1370.62957	0.10021
1369.34380	0.09921
1368.05803	0.09814
1366.77226	0.09702
1365.48649	0.09588
1364.20073	0.09481
1362.91496	0.09386
1361.62919	0.09304
1360.34342	0.09233
1359.05765	0.09173
1357.77188	0.09127
1356.48611	0.09103
1355.20034	0.09103
1353.91457	0.09128
1352.62881	0.09174
1351.34304	0.09237
1350.05727	0.09312
1348.77150	0.09399
1347.48573	0.09497
1346.19996	0.09602
1344.91419	0.09713
1343.62842	0.09823
1342.34266	0.09930
1341.05689	0.10027
1339.77112	0.10112
1338.48535	0.10180
1337.19958	0.10227
1335.91381	0.10250
1334.62804	0.10245
1333.34227	0.10213
1332.05650	0.10156
1330.77074	0.10078
1329.48497	0.09988
1328.19920	0.09896
1326.91343	0.09807
1325.62766	0.09725
1324.34189	0.09651
1323.05612	0.09584
1321.77035	0.09524
1320.48459	0.09472
1319.19882	0.09429
1317.91305	0.09398
1316.62728	0.09373
1315.34151	0.09347
1314.05574	0.09315
1312.76997	0.09275
1311.48420	0.09230
1310.19843	0.09183
1308.91267	0.09133
1307.62690	0.09083
1306.34113	0.09038
1305.05536	0.09001
1303.76959	0.08970
1302.48382	0.08941
1301.19805	0.08913
1299.91228	0.08887
1298.62652	0.08864
1297.34075	0.08851
1296.05498	0.08849
1294.76921	0.08860
1293.48344	0.08882
1292.19767	0.08913
1290.91190	0.08951
1289.62613	0.08998
1288.34036	0.09054
1287.05460	0.09116
1285.76883	0.09182
1284.48306	0.09245
1283.19729	0.09303
1281.91152	0.09351
1280.62575	0.09386
1279.33998	0.09408
1278.05421	0.09420
1276.76845	0.09427
1275.48268	0.09433
1274.19691	0.09443
1272.91114	0.09455
1271.62537	0.09467
1270.33960	0.09478
1269.05383	0.09491
1267.76806	0.09510
1266.48229	0.09538
1265.19653	0.09575
1263.91076	0.09617
1262.62499	0.09666
1261.33922	0.09725
1260.05345	0.09794
1258.76768	0.09867
1257.48191	0.09944
1256.19614	0.10024
1254.91037	0.10112
1253.62461	0.10212
1252.33884	0.10320
1251.05307	0.10435
1249.76730	0.10557
1248.48153	0.10689
1247.19576	0.10830
1245.90999	0.10976
1244.62422	0.11121
1243.33846	0.11260
1242.05269	0.11389
1240.76692	0.11505
1239.48115	0.11604
1238.19538	0.11679
1236.90961	0.11731
1235.62384	0.11763
1234.33807	0.11781
1233.05230	0.11784
1231.76654	0.11767
1230.48077	0.11724
1229.19500	0.11648
1227.90923	0.11539
1226.62346	0.11401
1225.33769	0.11243
1224.05192	0.11074
1222.76615	0.10903
1221.48039	0.10738
1220.19462	0.10580
1218.90885	0.10426
1217.62308	0.10281
1216.33731	0.10154
1215.05154	0.10056
1213.76577	0.09995
1212.48000	0.09972
1211.19423	0.09977
1209.90847	0.09997
1208.62270	0.10024
1207.33693	0.10054
1206.05116	0.10088
1204.76539	0.10124
1203.47962	0.10149
1202.19385	0.10149
1200.90808	0.10111
1199.62232	0.10033
1198.33655	0.09941
1197.05078	0.09831
1195.76501	0.09711
1194.47924	0.09586
1193.19347	0.09461
1191.90770	0.09338
1190.62193	0.09215
1189.33616	0.09093
1188.05040	0.08976
1186.76463	0.08869
1185.47886	0.08776
1184.19309	0.08693
1182.90732	0.08618
1181.62155	0.08549
1180.33578	0.08491
1179.05001	0.08445
1177.76425	0.08407
1176.47848	0.08370
1175.19271	0.08334
1173.90694	0.08304
1172.62117	0.08284
1171.33540	0.08273
1170.04963	0.08266
1168.76386	0.08263
1167.47809	0.08263
1166.19233	0.08267
1164.90656	0.08275
1163.62079	0.08283
1162.33502	0.08288
1161.04925	0.08283
1159.76348	0.08265
1158.47771	0.08230
1157.19194	0.08175
1155.90618	0.08105
1154.62041	0.08028
1153.33464	0.07953
1152.04887	0.07880
1150.76310	0.07807
1149.47733	0.07728
1148.19156	0.07644
1146.90579	0.07563
1145.62002	0.07492
1144.33426	0.07430
1143.04849	0.07368
1141.76272	0.07300
1140.47695	0.07231
1139.19118	0.07165
1137.90541	0.07105
1136.61964	0.07052
1135.33387	0.07009
1134.04811	0.06977
1132.76234	0.06954
1131.47657	0.06932
1130.19080	0.06906
1128.90503	0.06881
1127.61926	0.06862
1126.33349	0.06849
1125.04772	0.06834
1123.76195	0.06814
1122.47619	0.06794
1121.19042	0.06777
1119.90465	0.06766
1118.61888	0.06760
1117.33311	0.06759
1116.04734	0.06762
1114.76157	0.06767
1113.47580	0.06775
1112.19004	0.06784
1110.90427	0.06791
1109.61850	0.06797
1108.33273	0.06801
1107.04696	0.06808
1105.76119	0.06818
1104.47542	0.06837
1103.18965	0.06863
1101.90388	0.06895
1100.61812	0.06925
1099.33235	0.06951
1098.04658	0.06975
1096.76081	0.07000
1095.47504	0.07032
1094.18927	0.07073
1092.90350	0.07124
1091.61773	0.07188
1090.33197	0.07264
1089.04620	0.07353
1087.76043	0.07452
1086.47466	0.07557
1085.18889	0.07660
1083.90312	0.07751
1082.61735	0.07823
1081.33158	0.07871
1080.04581	0.07895
1078.76005	0.07894
1077.47428	0.07869
1076.18851	0.07825
1074.90274	0.07772
1073.61697	0.07722
1072.33120	0.07678
1071.04543	0.07643
1069.75966	0.07618
1068.47390	0.07602
1067.18813	0.07588
1065.90236	0.07573
1064.61659	0.07554
1063.33082	0.07530
1062.04505	0.07499
1060.75928	0.07462
1059.47351	0.07424
1058.18774	0.07387
1056.90198	0.07354
1055.61621	0.07320
1054.33044	0.07284
1053.04467	0.07247
1051.75890	0.07206
1050.47313	0.07159
1049.18736	0.07114
1047.90159	0.07079
1046.61583	0.07056
1045.33006	0.07038
1044.04429	0.07017
1042.75852	0.06994
1041.47275	0.06980
1040.18698	0.06983
1038.90121	0.07006
1037.61544	0.07045
1036.32967	0.07091
1035.04391	0.07139
1033.75814	0.07183
1032.47237	0.07222
1031.18660	0.07251
1029.90083	0.07261
1028.61506	0.07245
1027.32929	0.07198
1026.04352	0.07121
1024.75775	0.07024
1023.47199	0.06922
1022.18622	0.06826
1020.90045	0.06743
1019.61468	0.06677
1018.32891	0.06630
1017.04314	0.06598
1015.75737	0.06573
1014.47160	0.06542
1013.18584	0.06498
1011.90007	0.06443
1010.61430	0.06381
1009.32853	0.06320
1008.04276	0.06261
1006.75699	0.06201
1005.47122	0.06138
1004.18545	0.06071
1002.89968	0.06005
1001.61392	0.05943
1000.32815	0.05887
999.04238	0.05834
997.75661	0.05785
996.47084	0.05737
995.18507	0.05691
993.89930	0.05646
992.61353	0.05601
991.32777	0.05555
990.04200	0.05511
988.75623	0.05472
987.47046	0.05446
986.18469	0.05432
984.89892	0.05422
983.61315	0.05406
982.32738	0.05386
981.04161	0.05374
979.75585	0.05378
978.47008	0.05400
977.18431	0.05430
975.89854	0.05459
974.61277	0.05479
973.32700	0.05487
972.04123	0.05481
970.75546	0.05464
969.46970	0.05438
968.18393	0.05403
966.89816	0.05364
965.61239	0.05325
964.32662	0.05299
963.04085	0.05287
961.75508	0.05287
960.46931	0.05286
959.18354	0.05278
957.89778	0.05261
956.61201	0.05241
955.32624	0.05221
954.04047	0.05205
952.75470	0.05190
951.46893	0.05179
950.18316	0.05172
948.89739	0.05171
947.61163	0.05173
946.32586	0.05176
945.04009	0.05181
943.75432	0.05189
942.46855	0.05202
941.18278	0.05214
939.89701	0.05218
938.61124	0.05213
937.32547	0.05206
936.03971	0.05201
934.75394	0.05198
933.46817	0.05191
932.18240	0.05176
930.89663	0.05151
929.61086	0.05121
928.32509	0.05097
927.03932	0.05086
925.75356	0.05089
924.46779	0.05099
923.18202	0.05103
921.89625	0.05092
920.61048	0.05066
919.32471	0.05032
918.03894	0.04997
916.75317	0.04964
915.46740	0.04931
914.18164	0.04896
912.89587	0.04856
911.61010	0.04817
910.32433	0.04787
909.03856	0.04769
907.75279	0.04754
906.46702	0.04737
905.18125	0.04718
903.89549	0.04702
902.60972	0.04691
901.32395	0.04683
900.03818	0.04670
898.75241	0.04651
897.46664	0.04625
896.18087	0.04595
894.89510	0.04567
893.60933	0.04548
892.32357	0.04539
891.03780	0.04540
889.75203	0.04546
888.46626	0.04553
887.18049	0.04559
885.89472	0.04562
884.60895	0.04566
883.32318	0.04572
882.03742	0.04577
880.75165	0.04575
879.46588	0.04570
878.18011	0.04570
876.89434	0.04583
875.60857	0.04604
874.32280	0.04620
873.03703	0.04624
871.75126	0.04618
870.46550	0.04606
869.17973	0.04588
867.89396	0.04565
866.60819	0.04539
865.32242	0.04520
864.03665	0.04515
862.75088	0.04520
861.46511	0.04525
860.17935	0.04525
858.89358	0.04520
857.60781	0.04514
856.32204	0.04511
855.03627	0.04511
853.75050	0.04515
852.46473	0.04522
851.17896	0.04529
849.89319	0.04528
848.60743	0.04518
847.32166	0.04498
846.03589	0.04474
844.75012	0.04449
843.46435	0.04426
842.17858	0.04402
840.89281	0.04377
839.60704	0.04353
838.32128	0.04334
837.03551	0.04320
835.74974	0.04308
834.46397	0.04295
833.17820	0.04282
831.89243	0.04276
830.60666	0.04279
829.32089	0.04289
828.03512	0.04299
826.74936	0.04308
825.46359	0.04318
824.17782	0.04330
822.89205	0.04343
821.60628	0.04359
820.32051	0.04380
819.03474	0.04402
817.74897	0.04418
816.46321	0.04425
815.17744	0.04428
813.89167	0.04432
812.60590	0.04443
811.32013	0.04460
810.03436	0.04478
808.74859	0.04496
807.46282	0.04513
806.17705	0.04529
804.89129	0.04541
803.60552	0.04547
802.31975	0.04547
801.03398	0.04548
799.74821	0.04553
798.46244	0.04562
797.17667	0.04577
795.89090	0.04595
794.60513	0.04616
793.31937	0.04636
792.03360	0.04655
790.74783	0.04675
789.46206	0.04696
788.17629	0.04719
786.89052	0.04742
785.60475	0.04762
784.31898	0.04778
783.03322	0.04786
781.74745	0.04789
780.46168	0.04793
779.17591	0.04804
777.89014	0.04822
776.60437	0.04843
775.31860	0.04863
774.03283	0.04882
772.74706	0.04905
771.46130	0.04925
770.17553	0.04934
768.88976	0.04933
767.60399	0.04934
766.31822	0.04947
765.03245	0.04969
763.74668	0.04989
762.46091	0.04999
761.17515	0.05008
759.88938	0.05023
758.60361	0.05046
757.31784	0.05074
756.03207	0.05102
754.74630	0.05129
753.46053	0.05153
752.17476	0.05171
750.88899	0.05187
749.60323	0.05208
748.31746	0.05236
747.03169	0.05267
745.74592	0.05296
744.46015	0.05319
743.17438	0.05342
741.88861	0.05365
740.60284	0.05386
739.31708	0.05404
738.03131	0.05422
736.74554	0.05447
735.45977	0.05483
734.17400	0.05524
732.88823	0.05564
731.60246	0.05601
730.31669	0.05639
729.03092	0.05678
727.74516	0.05711
726.45939	0.05736
725.17362	0.05757
723.88785	0.05778
722.60208	0.05821
721.31631	0.05874
720.03054	0.05921
718.74477	0.05957
717.45901	0.05980
716.17324	0.05990
714.88747	0.05992
713.60170	0.05995
712.31593	0.06007
711.03016	0.06029
709.74439	0.06058
708.45862	0.06091
707.17285	0.06128
705.88709	0.06168
704.60132	0.06206
703.31555	0.06237
702.02978	0.06261
700.74401	0.06281
699.45824	0.06297
698.17247	0.06310
696.88670	0.06323
695.60094	0.06338
694.31517	0.06355
693.02940	0.06369
691.74363	0.06379
690.45786	0.06387
689.17209	0.06400
687.88632	0.06416
686.60055	0.06434
685.31478	0.06451
684.02902	0.06469
682.74325	0.06488
681.45748	0.06505
680.17171	0.06519
678.88594	0.06533
677.60017	0.06551
676.31440	0.06576
675.02863	0.06601
673.74287	0.06623
672.45710	0.06643
671.17133	0.06665
669.88556	0.06689
668.59979	0.06710
667.31402	0.06725
666.02825	0.06743
664.74248	0.06757
663.45671	0.06768
662.17095	0.06776
660.88518	0.06787
659.59941	0.06802
658.31364	0.06819
657.02787	0.06835
655.74210	0.06851
654.45633	0.06870
653.17056	0.06892
651.88480	0.06911
650.59903	0.06922
649.31326	0.06924
648.02749	0.06922
646.74172	0.06918
645.45595	0.06916
644.17018	0.06917
642.88441	0.06924
641.59864	0.06938
640.31288	0.06956
639.02711	0.06970
637.74134	0.06979
636.45557	0.06986
635.16980	0.06997
633.88403	0.07009
632.59826	0.07017
631.31249	0.07027
630.02673	0.07082
628.74096	0.07160
627.45519	0.07085
626.16942	0.07130
624.88365	0.07227
623.59788	0.07274
622.31211	0.07282
621.02634	0.07307
619.74057	0.07373
618.45481	0.07449
617.16904	0.07481
615.88327	0.07410
614.59750	0.07225
613.31173	0.06988
612.02596	0.06804
610.74019	0.06760
609.45442	0.06858
608.16866	0.07016
606.88289	0.07138
605.59712	0.07187
604.31135	0.07184
603.02558	0.07174
601.73981	0.07181
600.45404	0.07203
599.16827	0.07224
597.88250	0.07234
596.59674	0.07237
595.31097	0.07240
594.02520	0.07245
592.73943	0.07246
591.45366	0.07238
590.16789	0.07223
588.88212	0.07208
587.59635	0.07201
586.31059	0.07202
585.02482	0.07205
583.73905	0.07203
582.45328	0.07199
581.16751	0.07201
579.88174	0.07213
578.59597	0.07227
577.31020	0.07236
576.02443	0.07238
574.73867	0.07242
573.45290	0.07251
572.16713	0.07262
570.88136	0.07271
569.59559	0.07282
568.30982	0.07296
567.02405	0.07316
565.73828	0.07341
564.45251	0.07369
563.16675	0.07391
561.88098	0.07400
560.59521	0.07393
559.30944	0.07374
558.02367	0.07358
556.73790	0.07352
555.45213	0.07361
554.16636	0.07379
552.88060	0.07398
551.59483	0.07406
550.30906	0.07397
549.02329	0.07373
547.73752	0.07346
546.45175	0.07325
545.16598	0.07310
543.88021	0.07295
542.59444	0.07268
541.30868	0.07230
540.02291	0.07195
538.73714	0.07179
537.45137	0.07190
536.16560	0.07216
534.87983	0.07241
533.59406	0.07253
532.30829	0.07257
531.02253	0.07260
529.73676	0.07271
528.45099	0.07291
527.16522	0.07312
525.87945	0.07319
524.59368	0.07301
523.30791	0.07260
522.02214	0.07211
520.73637	0.07167
519.45061	0.07132
518.16484	0.07100
516.87907	0.07067
515.59330	0.07038
514.30753	0.07018
513.02176	0.07008
511.73599	0.07002
510.45022	0.06993
509.16446	0.06976
507.87869	0.06951
506.59292	0.06920
505.30715	0.06885
504.02138	0.06850
502.73561	0.06817
501.44984	0.06786
500.16407	0.06754
498.87830	0.06720
497.59254	0.06688
496.30677	0.06662
495.02100	0.06639
493.73523	0.06611
492.44946	0.06576
491.16369	0.06542
489.87792	0.06518
488.59215	0.06503
487.30639	0.06485
486.02062	0.06457
484.73485	0.06424
483.44908	0.06395
482.16331	0.06376
480.87754	0.06365
479.59177	0.06353
478.30600	0.06336
477.02023	0.06313
475.73447	0.06289
474.44870	0.06267
473.16293	0.06249
471.87716	0.06230
470.59139	0.06204
469.30562	0.06174
468.01985	0.06149
466.73408	0.06134
465.44832	0.06122
464.16255	0.06100
462.87678	0.06062
461.59101	0.06012
460.30524	0.05961
459.01947	0.05915
457.73370	0.05878
456.44793	0.05850
455.16216	0.05828
453.87640	0.05806
452.59063	0.05783
451.30486	0.05756
450.01909	0.05721
448.73332	0.05678
447.44755	0.05631
446.16178	0.05592
444.87601	0.05564
443.59025	0.05542
442.30448	0.05521
441.01871	0.05496
439.73294	0.05471
438.44717	0.05445
437.16140	0.05418
435.87563	0.05388
434.58986	0.05355
433.30409	0.05325
432.01833	0.05304
430.73256	0.05293
429.44679	0.05288
428.16102	0.05278
426.87525	0.05258
425.58948	0.05228
424.30371	0.05195
423.01794	0.05163
421.73218	0.05133
420.44641	0.05102
419.16064	0.05072
417.87487	0.05043
416.58910	0.05016
415.30333	0.04990
414.01756	0.04969
412.73179	0.04952
411.44602	0.04935
410.16026	0.04915
408.87449	0.04893
407.58872	0.04871
406.30295	0.04853
405.01718	0.04839
403.73141	0.04827
402.44564	0.04813
401.15987	0.04797
399.87411	0.04779
