3996.16951	0.05999
3994.24086	0.05907
3992.31221	0.05913
3990.38355	0.05966
3988.45490	0.06022
3986.52625	0.06093
3984.59759	0.06147
3982.66894	0.06129
3980.74029	0.06071
3978.81163	0.06030
3976.88298	0.05969
3974.95433	0.05877
3973.02567	0.05832
3971.09702	0.05836
3969.16837	0.05854
3967.23972	0.05906
3965.31106	0.05965
3963.38241	0.05998
3961.45376	0.06034
3959.52510	0.06049
3957.59645	0.06006
3955.66780	0.05960
3953.73914	0.05965
3951.81049	0.05998
3949.88184	0.06009
3947.95318	0.05983
3946.02453	0.05942
3944.09588	0.05916
3942.16722	0.05915
3940.23857	0.05901
3938.30992	0.05849
3936.38126	0.05809
3934.45261	0.05810
3932.52396	0.05811
3930.59530	0.05796
3928.66665	0.05805
3926.73800	0.05822
3924.80934	0.05799
3922.88069	0.05754
3920.95204	0.05738
3919.02338	0.05771
3917.09473	0.05836
3915.16608	0.05911
3913.23742	0.05976
3911.30877	0.05991
3909.38012	0.05932
3907.45146	0.05822
3905.52281	0.05711
3903.59416	0.05650
3901.66550	0.05639
3899.73685	0.05616
3897.80820	0.05571
3895.87955	0.05569
3893.95089	0.05606
3892.02224	0.05624
3890.09359	0.05636
3888.16493	0.05676
3886.23628	0.05711
3884.30763	0.05706
3882.37897	0.05665
3880.45032	0.05598
3878.52167	0.05536
3876.59301	0.05503
3874.66436	0.05492
3872.73571	0.05508
3870.80705	0.05569
3868.87840	0.05657
3866.94975	0.05727
3865.02109	0.05752
3863.09244	0.05721
3861.16379	0.05648
3859.23513	0.05597
3857.30648	0.05615
3855.37783	0.05642
3853.44917	0.05611
3851.52052	0.05572
3849.59187	0.05586
3847.66321	0.05623
3845.73456	0.05645
3843.80591	0.05633
3841.87725	0.05567
3839.94860	0.05479
3838.01995	0.05427
3836.09129	0.05413
3834.16264	0.05399
3832.23399	0.05387
3830.30534	0.05419
3828.37668	0.05470
3826.44803	0.05467
3824.51938	0.05424
3822.59072	0.05411
3820.66207	0.05422
3818.73342	0.05425
3816.80476	0.05426
3814.87611	0.05412
3812.94746	0.05377
3811.01880	0.05342
3809.09015	0.05322
3807.16150	0.05318
3805.23284	0.05332
3803.30419	0.05351
3801.37554	0.05362
3799.44688	0.05343
3797.51823	0.05299
3795.58958	0.05302
3793.66092	0.05359
3791.73227	0.05385
3789.80362	0.05318
3787.87496	0.05213
3785.94631	0.05154
3784.01766	0.05140
3782.08900	0.05154
3780.16035	0.05188
3778.23170	0.05223
3776.30304	0.05231
3774.37439	0.05183
3772.44574	0.05110
3770.51708	0.05078
3768.58843	0.05097
3766.65978	0.05141
3764.73112	0.05157
3762.80247	0.05110
3760.87382	0.05044
3758.94517	0.05021
3757.01651	0.05028
3755.08786	0.05051
3753.15921	0.05103
3751.23055	0.05142
3749.30190	0.05157
3747.37325	0.05176
3745.44459	0.05168
3743.51594	0.05121
3741.58729	0.05098
3739.65863	0.05112
3737.72998	0.05095
3735.80133	0.05034
3733.87267	0.04978
3731.94402	0.04971
3730.01537	0.04989
3728.08671	0.05009
3726.15806	0.05045
3724.22941	0.05047
3722.30075	0.04993
3720.37210	0.04962
3718.44345	0.04954
3716.51479	0.04945
3714.58614	0.04921
3712.65749	0.04891
3710.72883	0.04880
3708.80018	0.04913
3706.87153	0.04970
3704.94287	0.04958
3703.01422	0.04871
3701.08557	0.04822
3699.15691	0.04816
3697.22826	0.04774
3695.29961	0.04737
3693.37095	0.04772
3691.44230	0.04845
3689.51365	0.04879
3687.58500	0.04850
3685.65634	0.04778
3683.72769	0.04696
3681.79904	0.04660
3679.87038	0.04720
3677.94173	0.04825
3676.01308	0.04869
3674.08442	0.04821
3672.15577	0.04770
3670.22712	0.04790
3668.29846	0.04824
3666.36981	0.04816
3664.44116	0.04815
3662.51250	0.04828
3660.58385	0.04834
3658.65520	0.04870
3656.72654	0.04937
3654.79789	0.05001
3652.86924	0.05046
3650.94058	0.05057
3649.01193	0.05053
3647.08328	0.05072
3645.15462	0.05102
3643.22597	0.05108
3641.29732	0.05109
3639.36866	0.05142
3637.44001	0.05185
3635.51136	0.05198
3633.58270	0.05176
3631.65405	0.05171
3629.72540	0.05208
3627.79674	0.05264
3625.86809	0.05304
3623.93944	0.05363
3622.01079	0.05418
3620.08213	0.05474
3618.15348	0.05531
3616.22483	0.05568
3614.29617	0.05621
3612.36752	0.05701
3610.43887	0.05736
3608.51021	0.05713
3606.58156	0.05708
3604.65291	0.05752
3602.72425	0.05816
3600.79560	0.05873
3598.86695	0.05900
3596.93829	0.05888
3595.00964	0.05896
3593.08099	0.05966
3591.15233	0.06061
3589.22368	0.06148
3587.29503	0.06207
3585.36637	0.06229
3583.43772	0.06251
3581.50907	0.06306
3579.58041	0.06378
3577.65176	0.06449
3575.72311	0.06515
3573.79445	0.06576
3571.86580	0.06633
3569.93715	0.06664
3568.00849	0.06680
3566.07984	0.06743
3564.15119	0.06848
3562.22253	0.06900
3560.29388	0.06895
3558.36523	0.06933
3556.43657	0.07048
3554.50792	0.07189
3552.57927	0.07318
3550.65062	0.07436
3548.72196	0.07511
3546.79331	0.07514
3544.86466	0.07517
3542.93600	0.07592
3541.00735	0.07692
3539.07870	0.07762
3537.15004	0.07819
3535.22139	0.07860
3533.29274	0.07870
3531.36408	0.07881
3529.43543	0.07924
3527.50678	0.07988
3525.57812	0.08065
3523.64947	0.08144
3521.72082	0.08198
3519.79216	0.08230
3517.86351	0.08273
3515.93486	0.08338
3514.00620	0.08421
3512.07755	0.08506
3510.14890	0.08581
3508.22024	0.08644
3506.29159	0.08672
3504.36294	0.08675
3502.43428	0.08717
3500.50563	0.08785
3498.57698	0.08809
3496.64832	0.08813
3494.71967	0.08864
3492.79102	0.08923
3490.86236	0.08932
3488.93371	0.08939
3487.00506	0.08986
3485.07641	0.09043
3483.14775	0.09094
3481.21910	0.09145
3479.29045	0.09174
3477.36179	0.09181
3475.43314	0.09210
3473.50449	0.09288
3471.57583	0.09381
3469.64718	0.09448
3467.71853	0.09493
3465.78987	0.09528
3463.86122	0.09561
3461.93257	0.09593
3460.00391	0.09599
3458.07526	0.09597
3456.14661	0.09651
3454.21795	0.09742
3452.28930	0.09794
3450.36065	0.09832
3448.43199	0.09917
3446.50334	0.10017
3444.57469	0.10077
3442.64603	0.10107
3440.71738	0.10145
3438.78873	0.10206
3436.86007	0.10254
3434.93142	0.10267
3433.00277	0.10293
3431.07411	0.10358
3429.14546	0.10422
3427.21681	0.10479
3425.28815	0.10547
3423.35950	0.10614
3421.43085	0.10652
3419.50219	0.10667
3417.57354	0.10696
3415.64489	0.10749
3413.71624	0.10784
3411.78758	0.10802
3409.85893	0.10862
3407.93028	0.10954
3406.00162	0.11022
3404.07297	0.11058
3402.14432	0.11091
3400.21566	0.11145
3398.28701	0.11202
3396.35836	0.11247
3394.42970	0.11284
3392.50105	0.11310
3390.57240	0.11352
3388.64374	0.11439
3386.71509	0.11542
3384.78644	0.11613
3382.85778	0.11654
3380.92913	0.11687
3379.00048	0.11728
3377.07182	0.11797
3375.14317	0.11894
3373.21452	0.11978
3371.28586	0.12022
3369.35721	0.12049
3367.42856	0.12107
3365.49990	0.12222
3363.57125	0.12373
3361.64260	0.12517
3359.71394	0.12625
3357.78529	0.12709
3355.85664	0.12806
3353.92798	0.12912
3351.99933	0.13003
3350.07068	0.13105
3348.14202	0.13259
3346.21337	0.13421
3344.28472	0.13541
3342.35607	0.13626
3340.42741	0.13704
3338.49876	0.13794
3336.57011	0.13896
3334.64145	0.13998
3332.71280	0.14111
3330.78415	0.14248
3328.85549	0.14374
3326.92684	0.14461
3324.99819	0.14540
3323.06953	0.14624
3321.14088	0.14673
3319.21223	0.14674
3317.28357	0.14671
3315.35492	0.14702
3313.42627	0.14773
3311.49761	0.14865
3309.56896	0.14930
3307.64031	0.14955
3305.71165	0.14970
3303.78300	0.14981
3301.85435	0.14996
3299.92569	0.15027
3297.99704	0.15047
3296.06839	0.15050
3294.13973	0.15058
3292.21108	0.15059
3290.28243	0.15032
3288.35377	0.15012
3286.42512	0.15029
3284.49647	0.15061
3282.56781	0.15062
3280.63916	0.15036
3278.71051	0.15019
3276.78186	0.14999
3274.85320	0.14960
3272.92455	0.14932
3270.99590	0.14918
3269.06724	0.14865
3267.13859	0.14765
3265.20994	0.14680
3263.28128	0.14632
3261.35263	0.14584
3259.42398	0.14526
3257.49532	0.14461
3255.56667	0.14383
3253.63802	0.14324
3251.70936	0.14299
3249.78071	0.14268
3247.85206	0.14190
3245.92340	0.14091
3243.99475	0.14029
3242.06610	0.14009
3240.13744	0.13977
3238.20879	0.13927
3236.28014	0.13899
3234.35148	0.13890
3232.42283	0.13852
3230.49418	0.13777
3228.56552	0.13708
3226.63687	0.13682
3224.70822	0.13675
3222.77956	0.13656
3220.85091	0.13622
3218.92226	0.13595
3216.99360	0.13584
3215.06495	0.13562
3213.13630	0.13516
3211.20764	0.13469
3209.27899	0.13442
3207.35034	0.13425
3205.42169	0.13394
3203.49303	0.13340
3201.56438	0.13269
3199.63573	0.13187
3197.70707	0.13131
3195.77842	0.13108
3193.84977	0.13078
3191.92111	0.13025
3189.99246	0.12961
3188.06381	0.12901
3186.13515	0.12852
3184.20650	0.12809
3182.27785	0.12760
3180.34919	0.12680
3178.42054	0.12580
3176.49189	0.12519
3174.56323	0.12496
3172.63458	0.12446
3170.70593	0.12353
3168.77727	0.12260
3166.84862	0.12206
3164.91997	0.12173
3162.99131	0.12092
3161.06266	0.11958
3159.13401	0.11847
3157.20535	0.11782
3155.27670	0.11716
3153.34805	0.11648
3151.41939	0.11599
3149.49074	0.11549
3147.56209	0.11483
3145.63343	0.11424
3143.70478	0.11368
3141.77613	0.11287
3139.84748	0.11193
3137.91882	0.11132
3135.99017	0.11103
3134.06152	0.11074
3132.13286	0.11030
3130.20421	0.10978
3128.27556	0.10928
3126.34690	0.10902
3124.41825	0.10887
3122.48960	0.10859
3120.56094	0.10853
3118.63229	0.10890
3116.70364	0.10911
3114.77498	0.10863
3112.84633	0.10796
3110.91768	0.10781
3108.98902	0.10793
3107.06037	0.10783
3105.13172	0.10776
3103.20306	0.10791
3101.27441	0.10799
3099.34576	0.10804
3097.41710	0.10841
3095.48845	0.10920
3093.55980	0.10998
3091.63114	0.11031
3089.70249	0.11024
3087.77384	0.11030
3085.84518	0.11071
3083.91653	0.11102
3081.98788	0.11097
3080.05922	0.11096
3078.13057	0.11131
3076.20192	0.11172
3074.27326	0.11191
3072.34461	0.11186
3070.41596	0.11161
3068.48731	0.11126
3066.55865	0.11076
3064.63000	0.11019
3062.70135	0.10987
3060.77269	0.10989
3058.84404	0.11004
3056.91539	0.11006
3054.98673	0.10975
3053.05808	0.10903
3051.12943	0.10827
3049.20077	0.10764
3047.27212	0.10686
3045.34347	0.10600
3043.41481	0.10539
3041.48616	0.10483
3039.55751	0.10400
3037.62885	0.10321
3035.70020	0.10277
3033.77155	0.10241
3031.84289	0.10185
3029.91424	0.10109
3027.98559	0.10038
3026.05693	0.09993
3024.12828	0.09961
3022.19963	0.09912
3020.27097	0.09845
3018.34232	0.09782
3016.41367	0.09739
3014.48501	0.09714
3012.55636	0.09691
3010.62771	0.09664
3008.69905	0.09641
3006.77040	0.09634
3004.84175	0.09644
3002.91309	0.09639
3000.98444	0.09611
2999.05579	0.09600
2997.12714	0.09633
2995.19848	0.09667
2993.26983	0.09670
2991.34118	0.09678
2989.41252	0.09718
2987.48387	0.09769
2985.55522	0.09816
2983.62656	0.09855
2981.69791	0.09905
2979.76926	0.09963
2977.84060	0.10007
2975.91195	0.10049
2973.98330	0.10103
2972.05464	0.10143
2970.12599	0.10181
2968.19734	0.10240
2966.26868	0.10290
2964.34003	0.10321
2962.41138	0.10368
2960.48272	0.10432
2958.55407	0.10489
2956.62542	0.10534
2954.69676	0.10573
2952.76811	0.10596
2950.83946	0.10592
2948.91080	0.10593
2946.98215	0.10631
2945.05350	0.10684
2943.12484	0.10734
2941.19619	0.10809
2939.26754	0.10928
2937.33888	0.11052
2935.41023	0.11141
2933.48158	0.11202
2931.55293	0.11261
2929.62427	0.11330
2927.69562	0.11394
2925.76697	0.11437
2923.83831	0.11454
2921.90966	0.11434
2919.98101	0.11376
2918.05235	0.11306
2916.12370	0.11205
2914.19505	0.11031
2912.26639	0.10797
2910.33774	0.10556
2908.40909	0.10362
2906.48043	0.10226
2904.55178	0.10122
2902.62313	0.10031
2900.69447	0.09950
2898.76582	0.09884
2896.83717	0.09835
2894.90851	0.09784
2892.97986	0.09728
2891.05121	0.09683
2889.12255	0.09643
2887.19390	0.09606
2885.26525	0.09593
2883.33659	0.09594
2881.40794	0.09582
2879.47929	0.09576
2877.55063	0.09587
2875.62198	0.09588
2873.69333	0.09578
2871.76467	0.09573
2869.83602	0.09553
2867.90737	0.09502
2865.97871	0.09455
2864.05006	0.09435
2862.12141	0.09435
2860.19276	0.09446
2858.26410	0.09457
2856.33545	0.09468
2854.40680	0.09498
2852.47814	0.09512
2850.54949	0.09449
2848.62084	0.09320
2846.69218	0.09171
2844.76353	0.09024
2842.83488	0.08888
2840.90622	0.08757
2838.97757	0.08636
2837.04892	0.08535
2835.12026	0.08457
2833.19161	0.08408
2831.26296	0.08392
2829.33430	0.08385
2827.40565	0.08335
2825.47700	0.08249
2823.54834	0.08187
2821.61969	0.08163
2819.69104	0.08159
2817.76238	0.08151
2815.83373	0.08129
2813.90508	0.08100
2811.97642	0.08073
2810.04777	0.08052
2808.11912	0.08025
2806.19046	0.07976
2804.26181	0.07914
2802.33316	0.07866
2800.40450	0.07845
2798.47585	0.07843
2796.54720	0.07834
2794.61855	0.07803
2792.68989	0.07758
2790.76124	0.07734
2788.83259	0.07741
2786.90393	0.07746
2784.97528	0.07716
2783.04663	0.07662
2781.11797	0.07616
2779.18932	0.07582
2777.26067	0.07550
2775.33201	0.07524
2773.40336	0.07516
2771.47471	0.07510
2769.54605	0.07485
2767.61740	0.07448
2765.68875	0.07413
2763.76009	0.07380
2761.83144	0.07344
2759.90279	0.07322
2757.97413	0.07323
2756.04548	0.07329
2754.11683	0.07315
2752.18817	0.07290
2750.25952	0.07269
2748.33087	0.07239
2746.40221	0.07201
2744.47356	0.07170
2742.54491	0.07149
2740.61625	0.07141
2738.68760	0.07141
2736.75895	0.07127
2734.83029	0.07092
2732.90164	0.07057
2730.97299	0.07034
2729.04433	0.07009
2727.11568	0.06978
2725.18703	0.06952
2723.25838	0.06917
2721.32972	0.06878
2719.40107	0.06860
2717.47242	0.06841
2715.54376	0.06815
2713.61511	0.06812
2711.68646	0.06823
2709.75780	0.06802
2707.82915	0.06764
2705.90050	0.06749
2703.97184	0.06734
2702.04319	0.06705
2700.11454	0.06691
2698.18588	0.06694
2696.25723	0.06690
2694.32858	0.06671
2692.39992	0.06644
2690.47127	0.06625
2688.54262	0.06616
2686.61396	0.06610
2684.68531	0.06599
2682.75666	0.06581
2680.82800	0.06557
2678.89935	0.06532
2676.97070	0.06514
2675.04204	0.06501
2673.11339	0.06494
2671.18474	0.06496
2669.25608	0.06506
2667.32743	0.06507
2665.39878	0.06493
2663.47012	0.06468
2661.54147	0.06442
2659.61282	0.06417
2657.68417	0.06394
2655.75551	0.06376
2653.82686	0.06360
2651.89821	0.06336
2649.96955	0.06297
2648.04090	0.06247
2646.11225	0.06201
2644.18359	0.06165
2642.25494	0.06142
2640.32629	0.06128
2638.39763	0.06097
2636.46898	0.06037
2634.54033	0.05976
2632.61167	0.05946
2630.68302	0.05937
2628.75437	0.05913
2626.82571	0.05864
2624.89706	0.05813
2622.96841	0.05776
2621.03975	0.05741
2619.11110	0.05695
2617.18245	0.05639
2615.25379	0.05579
2613.32514	0.05519
2611.39649	0.05474
2609.46783	0.05485
2607.53918	0.05543
2605.61053	0.05570
2603.68187	0.05533
2601.75322	0.05461
2599.82457	0.05390
2597.89591	0.05353
2595.96726	0.05341
2594.03861	0.05315
2592.10995	0.05276
2590.18130	0.05253
2588.25265	0.05252
2586.32400	0.05249
2584.39534	0.05221
2582.46669	0.05164
2580.53804	0.05119
2578.60938	0.05123
2576.68073	0.05134
2574.75208	0.05099
2572.82342	0.05030
2570.89477	0.04962
2568.96612	0.04915
2567.03746	0.04901
2565.10881	0.04924
2563.18016	0.04950
2561.25150	0.04941
2559.32285	0.04899
2557.39420	0.04840
2555.46554	0.04792
2553.53689	0.04792
2551.60824	0.04829
2549.67958	0.04861
2547.75093	0.04871
2545.82228	0.04845
2543.89362	0.04790
2541.96497	0.04741
2540.03632	0.04708
2538.10766	0.04706
2536.17901	0.04728
2534.25036	0.04727
2532.32170	0.04707
2530.39305	0.04686
2528.46440	0.04657
2526.53574	0.04627
2524.60709	0.04597
2522.67844	0.04588
2520.74978	0.04612
2518.82113	0.04622
2516.89248	0.04591
2514.96383	0.04567
2513.03517	0.04574
2511.10652	0.04580
2509.17787	0.04561
2507.24921	0.04528
2505.32056	0.04512
2503.39191	0.04524
2501.46325	0.04521
2499.53460	0.04482
2497.60595	0.04464
2495.67729	0.04485
2493.74864	0.04508
2491.81999	0.04498
2489.89133	0.04444
2487.96268	0.04398
2486.03403	0.04399
2484.10537	0.04414
2482.17672	0.04408
2480.24807	0.04375
2478.31941	0.04333
2476.39076	0.04302
2474.46211	0.04298
2472.53345	0.04327
2470.60480	0.04358
2468.67615	0.04357
2466.74749	0.04340
2464.81884	0.04329
2462.89019	0.04331
2460.96153	0.04336
2459.03288	0.04320
2457.10423	0.04289
2455.17557	0.04270
2453.24692	0.04259
2451.31827	0.04254
2449.38962	0.04271
2447.46096	0.04298
2445.53231	0.04312
2443.60366	0.04291
2441.67500	0.04234
2439.74635	0.04203
2437.81770	0.04225
2435.88904	0.04247
2433.96039	0.04239
2432.03174	0.04223
2430.10308	0.04209
2428.17443	0.04202
2426.24578	0.04216
2424.31712	0.04234
2422.38847	0.04234
2420.45982	0.04223
2418.53116	0.04213
2416.60251	0.04196
2414.67386	0.04168
2412.74520	0.04157
2410.81655	0.04172
2408.88790	0.04164
2406.95924	0.04127
2405.03059	0.04117
2403.10194	0.04145
2401.17328	0.04180
2399.24463	0.04189
2397.31598	0.04183
2395.38732	0.04182
2393.45867	0.04205
2391.53002	0.04242
2389.60136	0.04259
2387.67271	0.04241
2385.74406	0.04222
2383.81540	0.04228
2381.88675	0.04239
2379.95810	0.04243
2378.02945	0.04260
2376.10079	0.04247
2374.17214	0.04179
2372.24349	0.04161
2370.31483	0.04329
2368.38618	0.04129
2366.45753	0.04184
2364.52887	0.04161
2362.60022	0.04349
2360.67157	0.04142
2358.74291	0.04489
2356.81426	0.04167
2354.88561	0.04319
2352.95695	0.04464
2351.02830	0.04333
2349.09965	0.04330
2347.17099	0.04305
2345.24234	0.04218
2343.31369	0.04239
2341.38503	0.04507
2339.45638	0.04643
2337.52773	0.04530
2335.59907	0.04269
2333.67042	0.04083
2331.74177	0.04046
2329.81311	0.04088
2327.88446	0.04136
2325.95581	0.04231
2324.02715	0.04273
2322.09850	0.04265
2320.16985	0.04213
2318.24119	0.04181
2316.31254	0.04129
2314.38389	0.04078
2312.45524	0.04023
2310.52658	0.03970
2308.59793	0.03951
2306.66928	0.03955
2304.74062	0.03939
2302.81197	0.03892
2300.88332	0.03848
2298.95466	0.03795
2297.02601	0.03738
2295.09736	0.03673
2293.16870	0.03635
2291.24005	0.03619
2289.31140	0.03616
2287.38274	0.03603
2285.45409	0.03577
2283.52544	0.03539
2281.59678	0.03469
2279.66813	0.03385
2277.73948	0.03305
2275.81082	0.03223
2273.88217	0.03165
2271.95352	0.03149
2270.02486	0.03137
2268.09621	0.03097
2266.16756	0.03039
2264.23890	0.02980
2262.31025	0.02909
2260.38160	0.02830
2258.45294	0.02791
2256.52429	0.02810
2254.59564	0.02842
2252.66698	0.02839
2250.73833	0.02795
2248.80968	0.02763
2246.88102	0.02720
2244.95237	0.02656
2243.02372	0.02567
2241.09507	0.02490
2239.16641	0.02459
2237.23776	0.02472
2235.30911	0.02485
2233.38045	0.02464
2231.45180	0.02433
2229.52315	0.02444
2227.59449	0.02488
2225.66584	0.02497
2223.73719	0.02428
2221.80853	0.02320
2219.87988	0.02234
2217.95123	0.02178
2216.02257	0.02131
2214.09392	0.02118
2212.16527	0.02137
2210.23661	0.02136
2208.30796	0.02120
2206.37931	0.02111
2204.45065	0.02076
2202.52200	0.02029
2200.59335	0.02044
2198.66469	0.02099
2196.73604	0.02096
2194.80739	0.02031
2192.87873	0.01995
2190.95008	0.02001
2189.02143	0.01930
2187.09277	0.01785
2185.16412	0.01712
2183.23547	0.01711
2181.30681	0.01722
2179.37816	0.01744
2177.44951	0.01724
2175.52085	0.01649
2173.59220	0.01611
2171.66355	0.01667
2169.73490	0.01755
2167.80624	0.01742
2165.87759	0.01577
2163.94894	0.01391
2162.02028	0.01262
2160.09163	0.01133
2158.16298	0.01050
2156.23432	0.01125
2154.30567	0.01297
2152.37702	0.01458
2150.44836	0.01581
2148.51971	0.01642
2146.59106	0.01632
2144.66240	0.01622
2142.73375	0.01646
2140.80510	0.01659
2138.87644	0.01683
2136.94779	0.01760
2135.01914	0.01863
2133.09048	0.01950
2131.16183	0.02033
2129.23318	0.02144
2127.30452	0.02240
2125.37587	0.02267
2123.44722	0.02274
2121.51856	0.02300
2119.58991	0.02318
2117.66126	0.02344
2115.73260	0.02402
2113.80395	0.02437
2111.87530	0.02391
2109.94664	0.02312
2108.01799	0.02294
2106.08934	0.02316
2104.16069	0.02305
2102.23203	0.02283
2100.30338	0.02290
2098.37473	0.02306
2096.44607	0.02298
2094.51742	0.02288
2092.58877	0.02296
2090.66011	0.02300
2088.73146	0.02273
2086.80281	0.02218
2084.87415	0.02181
2082.94550	0.02179
2081.01685	0.02184
2079.08819	0.02199
2077.15954	0.02210
2075.23089	0.02184
2073.30223	0.02129
2071.37358	0.02055
2069.44493	0.01977
2067.51627	0.01935
2065.58762	0.01928
2063.65897	0.01911
2061.73031	0.01850
2059.80166	0.01773
2057.87301	0.01739
2055.94435	0.01751
2054.01570	0.01759
2052.08705	0.01752
2050.15839	0.01726
2048.22974	0.01650
2046.30109	0.01517
2044.37243	0.01370
2042.44378	0.01271
2040.51513	0.01245
2038.58647	0.01248
2036.65782	0.01224
2034.72917	0.01197
2032.80052	0.01196
2030.87186	0.01176
2028.94321	0.01116
2027.01456	0.01056
2025.08590	0.01054
2023.15725	0.01108
2021.22860	0.01150
2019.29994	0.01163
2017.37129	0.01193
2015.44264	0.01233
2013.51398	0.01248
2011.58533	0.01281
2009.65668	0.01358
2007.72802	0.01402
2005.79937	0.01362
2003.87072	0.01323
2001.94206	0.01365
2000.01341	0.01425
1998.08476	0.01429
1996.15610	0.01400
1994.22745	0.01363
1992.29880	0.01325
1990.37014	0.01327
1988.44149	0.01370
1986.51284	0.01410
1984.58418	0.01428
1982.65553	0.01433
1980.72688	0.01409
1978.79822	0.01344
1976.86957	0.01273
1974.94092	0.01238
1973.01226	0.01255
1971.08361	0.01309
1969.15496	0.01350
1967.22631	0.01341
1965.29765	0.01322
1963.36900	0.01360
1961.44035	0.01424
1959.51169	0.01429
1957.58304	0.01406
1955.65439	0.01427
1953.72573	0.01472
1951.79708	0.01498
1949.86843	0.01519
1947.93977	0.01568
1946.01112	0.01652
1944.08247	0.01735
1942.15381	0.01775
1940.22516	0.01787
1938.29651	0.01799
1936.36785	0.01807
1934.43920	0.01805
1932.51055	0.01790
1930.58189	0.01779
1928.65324	0.01801
1926.72459	0.01838
1924.79593	0.01862
1922.86728	0.01881
1920.93863	0.01897
1919.00997	0.01897
1917.08132	0.01882
1915.15267	0.01876
1913.22401	0.01901
1911.29536	0.01944
1909.36671	0.01985
1907.43805	0.02001
1905.50940	0.01986
1903.58075	0.01969
1901.65209	0.01971
1899.72344	0.01988
1897.79479	0.02006
1895.86614	0.02022
1893.93748	0.02042
1892.00883	0.02047
1890.08018	0.02033
1888.15152	0.02024
1886.22287	0.02027
1884.29422	0.02032
1882.36556	0.02035
1880.43691	0.02026
1878.50826	0.02008
1876.57960	0.02006
1874.65095	0.02019
1872.72230	0.02022
1870.79364	0.02026
1868.86499	0.02046
1866.93634	0.02064
1865.00768	0.02064
1863.07903	0.02049
1861.15038	0.02040
1859.22172	0.02040
1857.29307	0.02027
1855.36442	0.02015
1853.43576	0.02031
1851.50711	0.02055
1849.57846	0.02057
1847.64980	0.02051
1845.72115	0.02064
1843.79250	0.02089
1841.86384	0.02091
1839.93519	0.02066
1838.00654	0.02039
1836.07788	0.02029
1834.14923	0.02035
1832.22058	0.02049
1830.29192	0.02062
1828.36327	0.02078
1826.43462	0.02095
1824.50597	0.02102
1822.57731	0.02097
1820.64866	0.02087
1818.72001	0.02080
1816.79135	0.02075
1814.86270	0.02067
1812.93405	0.02059
1811.00539	0.02057
1809.07674	0.02064
1807.14809	0.02071
1805.21943	0.02077
1803.29078	0.02086
1801.36213	0.02091
1799.43347	0.02093
1797.50482	0.02099
1795.57617	0.02108
1793.64751	0.02114
1791.71886	0.02110
1789.79021	0.02092
1787.86155	0.02072
1785.93290	0.02058
1784.00425	0.02050
1782.07559	0.02046
1780.14694	0.02042
1778.21829	0.02034
1776.28963	0.02028
1774.36098	0.02030
1772.43233	0.02032
1770.50367	0.02024
1768.57502	0.02018
1766.64637	0.02020
1764.71771	0.02019
1762.78906	0.02011
1760.86041	0.02002
1758.93176	0.02000
1757.00310	0.02009
1755.07445	0.02027
1753.14580	0.02044
1751.21714	0.02061
1749.28849	0.02081
1747.35984	0.02099
1745.43118	0.02118
1743.50253	0.02149
1741.57388	0.02188
1739.64522	0.02224
1737.71657	0.02271
1735.78792	0.02334
1733.85926	0.02388
1731.93061	0.02424
1730.00196	0.02463
1728.07330	0.02519
1726.14465	0.02578
1724.21600	0.02630
1722.28734	0.02690
1720.35869	0.02768
1718.43004	0.02855
1716.50138	0.02949
1714.57273	0.03058
1712.64408	0.03187
1710.71542	0.03336
1708.78677	0.03499
1706.85812	0.03677
1704.92946	0.03877
1703.00081	0.04101
1701.07216	0.04357
1699.14350	0.04638
1697.21485	0.04929
1695.28620	0.05229
1693.35754	0.05547
1691.42889	0.05877
1689.50024	0.06214
1687.57159	0.06563
1685.64293	0.06939
1683.71428	0.07343
1681.78563	0.07759
1679.85697	0.08188
1677.92832	0.08649
1675.99967	0.09148
1674.07101	0.09673
1672.14236	0.10213
1670.21371	0.10768
1668.28505	0.11325
1666.35640	0.11870
1664.42775	0.12400
1662.49909	0.12907
1660.57044	0.13383
1658.64179	0.13815
1656.71313	0.14201
1654.78448	0.14556
1652.85583	0.14885
1650.92717	0.15160
1648.99852	0.15384
1647.06987	0.15593
1645.14121	0.15793
1643.21256	0.15973
1641.28391	0.16136
1639.35525	0.16288
1637.42660	0.16436
1635.49795	0.16576
1633.56929	0.16679
1631.64064	0.16711
1629.71199	0.16659
1627.78333	0.16527
1625.85468	0.16317
1623.92603	0.16026
1621.99738	0.15654
1620.06872	0.15223
1618.14007	0.14755
1616.21142	0.14255
1614.28276	0.13732
1612.35411	0.13199
1610.42546	0.12665
1608.49680	0.12135
1606.56815	0.11620
1604.63950	0.11129
1602.71084	0.10671
1600.78219	0.10253
1598.85354	0.09876
1596.92488	0.09542
1594.99623	0.09255
1593.06758	0.09012
1591.13892	0.08806
1589.21027	0.08636
1587.28162	0.08505
1585.35296	0.08419
1583.42431	0.08381
1581.49566	0.08395
1579.56700	0.08458
1577.63835	0.08565
1575.70970	0.08716
1573.78104	0.08905
1571.85239	0.09130
1569.92374	0.09396
1567.99508	0.09697
1566.06643	0.10020
1564.13778	0.10359
1562.20912	0.10710
1560.28047	0.11071
1558.35182	0.11426
1556.42316	0.11746
1554.49451	0.12024
1552.56586	0.12273
1550.63721	0.12496
1548.70855	0.12693
1546.77990	0.12857
1544.85125	0.12986
1542.92259	0.13085
1540.99394	0.13163
1539.06529	0.13210
1537.13663	0.13211
1535.20798	0.13174
1533.27933	0.13115
1531.35067	0.13043
1529.42202	0.12956
1527.49337	0.12856
1525.56471	0.12742
1523.63606	0.12616
1521.70741	0.12481
1519.77875	0.12338
1517.85010	0.12177
1515.92145	0.11979
1513.99279	0.11744
1512.06414	0.11484
1510.13549	0.11208
1508.20683	0.10916
1506.27818	0.10602
1504.34953	0.10266
1502.42087	0.09924
1500.49222	0.09595
1498.56357	0.09284
1496.63491	0.08979
1494.70626	0.08671
1492.77761	0.08372
1490.84895	0.08094
1488.92030	0.07845
1486.99165	0.07636
1485.06299	0.07476
1483.13434	0.07367
1481.20569	0.07310
1479.27704	0.07299
1477.34838	0.07329
1475.41973	0.07406
1473.49108	0.07532
1471.56242	0.07696
1469.63377	0.07881
1467.70512	0.08074
1465.77646	0.08269
1463.84781	0.08465
1461.91916	0.08662
1459.99050	0.08866
1458.06185	0.09087
1456.13320	0.09305
1454.20454	0.09485
1452.27589	0.09612
1450.34724	0.09692
1448.41858	0.09726
1446.48993	0.09713
1444.56128	0.09663
1442.63262	0.09586
1440.70397	0.09487
1438.77532	0.09367
1436.84666	0.09221
1434.91801	0.09046
1432.98936	0.08857
1431.06070	0.08679
1429.13205	0.08524
1427.20340	0.08401
1425.27474	0.08311
1423.34609	0.08248
1421.41744	0.08207
1419.48878	0.08182
1417.56013	0.08172
1415.63148	0.08179
1413.70283	0.08198
1411.77417	0.08219
1409.84552	0.08241
1407.91687	0.08260
1405.98821	0.08271
1404.05956	0.08265
1402.13091	0.08241
1400.20225	0.08205
1398.27360	0.08159
1396.34495	0.08101
1394.41629	0.08031
1392.48764	0.07960
1390.55899	0.07899
1388.63033	0.07849
1386.70168	0.07802
1384.77303	0.07757
1382.84437	0.07713
1380.91572	0.07668
1378.98707	0.07623
1377.05841	0.07571
1375.12976	0.07500
1373.20111	0.07416
1371.27245	0.07326
1369.34380	0.07227
1367.41515	0.07111
1365.48649	0.06989
1363.55784	0.06879
1361.62919	0.06792
1359.70053	0.06729
1357.77188	0.06692
1355.84323	0.06687
1353.91457	0.06713
1351.98592	0.06768
1350.05727	0.06841
1348.12861	0.06934
1346.19996	0.07044
1344.27131	0.07163
1342.34266	0.07271
1340.41400	0.07358
1338.48535	0.07419
1336.55670	0.07459
1334.62804	0.07465
1332.69939	0.07427
1330.77074	0.07359
1328.84208	0.07279
1326.91343	0.07195
1324.98478	0.07107
1323.05612	0.07026
1321.12747	0.06961
1319.19882	0.06914
1317.27016	0.06873
1315.34151	0.06830
1313.41286	0.06787
1311.48420	0.06747
1309.55555	0.06709
1307.62690	0.06669
1305.69824	0.06631
1303.76959	0.06599
1301.84094	0.06573
1299.91228	0.06551
1297.98363	0.06531
1296.05498	0.06521
1294.12632	0.06535
1292.19767	0.06577
1290.26902	0.06634
1288.34036	0.06695
1286.41171	0.06757
1284.48306	0.06820
1282.55440	0.06876
1280.62575	0.06922
1278.69710	0.06954
1276.76845	0.06966
1274.83979	0.06963
1272.91114	0.06960
1270.98249	0.06964
1269.05383	0.06973
1267.12518	0.07000
1265.19653	0.07050
1263.26787	0.07106
1261.33922	0.07164
1259.41057	0.07230
1257.48191	0.07315
1255.55326	0.07413
1253.62461	0.07522
1251.69595	0.07647
1249.76730	0.07780
1247.83865	0.07911
1245.90999	0.08042
1243.98134	0.08179
1242.05269	0.08317
1240.12403	0.08433
1238.19538	0.08509
1236.26673	0.08552
1234.33807	0.08574
1232.40942	0.08563
1230.48077	0.08508
1228.55211	0.08414
1226.62346	0.08287
1224.69481	0.08133
1222.76615	0.07969
1220.83750	0.07804
1218.90885	0.07646
1216.98019	0.07515
1215.05154	0.07427
1213.12289	0.07377
1211.19423	0.07356
1209.26558	0.07362
1207.33693	0.07391
1205.40828	0.07431
1203.47962	0.07463
1201.55097	0.07461
1199.62232	0.07403
1197.69366	0.07310
1195.76501	0.07196
1193.83636	0.07083
1191.90770	0.06974
1189.97905	0.06860
1188.05040	0.06744
1186.12174	0.06643
1184.19309	0.06566
1182.26444	0.06516
1180.33578	0.06482
1178.40713	0.06449
1176.47848	0.06419
1174.54982	0.06409
1172.62117	0.06411
1170.69252	0.06413
1168.76386	0.06424
1166.83521	0.06447
1164.90656	0.06461
1162.97790	0.06461
1161.04925	0.06457
1159.12060	0.06449
1157.19194	0.06425
1155.26329	0.06386
1153.33464	0.06333
1151.40598	0.06274
1149.47733	0.06209
1147.54868	0.06142
1145.62002	0.06086
1143.69137	0.06038
1141.76272	0.05988
1139.83406	0.05944
1137.90541	0.05918
1135.97676	0.05906
1134.04811	0.05891
1132.11945	0.05874
1130.19080	0.05863
1128.26215	0.05859
1126.33349	0.05853
1124.40484	0.05848
1122.47619	0.05856
1120.54753	0.05874
1118.61888	0.05898
1116.69023	0.05920
1114.76157	0.05935
1112.83292	0.05954
1110.90427	0.05993
1108.97561	0.06041
1107.04696	0.06077
1105.11831	0.06104
1103.18965	0.06139
1101.26100	0.06186
1099.33235	0.06228
1097.40369	0.06270
1095.47504	0.06329
1093.54639	0.06399
1091.61773	0.06473
1089.68908	0.06561
1087.76043	0.06659
1085.83177	0.06761
1083.90312	0.06867
1081.97447	0.06954
1080.04581	0.06999
1078.11716	0.07007
1076.18851	0.06992
1074.25985	0.06960
1072.33120	0.06924
1070.40255	0.06890
1068.47390	0.06862
1066.54524	0.06849
1064.61659	0.06849
1062.68794	0.06842
1060.75928	0.06818
1058.83063	0.06790
1056.90198	0.06758
1054.97332	0.06717
1053.04467	0.06668
1051.11602	0.06616
1049.18736	0.06573
1047.25871	0.06542
1045.33006	0.06516
1043.40140	0.06499
1041.47275	0.06499
1039.54410	0.06513
1037.61544	0.06546
1035.68679	0.06598
1033.75814	0.06658
1031.82948	0.06712
1029.90083	0.06732
1027.97218	0.06705
1026.04352	0.06648
1024.11487	0.06580
1022.18622	0.06514
1020.25756	0.06460
1018.32891	0.06413
1016.40026	0.06370
1014.47160	0.06333
1012.54295	0.06291
1010.61430	0.06230
1008.68564	0.06164
1006.75699	0.06106
1004.82834	0.06042
1002.89968	0.05964
1000.97103	0.05880
999.04238	0.05797
997.11373	0.05718
995.18507	0.05646
993.25642	0.05575
991.32777	0.05500
989.39911	0.05429
987.47046	0.05369
985.54181	0.05314
983.61315	0.05266
981.68450	0.05234
979.75585	0.05223
977.82719	0.05221
975.89854	0.05217
973.96989	0.05205
972.04123	0.05183
970.11258	0.05145
968.18393	0.05096
966.25527	0.05056
964.32662	0.05032
962.39797	0.05014
960.46931	0.04988
958.54066	0.04953
956.61201	0.04923
954.68335	0.04902
952.75470	0.04887
950.82605	0.04876
948.89739	0.04866
946.96874	0.04852
945.04009	0.04842
943.11143	0.04836
941.18278	0.04828
939.25413	0.04820
937.32547	0.04813
935.39682	0.04789
933.46817	0.04745
931.53952	0.04707
929.61086	0.04686
927.68221	0.04663
925.75356	0.04629
923.82490	0.04600
921.89625	0.04578
919.96760	0.04558
918.03894	0.04541
916.11029	0.04502
914.18164	0.04432
912.25298	0.04362
910.32433	0.04321
908.39568	0.04300
906.46702	0.04272
904.53837	0.04239
902.60972	0.04205
900.68106	0.04176
898.75241	0.04158
896.82376	0.04135
894.89510	0.04098
892.96645	0.04057
891.03780	0.04030
889.10914	0.04029
887.18049	0.04037
885.25184	0.04046
883.32318	0.04068
881.39453	0.04107
879.46588	0.04135
877.53722	0.04145
875.60857	0.04148
873.67992	0.04158
871.75126	0.04172
869.82261	0.04170
867.89396	0.04151
865.96530	0.04129
864.03665	0.04096
862.10800	0.04057
860.17935	0.04031
858.25069	0.04017
856.32204	0.04006
854.39339	0.03993
852.46473	0.03969
850.53608	0.03931
848.60743	0.03891
846.67877	0.03848
844.75012	0.03806
842.82147	0.03772
840.89281	0.03741
838.96416	0.03707
837.03551	0.03674
835.10685	0.03645
833.17820	0.03630
831.24955	0.03635
829.32089	0.03643
827.39224	0.03636
825.46359	0.03619
823.53493	0.03616
821.60628	0.03632
819.67763	0.03655
817.74897	0.03663
815.82032	0.03659
813.89167	0.03665
811.96301	0.03676
810.03436	0.03678
808.10571	0.03678
806.17705	0.03674
804.24840	0.03671
802.31975	0.03679
800.39109	0.03692
798.46244	0.03700
796.53379	0.03714
794.60513	0.03736
792.67648	0.03763
790.74783	0.03791
788.81918	0.03814
786.89052	0.03827
784.96187	0.03831
783.03322	0.03832
781.10456	0.03838
779.17591	0.03844
777.24726	0.03847
775.31860	0.03855
773.38995	0.03865
771.46130	0.03868
769.53264	0.03879
767.60399	0.03906
765.67534	0.03936
763.74668	0.03953
761.81803	0.03970
759.88938	0.04001
757.96072	0.04036
756.03207	0.04069
754.10342	0.04093
752.17476	0.04102
750.24611	0.04100
748.31746	0.04101
746.38880	0.04116
744.46015	0.04139
742.53150	0.04156
740.60284	0.04178
738.67419	0.04211
736.74554	0.04244
734.81688	0.04272
732.88823	0.04290
730.95958	0.04312
729.03092	0.04354
727.10227	0.04408
725.17362	0.04461
723.24497	0.04481
721.31631	0.04501
719.38766	0.04521
717.45901	0.04552
715.53035	0.04585
713.60170	0.04604
711.67305	0.04614
709.74439	0.04633
707.81574	0.04667
705.88709	0.04702
703.95843	0.04726
702.02978	0.04742
700.10113	0.04760
698.17247	0.04777
696.24382	0.04792
694.31517	0.04804
692.38651	0.04817
690.45786	0.04833
688.52921	0.04851
686.60055	0.04862
684.67190	0.04867
682.74325	0.04884
680.81459	0.04913
678.88594	0.04929
676.95729	0.04939
675.02863	0.04958
673.09998	0.04981
671.17133	0.04988
669.24267	0.04988
667.31402	0.05015
665.38537	0.05038
663.45671	0.05056
661.52806	0.05077
659.59941	0.05095
657.67075	0.05099
655.74210	0.05105
653.81345	0.05120
651.88480	0.05132
649.95614	0.05133
648.02749	0.05135
646.09884	0.05138
644.17018	0.05131
642.24153	0.05121
640.31288	0.05124
638.38422	0.05139
636.45557	0.05152
634.52692	0.05153
632.59826	0.05151
630.66961	0.05127
628.74096	0.05025
626.81230	0.05107
624.88365	0.05235
622.95500	0.05329
621.02634	0.05326
619.09769	0.05216
617.16904	0.05124
615.24038	0.05106
613.31173	0.05122
611.38308	0.05190
609.45442	0.05338
607.52577	0.05437
605.59712	0.05385
603.66846	0.05340
601.73981	0.05387
599.81116	0.05403
597.88250	0.05394
595.95385	0.05436
594.02520	0.05483
592.09654	0.05486
590.16789	0.05488
588.23924	0.05514
586.31059	0.05537
584.38193	0.05540
582.45328	0.05535
580.52463	0.05533
578.59597	0.05543
576.66732	0.05572
574.73867	0.05613
572.81001	0.05643
570.88136	0.05659
568.95271	0.05676
567.02405	0.05694
565.09540	0.05728
563.16675	0.05791
561.23809	0.05854
559.30944	0.05889
557.38079	0.05902
555.45213	0.05905
553.52348	0.05895
551.59483	0.05878
549.66617	0.05861
547.73752	0.05845
545.80887	0.05833
543.88021	0.05825
541.95156	0.05817
540.02291	0.05807
538.09425	0.05797
536.16560	0.05795
534.23695	0.05811
532.30829	0.05840
530.37964	0.05853
528.45099	0.05855
526.52233	0.05854
524.59368	0.05835
522.66503	0.05802
520.73637	0.05767
518.80772	0.05731
516.87907	0.05686
514.95042	0.05622
513.02176	0.05539
511.09311	0.05474
509.16446	0.05460
507.23580	0.05462
505.30715	0.05430
503.37850	0.05376
501.44984	0.05336
499.52119	0.05302
497.59254	0.05250
495.66388	0.05191
493.73523	0.05153
491.80658	0.05134
489.87792	0.05101
487.94927	0.05043
486.02062	0.04981
484.09196	0.04934
482.16331	0.04906
480.23466	0.04891
478.30600	0.04868
476.37735	0.04823
474.44870	0.04782
472.52004	0.04762
470.59139	0.04744
468.66274	0.04721
466.73408	0.04701
464.80543	0.04676
462.87678	0.04634
460.94812	0.04579
459.01947	0.04519
457.09082	0.04472
455.16216	0.04440
453.23351	0.04412
451.30486	0.04376
449.37620	0.04324
447.44755	0.04258
445.51890	0.04204
443.59025	0.04170
441.66159	0.04140
439.73294	0.04106
437.80429	0.04082
435.87563	0.04075
433.94698	0.04064
432.01833	0.04030
430.08967	0.03993
428.16102	0.03963
426.23237	0.03927
424.30371	0.03881
422.37506	0.03849
420.44641	0.03834
418.51775	0.03813
416.58910	0.03778
414.66045	0.03743
412.73179	0.03711
410.80314	0.03677
408.87449	0.03640
406.94583	0.03617
405.01718	0.03615
403.08853	0.03615
401.15987	0.03601
399.23122	0.03577
