3996.16951	0.04320
3994.24086	0.04227
3992.31221	0.04225
3990.38355	0.04275
3988.45490	0.04303
3986.52625	0.04325
3984.59759	0.04370
3982.66894	0.04402
3980.74029	0.04376
3978.81163	0.04301
3976.88298	0.04236
3974.95433	0.04216
3973.02567	0.04225
3971.09702	0.04246
3969.16837	0.04290
3967.23972	0.04344
3965.31106	0.04354
3963.38241	0.04327
3961.45376	0.04313
3959.52510	0.04297
3957.59645	0.04252
3955.66780	0.04237
3953.73914	0.04283
3951.81049	0.04333
3949.88184	0.04337
3947.95318	0.04307
3946.02453	0.04276
3944.09588	0.04261
3942.16722	0.04274
3940.23857	0.04276
3938.30992	0.04232
3936.38126	0.04172
3934.45261	0.04112
3932.52396	0.04084
3930.59530	0.04132
3928.66665	0.04180
3926.73800	0.04133
3924.80934	0.04029
3922.88069	0.03984
3920.95204	0.04029
3919.02338	0.04098
3917.09473	0.04125
3915.16608	0.04134
3913.23742	0.04176
3911.30877	0.04241
3909.38012	0.04255
3907.45146	0.04199
3905.52281	0.04141
3903.59416	0.04140
3901.66550	0.04161
3899.73685	0.04145
3897.80820	0.04125
3895.87955	0.04131
3893.95089	0.04138
3892.02224	0.04116
3890.09359	0.04103
3888.16493	0.04095
3886.23628	0.04069
3884.30763	0.04078
3882.37897	0.04064
3880.45032	0.04010
3878.52167	0.03999
3876.59301	0.04018
3874.66436	0.04047
3872.73571	0.04073
3870.80705	0.04046
3868.87840	0.04063
3866.94975	0.04109
3865.02109	0.04088
3863.09244	0.04047
3861.16379	0.04001
3859.23513	0.03995
3857.30648	0.04065
3855.37783	0.04101
3853.44917	0.04069
3851.52052	0.04048
3849.59187	0.04030
3847.66321	0.04037
3845.73456	0.04064
3843.80591	0.04056
3841.87725	0.04008
3839.94860	0.03920
3838.01995	0.03833
3836.09129	0.03841
3834.16264	0.03880
3832.23399	0.03883
3830.30534	0.03895
3828.37668	0.03922
3826.44803	0.03920
3824.51938	0.03909
3822.59072	0.03884
3820.66207	0.03889
3818.73342	0.03916
3816.80476	0.03885
3814.87611	0.03891
3812.94746	0.03917
3811.01880	0.03910
3809.09015	0.03889
3807.16150	0.03861
3805.23284	0.03865
3803.30419	0.03826
3801.37554	0.03802
3799.44688	0.03872
3797.51823	0.03880
3795.58958	0.03850
3793.66092	0.03858
3791.73227	0.03881
3789.80362	0.03880
3787.87496	0.03819
3785.94631	0.03737
3784.01766	0.03698
3782.08900	0.03732
3780.16035	0.03792
3778.23170	0.03832
3776.30304	0.03835
3774.37439	0.03812
3772.44574	0.03796
3770.51708	0.03794
3768.58843	0.03825
3766.65978	0.03845
3764.73112	0.03822
3762.80247	0.03756
3760.87382	0.03660
3758.94517	0.03622
3757.01651	0.03673
3755.08786	0.03759
3753.15921	0.03778
3751.23055	0.03764
3749.30190	0.03809
3747.37325	0.03893
3745.44459	0.03846
3743.51594	0.03776
3741.58729	0.03736
3739.65863	0.03681
3737.72998	0.03673
3735.80133	0.03713
3733.87267	0.03760
3731.94402	0.03732
3730.01537	0.03656
3728.08671	0.03566
3726.15806	0.03523
3724.22941	0.03525
3722.30075	0.03535
3720.37210	0.03578
3718.44345	0.03634
3716.51479	0.03671
3714.58614	0.03665
3712.65749	0.03612
3710.72883	0.03577
3708.80018	0.03567
3706.87153	0.03557
3704.94287	0.03526
3703.01422	0.03484
3701.08557	0.03489
3699.15691	0.03502
3697.22826	0.03465
3695.29961	0.03444
3693.37095	0.03476
3691.44230	0.03544
3689.51365	0.03592
3687.58500	0.03602
3685.65634	0.03590
3683.72769	0.03529
3681.79904	0.03475
3679.87038	0.03485
3677.94173	0.03525
3676.01308	0.03538
3674.08442	0.03615
3672.15577	0.03668
3670.22712	0.03622
3668.29846	0.03537
3666.36981	0.03455
3664.44116	0.03461
3662.51250	0.03508
3660.58385	0.03523
3658.65520	0.03525
3656.72654	0.03542
3654.79789	0.03619
3652.86924	0.03684
3650.94058	0.03664
3649.01193	0.03636
3647.08328	0.03653
3645.15462	0.03672
3643.22597	0.03695
3641.29732	0.03744
3639.36866	0.03764
3637.44001	0.03735
3635.51136	0.03706
3633.58270	0.03708
3631.65405	0.03734
3629.72540	0.03755
3627.79674	0.03819
3625.86809	0.03885
3623.93944	0.03902
3622.01079	0.03925
3620.08213	0.03977
3618.15348	0.04051
3616.22483	0.04094
3614.29617	0.04113
3612.36752	0.04169
3610.43887	0.04196
3608.51021	0.04158
3606.58156	0.04120
3604.65291	0.04113
3602.72425	0.04154
3600.79560	0.04218
3598.86695	0.04256
3596.93829	0.04238
3595.00964	0.04216
3593.08099	0.04278
3591.15233	0.04382
3589.22368	0.04438
3587.29503	0.04462
3585.36637	0.04479
3583.43772	0.04501
3581.50907	0.04549
3579.58041	0.04607
3577.65176	0.04661
3575.72311	0.04712
3573.79445	0.04763
3571.86580	0.04836
3569.93715	0.04908
3568.00849	0.04927
3566.07984	0.04945
3564.15119	0.05004
3562.22253	0.05053
3560.29388	0.05064
3558.36523	0.05082
3556.43657	0.05114
3554.50792	0.05125
3552.57927	0.05149
3550.65062	0.05219
3548.72196	0.05273
3546.79331	0.05292
3544.86466	0.05342
3542.93600	0.05422
3541.00735	0.05481
3539.07870	0.05526
3537.15004	0.05595
3535.22139	0.05656
3533.29274	0.05665
3531.36408	0.05657
3529.43543	0.05676
3527.50678	0.05713
3525.57812	0.05763
3523.64947	0.05814
3521.72082	0.05831
3519.79216	0.05828
3517.86351	0.05849
3515.93486	0.05890
3514.00620	0.05938
3512.07755	0.06000
3510.14890	0.06082
3508.22024	0.06160
3506.29159	0.06181
3504.36294	0.06157
3502.43428	0.06165
3500.50563	0.06204
3498.57698	0.06226
3496.64832	0.06249
3494.71967	0.06293
3492.79102	0.06320
3490.86236	0.06315
3488.93371	0.06325
3487.00506	0.06390
3485.07641	0.06499
3483.14775	0.06594
3481.21910	0.06624
3479.29045	0.06593
3477.36179	0.06554
3475.43314	0.06567
3473.50449	0.06642
3471.57583	0.06725
3469.64718	0.06754
3467.71853	0.06757
3465.78987	0.06796
3463.86122	0.06863
3461.93257	0.06886
3460.00391	0.06832
3458.07526	0.06766
3456.14661	0.06783
3454.21795	0.06868
3452.28930	0.06933
3450.36065	0.06968
3448.43199	0.07027
3446.50334	0.07113
3444.57469	0.07165
3442.64603	0.07162
3440.71738	0.07153
3438.78873	0.07178
3436.86007	0.07211
3434.93142	0.07232
3433.00277	0.07291
3431.07411	0.07393
3429.14546	0.07469
3427.21681	0.07509
3425.28815	0.07550
3423.35950	0.07579
3421.43085	0.07592
3419.50219	0.07604
3417.57354	0.07600
3415.64489	0.07585
3413.71624	0.07595
3411.78758	0.07654
3409.85893	0.07765
3407.93028	0.07885
3406.00162	0.07941
3404.07297	0.07927
3402.14432	0.07907
3400.21566	0.07919
3398.28701	0.07928
3396.35836	0.07932
3394.42970	0.07956
3392.50105	0.08007
3390.57240	0.08075
3388.64374	0.08159
3386.71509	0.08237
3384.78644	0.08291
3382.85778	0.08334
3380.92913	0.08376
3379.00048	0.08410
3377.07182	0.08456
3375.14317	0.08524
3373.21452	0.08593
3371.28586	0.08638
3369.35721	0.08645
3367.42856	0.08640
3365.49990	0.08665
3363.57125	0.08729
3361.64260	0.08824
3359.71394	0.08930
3357.78529	0.09031
3355.85664	0.09110
3353.92798	0.09148
3351.99933	0.09177
3350.07068	0.09265
3348.14202	0.09401
3346.21337	0.09518
3344.28472	0.09608
3342.35607	0.09666
3340.42741	0.09684
3338.49876	0.09714
3336.57011	0.09776
3334.64145	0.09820
3332.71280	0.09855
3330.78415	0.09927
3328.85549	0.10020
3326.92684	0.10097
3324.99819	0.10164
3323.06953	0.10219
3321.14088	0.10233
3319.21223	0.10214
3317.28357	0.10218
3315.35492	0.10252
3313.42627	0.10286
3311.49761	0.10329
3309.56896	0.10388
3307.64031	0.10423
3305.71165	0.10419
3303.78300	0.10412
3301.85435	0.10438
3299.92569	0.10496
3297.99704	0.10545
3296.06839	0.10557
3294.13973	0.10533
3292.21108	0.10491
3290.28243	0.10466
3288.35377	0.10473
3286.42512	0.10498
3284.49647	0.10531
3282.56781	0.10555
3280.63916	0.10544
3278.71051	0.10510
3276.78186	0.10493
3274.85320	0.10500
3272.92455	0.10508
3270.99590	0.10495
3269.06724	0.10455
3267.13859	0.10408
3265.20994	0.10361
3263.28128	0.10297
3261.35263	0.10219
3259.42398	0.10160
3257.49532	0.10128
3255.56667	0.10093
3253.63802	0.10045
3251.70936	0.10014
3249.78071	0.10014
3247.85206	0.10016
3245.92340	0.09983
3243.99475	0.09931
3242.06610	0.09898
3240.13744	0.09878
3238.20879	0.09834
3236.28014	0.09772
3234.35148	0.09746
3232.42283	0.09765
3230.49418	0.09761
3228.56552	0.09721
3226.63687	0.09689
3224.70822	0.09676
3222.77956	0.09661
3220.85091	0.09630
3218.92226	0.09584
3216.99360	0.09528
3215.06495	0.09485
3213.13630	0.09480
3211.20764	0.09481
3209.27899	0.09456
3207.35034	0.09426
3205.42169	0.09423
3203.49303	0.09438
3201.56438	0.09431
3199.63573	0.09376
3197.70707	0.09293
3195.77842	0.09231
3193.84977	0.09208
3191.92111	0.09192
3189.99246	0.09153
3188.06381	0.09098
3186.13515	0.09057
3184.20650	0.09022
3182.27785	0.08976
3180.34919	0.08922
3178.42054	0.08877
3176.49189	0.08841
3174.56323	0.08811
3172.63458	0.08794
3170.70593	0.08773
3168.77727	0.08725
3166.84862	0.08663
3164.91997	0.08600
3162.99131	0.08523
3161.06266	0.08449
3159.13401	0.08418
3157.20535	0.08406
3155.27670	0.08368
3153.34805	0.08303
3151.41939	0.08239
3149.49074	0.08182
3147.56209	0.08127
3145.63343	0.08091
3143.70478	0.08088
3141.77613	0.08081
3139.84748	0.08026
3137.91882	0.07945
3135.99017	0.07888
3134.06152	0.07867
3132.13286	0.07870
3130.20421	0.07872
3128.27556	0.07848
3126.34690	0.07816
3124.41825	0.07792
3122.48960	0.07769
3120.56094	0.07754
3118.63229	0.07760
3116.70364	0.07761
3114.77498	0.07733
3112.84633	0.07709
3110.91768	0.07725
3108.98902	0.07751
3107.06037	0.07745
3105.13172	0.07727
3103.20306	0.07718
3101.27441	0.07705
3099.34576	0.07702
3097.41710	0.07720
3095.48845	0.07741
3093.55980	0.07768
3091.63114	0.07806
3089.70249	0.07832
3087.77384	0.07838
3085.84518	0.07861
3083.91653	0.07913
3081.98788	0.07959
3080.05922	0.07976
3078.13057	0.07973
3076.20192	0.07960
3074.27326	0.07947
3072.34461	0.07934
3070.41596	0.07921
3068.48731	0.07907
3066.55865	0.07865
3064.63000	0.07809
3062.70135	0.07791
3060.77269	0.07816
3058.84404	0.07845
3056.91539	0.07848
3054.98673	0.07812
3053.05808	0.07744
3051.12943	0.07674
3049.20077	0.07624
3047.27212	0.07583
3045.34347	0.07545
3043.41481	0.07508
3041.48616	0.07458
3039.55751	0.07406
3037.62885	0.07367
3035.70020	0.07333
3033.77155	0.07300
3031.84289	0.07271
3029.91424	0.07239
3027.98559	0.07190
3026.05693	0.07136
3024.12828	0.07099
3022.19963	0.07067
3020.27097	0.07035
3018.34232	0.07026
3016.41367	0.07030
3014.48501	0.07013
3012.55636	0.06967
3010.62771	0.06920
3008.69905	0.06906
3006.77040	0.06919
3004.84175	0.06930
3002.91309	0.06929
3000.98444	0.06915
2999.05579	0.06902
2997.12714	0.06908
2995.19848	0.06914
2993.26983	0.06903
2991.34118	0.06906
2989.41252	0.06938
2987.48387	0.06974
2985.55522	0.07000
2983.62656	0.07029
2981.69791	0.07064
2979.76926	0.07092
2977.84060	0.07110
2975.91195	0.07144
2973.98330	0.07202
2972.05464	0.07247
2970.12599	0.07260
2968.19734	0.07259
2966.26868	0.07257
2964.34003	0.07274
2962.41138	0.07322
2960.48272	0.07377
2958.55407	0.07421
2956.62542	0.07459
2954.69676	0.07476
2952.76811	0.07469
2950.83946	0.07464
2948.91080	0.07472
2946.98215	0.07485
2945.05350	0.07493
2943.12484	0.07506
2941.19619	0.07550
2939.26754	0.07632
2937.33888	0.07721
2935.41023	0.07780
2933.48158	0.07811
2931.55293	0.07840
2929.62427	0.07871
2927.69562	0.07884
2925.76697	0.07885
2923.83831	0.07897
2921.90966	0.07917
2919.98101	0.07918
2918.05235	0.07888
2916.12370	0.07809
2914.19505	0.07676
2912.26639	0.07519
2910.33774	0.07365
2908.40909	0.07238
2906.48043	0.07156
2904.55178	0.07115
2902.62313	0.07084
2900.69447	0.07038
2898.76582	0.06986
2896.83717	0.06955
2894.90851	0.06937
2892.97986	0.06908
2891.05121	0.06880
2889.12255	0.06861
2887.19390	0.06831
2885.26525	0.06801
2883.33659	0.06786
2881.40794	0.06762
2879.47929	0.06733
2877.55063	0.06737
2875.62198	0.06762
2873.69333	0.06772
2871.76467	0.06767
2869.83602	0.06766
2867.90737	0.06758
2865.97871	0.06727
2864.05006	0.06691
2862.12141	0.06665
2860.19276	0.06642
2858.26410	0.06622
2856.33545	0.06626
2854.40680	0.06654
2852.47814	0.06668
2850.54949	0.06644
2848.62084	0.06585
2846.69218	0.06498
2844.76353	0.06389
2842.83488	0.06282
2840.90622	0.06196
2838.97757	0.06139
2837.04892	0.06092
2835.12026	0.06040
2833.19161	0.05997
2831.26296	0.05986
2829.33430	0.05992
2827.40565	0.05959
2825.47700	0.05891
2823.54834	0.05846
2821.61969	0.05837
2819.69104	0.05835
2817.76238	0.05820
2815.83373	0.05796
2813.90508	0.05772
2811.97642	0.05768
2810.04777	0.05777
2808.11912	0.05760
2806.19046	0.05712
2804.26181	0.05668
2802.33316	0.05653
2800.40450	0.05661
2798.47585	0.05658
2796.54720	0.05628
2794.61855	0.05588
2792.68989	0.05556
2790.76124	0.05547
2788.83259	0.05556
2786.90393	0.05549
2784.97528	0.05506
2783.04663	0.05458
2781.11797	0.05439
2779.18932	0.05433
2777.26067	0.05413
2775.33201	0.05380
2773.40336	0.05357
2771.47471	0.05357
2769.54605	0.05361
2767.61740	0.05349
2765.68875	0.05330
2763.76009	0.05295
2761.83144	0.05249
2759.90279	0.05228
2757.97413	0.05233
2756.04548	0.05235
2754.11683	0.05211
2752.18817	0.05187
2750.25952	0.05193
2748.33087	0.05206
2746.40221	0.05193
2744.47356	0.05170
2742.54491	0.05160
2740.61625	0.05159
2738.68760	0.05151
2736.75895	0.05132
2734.83029	0.05118
2732.90164	0.05109
2730.97299	0.05087
2729.04433	0.05046
2727.11568	0.05006
2725.18703	0.04985
2723.25838	0.04960
2721.32972	0.04930
2719.40107	0.04923
2717.47242	0.04925
2715.54376	0.04903
2713.61511	0.04875
2711.68646	0.04865
2709.75780	0.04863
2707.82915	0.04855
2705.90050	0.04846
2703.97184	0.04834
2702.04319	0.04818
2700.11454	0.04804
2698.18588	0.04800
2696.25723	0.04794
2694.32858	0.04772
2692.39992	0.04749
2690.47127	0.04748
2688.54262	0.04758
2686.61396	0.04766
2684.68531	0.04758
2682.75666	0.04734
2680.82800	0.04711
2678.89935	0.04698
2676.97070	0.04688
2675.04204	0.04675
2673.11339	0.04662
2671.18474	0.04658
2669.25608	0.04651
2667.32743	0.04634
2665.39878	0.04619
2663.47012	0.04610
2661.54147	0.04601
2659.61282	0.04588
2657.68417	0.04574
2655.75551	0.04566
2653.82686	0.04553
2651.89821	0.04532
2649.96955	0.04510
2648.04090	0.04496
2646.11225	0.04488
2644.18359	0.04471
2642.25494	0.04451
2640.32629	0.04439
2638.39763	0.04412
2636.46898	0.04366
2634.54033	0.04337
2632.61167	0.04328
2630.68302	0.04304
2628.75437	0.04273
2626.82571	0.04248
2624.89706	0.04210
2622.96841	0.04163
2621.03975	0.04142
2619.11110	0.04138
2617.18245	0.04110
2615.25379	0.04048
2613.32514	0.03989
2611.39649	0.03952
2609.46783	0.03942
2607.53918	0.03947
2605.61053	0.03938
2603.68187	0.03909
2601.75322	0.03883
2599.82457	0.03870
2597.89591	0.03860
2595.96726	0.03847
2594.03861	0.03829
2592.10995	0.03799
2590.18130	0.03769
2588.25265	0.03757
2586.32400	0.03741
2584.39534	0.03706
2582.46669	0.03675
2580.53804	0.03665
2578.60938	0.03675
2576.68073	0.03684
2574.75208	0.03663
2572.82342	0.03613
2570.89477	0.03552
2568.96612	0.03511
2567.03746	0.03527
2565.10881	0.03588
2563.18016	0.03627
2561.25150	0.03587
2559.32285	0.03499
2557.39420	0.03442
2555.46554	0.03439
2553.53689	0.03469
2551.60824	0.03506
2549.67958	0.03521
2547.75093	0.03507
2545.82228	0.03480
2543.89362	0.03442
2541.96497	0.03395
2540.03632	0.03367
2538.10766	0.03379
2536.17901	0.03394
2534.25036	0.03365
2532.32170	0.03316
2530.39305	0.03291
2528.46440	0.03287
2526.53574	0.03283
2524.60709	0.03271
2522.67844	0.03266
2520.74978	0.03273
2518.82113	0.03271
2516.89248	0.03251
2514.96383	0.03234
2513.03517	0.03229
2511.10652	0.03232
2509.17787	0.03259
2507.24921	0.03298
2505.32056	0.03308
2503.39191	0.03304
2501.46325	0.03308
2499.53460	0.03297
2497.60595	0.03276
2495.67729	0.03268
2493.74864	0.03261
2491.81999	0.03237
2489.89133	0.03198
2487.96268	0.03171
2486.03403	0.03165
2484.10537	0.03154
2482.17672	0.03152
2480.24807	0.03156
2478.31941	0.03134
2476.39076	0.03106
2474.46211	0.03108
2472.53345	0.03132
2470.60480	0.03162
2468.67615	0.03175
2466.74749	0.03156
2464.81884	0.03125
2462.89019	0.03137
2460.96153	0.03182
2459.03288	0.03186
2457.10423	0.03144
2455.17557	0.03104
2453.24692	0.03079
2451.31827	0.03070
2449.38962	0.03070
2447.46096	0.03069
2445.53231	0.03076
2443.60366	0.03075
2441.67500	0.03043
2439.74635	0.03011
2437.81770	0.03022
2435.88904	0.03057
2433.96039	0.03067
2432.03174	0.03047
2430.10308	0.03024
2428.17443	0.03016
2426.24578	0.03023
2424.31712	0.03020
2422.38847	0.02995
2420.45982	0.02975
2418.53116	0.02980
2416.60251	0.03003
2414.67386	0.03018
2412.74520	0.03007
2410.81655	0.02988
2408.88790	0.02974
2406.95924	0.02968
2405.03059	0.02984
2403.10194	0.03008
2401.17328	0.03015
2399.24463	0.02997
2397.31598	0.02973
2395.38732	0.02976
2393.45867	0.03018
2391.53002	0.03066
2389.60136	0.03082
2387.67271	0.03066
2385.74406	0.03039
2383.81540	0.03021
2381.88675	0.03018
2379.95810	0.03032
2378.02945	0.03055
2376.10079	0.03077
2374.17214	0.03092
2372.24349	0.03090
2370.31483	0.03079
2368.38618	0.03084
2366.45753	0.03102
2364.52887	0.03110
2362.60022	0.03114
2360.67157	0.03123
2358.74291	0.03119
2356.81426	0.03112
2354.88561	0.03133
2352.95695	0.03162
2351.02830	0.03170
2349.09965	0.03174
2347.17099	0.03183
2345.24234	0.03178
2343.31369	0.03163
2341.38503	0.03160
2339.45638	0.03166
2337.52773	0.03162
2335.59907	0.03140
2333.67042	0.03116
2331.74177	0.03105
2329.81311	0.03111
2327.88446	0.03153
2325.95581	0.03222
2324.02715	0.03254
2322.09850	0.03221
2320.16985	0.03161
2318.24119	0.03110
2316.31254	0.03073
2314.38389	0.03034
2312.45524	0.02972
2310.52658	0.02905
2308.59793	0.02871
2306.66928	0.02854
2304.74062	0.02818
2302.81197	0.02782
2300.88332	0.02777
2298.95466	0.02783
2297.02601	0.02775
2295.09736	0.02755
2293.16870	0.02709
2291.24005	0.02631
2289.31140	0.02573
2287.38274	0.02586
2285.45409	0.02640
2283.52544	0.02648
2281.59678	0.02576
2279.66813	0.02493
2277.73948	0.02433
2275.81082	0.02348
2273.88217	0.02252
2271.95352	0.02221
2270.02486	0.02254
2268.09621	0.02278
2266.16756	0.02256
2264.23890	0.02212
2262.31025	0.02183
2260.38160	0.02164
2258.45294	0.02130
2256.52429	0.02083
2254.59564	0.02043
2252.66698	0.01995
2250.73833	0.01929
2248.80968	0.01898
2246.88102	0.01919
2244.95237	0.01960
2243.02372	0.01960
2241.09507	0.01920
2239.16641	0.01869
2237.23776	0.01812
2235.30911	0.01759
2233.38045	0.01731
2231.45180	0.01733
2229.52315	0.01742
2227.59449	0.01743
2225.66584	0.01737
2223.73719	0.01730
2221.80853	0.01717
2219.87988	0.01679
2217.95123	0.01631
2216.02257	0.01623
2214.09392	0.01627
2212.16527	0.01583
2210.23661	0.01550
2208.30796	0.01595
2206.37931	0.01633
2204.45065	0.01590
2202.52200	0.01523
2200.59335	0.01509
2198.66469	0.01534
2196.73604	0.01559
2194.80739	0.01575
2192.87873	0.01587
2190.95008	0.01571
2189.02143	0.01477
2187.09277	0.01375
2185.16412	0.01340
2183.23547	0.01282
2181.30681	0.01204
2179.37816	0.01214
2177.44951	0.01251
2175.52085	0.01236
2173.59220	0.01221
2171.66355	0.01233
2169.73490	0.01260
2167.80624	0.01275
2165.87759	0.01205
2163.94894	0.01081
2162.02028	0.00996
2160.09163	0.00905
2158.16298	0.00781
2156.23432	0.00751
2154.30567	0.00830
2152.37702	0.00908
2150.44836	0.01002
2148.51971	0.01126
2146.59106	0.01180
2144.66240	0.01175
2142.73375	0.01191
2140.80510	0.01226
2138.87644	0.01251
2136.94779	0.01271
2135.01914	0.01282
2133.09048	0.01292
2131.16183	0.01353
2129.23318	0.01478
2127.30452	0.01591
2125.37587	0.01640
2123.44722	0.01664
2121.51856	0.01688
2119.58991	0.01710
2117.66126	0.01740
2115.73260	0.01755
2113.80395	0.01723
2111.87530	0.01672
2109.94664	0.01667
2108.01799	0.01719
2106.08934	0.01751
2104.16069	0.01731
2102.23203	0.01708
2100.30338	0.01691
2098.37473	0.01673
2096.44607	0.01631
2094.51742	0.01589
2092.58877	0.01578
2090.66011	0.01585
2088.73146	0.01591
2086.80281	0.01598
2084.87415	0.01606
2082.94550	0.01621
2081.01685	0.01644
2079.08819	0.01679
2077.15954	0.01706
2075.23089	0.01696
2073.30223	0.01647
2071.37358	0.01577
2069.44493	0.01511
2067.51627	0.01474
2065.58762	0.01450
2063.65897	0.01417
2061.73031	0.01374
2059.80166	0.01330
2057.87301	0.01309
2055.94435	0.01326
2054.01570	0.01346
2052.08705	0.01335
2050.15839	0.01289
2048.22974	0.01214
2046.30109	0.01138
2044.37243	0.01079
2042.44378	0.01010
2040.51513	0.00935
2038.58647	0.00909
2036.65782	0.00915
2034.72917	0.00925
2032.80052	0.00961
2030.87186	0.00974
2028.94321	0.00919
2027.01456	0.00845
2025.08590	0.00809
2023.15725	0.00819
2021.22860	0.00841
2019.29994	0.00862
2017.37129	0.00894
2015.44264	0.00913
2013.51398	0.00901
2011.58533	0.00901
2009.65668	0.00935
2007.72802	0.00957
2005.79937	0.00944
2003.87072	0.00948
2001.94206	0.00994
2000.01341	0.01014
1998.08476	0.00977
1996.15610	0.00945
1994.22745	0.00948
1992.29880	0.00978
1990.37014	0.01024
1988.44149	0.01032
1986.51284	0.00977
1984.58418	0.00938
1982.65553	0.00981
1980.72688	0.01043
1978.79822	0.01021
1976.86957	0.00936
1974.94092	0.00880
1973.01226	0.00886
1971.08361	0.00938
1969.15496	0.01020
1967.22631	0.01091
1965.29765	0.01092
1963.36900	0.01049
1961.44035	0.01031
1959.51169	0.01039
1957.58304	0.01016
1955.65439	0.00957
1953.72573	0.00921
1951.79708	0.00947
1949.86843	0.01017
1947.93977	0.01096
1946.01112	0.01160
1944.08247	0.01198
1942.15381	0.01232
1940.22516	0.01286
1938.29651	0.01324
1936.36785	0.01325
1934.43920	0.01330
1932.51055	0.01345
1930.58189	0.01352
1928.65324	0.01350
1926.72459	0.01337
1924.79593	0.01333
1922.86728	0.01366
1920.93863	0.01408
1919.00997	0.01402
1917.08132	0.01362
1915.15267	0.01342
1913.22401	0.01363
1911.29536	0.01409
1909.36671	0.01453
1907.43805	0.01474
1905.50940	0.01472
1903.58075	0.01468
1901.65209	0.01459
1899.72344	0.01439
1897.79479	0.01439
1895.86614	0.01474
1893.93748	0.01512
1892.00883	0.01522
1890.08018	0.01516
1888.15152	0.01511
1886.22287	0.01497
1884.29422	0.01485
1882.36556	0.01486
1880.43691	0.01484
1878.50826	0.01476
1876.57960	0.01482
1874.65095	0.01501
1872.72230	0.01523
1870.79364	0.01537
1868.86499	0.01539
1866.93634	0.01534
1865.00768	0.01529
1863.07903	0.01536
1861.15038	0.01545
1859.22172	0.01542
1857.29307	0.01522
1855.36442	0.01498
1853.43576	0.01495
1851.50711	0.01506
1849.57846	0.01504
1847.64980	0.01502
1845.72115	0.01514
1843.79250	0.01540
1841.86384	0.01566
1839.93519	0.01553
1838.00654	0.01525
1836.07788	0.01517
1834.14923	0.01530
1832.22058	0.01547
1830.29192	0.01566
1828.36327	0.01589
1826.43462	0.01599
1824.50597	0.01604
1822.57731	0.01606
1820.64866	0.01594
1818.72001	0.01583
1816.79135	0.01576
1814.86270	0.01563
1812.93405	0.01543
1811.00539	0.01523
1809.07674	0.01508
1807.14809	0.01501
1805.21943	0.01512
1803.29078	0.01533
1801.36213	0.01543
1799.43347	0.01544
1797.50482	0.01550
1795.57617	0.01569
1793.64751	0.01586
1791.71886	0.01589
1789.79021	0.01583
1787.86155	0.01566
1785.93290	0.01550
1784.00425	0.01541
1782.07559	0.01534
1780.14694	0.01530
1778.21829	0.01535
1776.28963	0.01545
1774.36098	0.01546
1772.43233	0.01536
1770.50367	0.01532
1768.57502	0.01519
1766.64637	0.01511
1764.71771	0.01502
1762.78906	0.01481
1760.86041	0.01482
1758.93176	0.01492
1757.00310	0.01491
1755.07445	0.01498
1753.14580	0.01504
1751.21714	0.01512
1749.28849	0.01533
1747.35984	0.01537
1745.43118	0.01534
1743.50253	0.01550
1741.57388	0.01573
1739.64522	0.01597
1737.71657	0.01647
1735.78792	0.01689
1733.85926	0.01716
1731.93061	0.01754
1730.00196	0.01774
1728.07330	0.01797
1726.14465	0.01832
1724.21600	0.01861
1722.28734	0.01899
1720.35869	0.01948
1718.43004	0.01994
1716.50138	0.02065
1714.57273	0.02148
1712.64408	0.02222
1710.71542	0.02316
1708.78677	0.02435
1706.85812	0.02568
1704.92946	0.02725
1703.00081	0.02911
1701.07216	0.03100
1699.14350	0.03331
1697.21485	0.03545
1695.28620	0.03737
1693.35754	0.03969
1691.42889	0.04187
1689.50024	0.04419
1687.57159	0.04683
1685.64293	0.04934
1683.71428	0.05202
1681.78563	0.05488
1679.85697	0.05760
1677.92832	0.06061
1675.99967	0.06386
1674.07101	0.06735
1672.14236	0.07094
1670.21371	0.07439
1668.28505	0.07792
1666.35640	0.08145
1664.42775	0.08478
1662.49909	0.08798
1660.57044	0.09103
1658.64179	0.09383
1656.71313	0.09648
1654.78448	0.09867
1652.85583	0.10059
1650.92717	0.10267
1648.99852	0.10418
1647.06987	0.10530
1645.14121	0.10651
1643.21256	0.10756
1641.28391	0.10838
1639.35525	0.10925
1637.42660	0.11002
1635.49795	0.11064
1633.56929	0.11116
1631.64064	0.11114
1629.71199	0.11056
1627.78333	0.10961
1625.85468	0.10822
1623.92603	0.10618
1621.99738	0.10369
1620.06872	0.10095
1618.14007	0.09782
1616.21142	0.09459
1614.28276	0.09141
1612.35411	0.08794
1610.42546	0.08442
1608.49680	0.08108
1606.56815	0.07789
1604.63950	0.07487
1602.71084	0.07210
1600.78219	0.06956
1598.85354	0.06722
1596.92488	0.06513
1594.99623	0.06333
1593.06758	0.06182
1591.13892	0.06065
1589.21027	0.05977
1587.28162	0.05908
1585.35296	0.05855
1583.42431	0.05833
1581.49566	0.05854
1579.56700	0.05916
1577.63835	0.05981
1575.70970	0.06065
1573.78104	0.06196
1571.85239	0.06329
1569.92374	0.06479
1567.99508	0.06669
1566.06643	0.06871
1564.13778	0.07087
1562.20912	0.07317
1560.28047	0.07522
1558.35182	0.07737
1556.42316	0.07944
1554.49451	0.08093
1552.56586	0.08234
1550.63721	0.08373
1548.70855	0.08505
1546.77990	0.08620
1544.85125	0.08716
1542.92259	0.08801
1540.99394	0.08854
1539.06529	0.08884
1537.13663	0.08899
1535.20798	0.08866
1533.27933	0.08818
1531.35067	0.08790
1529.42202	0.08748
1527.49337	0.08689
1525.56471	0.08631
1523.63606	0.08568
1521.70741	0.08483
1519.77875	0.08401
1517.85010	0.08298
1515.92145	0.08166
1513.99279	0.08024
1512.06414	0.07872
1510.13549	0.07725
1508.20683	0.07556
1506.27818	0.07361
1504.34953	0.07165
1502.42087	0.06948
1500.49222	0.06734
1498.56357	0.06543
1496.63491	0.06352
1494.70626	0.06164
1492.77761	0.05980
1490.84895	0.05799
1488.92030	0.05637
1486.99165	0.05495
1485.06299	0.05385
1483.13434	0.05310
1481.20569	0.05272
1479.27704	0.05270
1477.34838	0.05296
1475.41973	0.05353
1473.49108	0.05432
1471.56242	0.05533
1469.63377	0.05646
1467.70512	0.05757
1465.77646	0.05872
1463.84781	0.05996
1461.91916	0.06124
1459.99050	0.06261
1458.06185	0.06401
1456.13320	0.06548
1454.20454	0.06680
1452.27589	0.06759
1450.34724	0.06811
1448.41858	0.06841
1446.48993	0.06843
1444.56128	0.06816
1442.63262	0.06772
1440.70397	0.06725
1438.77532	0.06655
1436.84666	0.06555
1434.91801	0.06455
1432.98936	0.06346
1431.06070	0.06231
1429.13205	0.06132
1427.20340	0.06055
1425.27474	0.05993
1423.34609	0.05953
1421.41744	0.05929
1419.48878	0.05917
1417.56013	0.05933
1415.63148	0.05952
1413.70283	0.05961
1411.77417	0.05970
1409.84552	0.05980
1407.91687	0.05986
1405.98821	0.05985
1404.05956	0.05982
1402.13091	0.05970
1400.20225	0.05939
1398.27360	0.05900
1396.34495	0.05856
1394.41629	0.05802
1392.48764	0.05750
1390.55899	0.05697
1388.63033	0.05643
1386.70168	0.05597
1384.77303	0.05558
1382.84437	0.05509
1380.91572	0.05452
1378.98707	0.05394
1377.05841	0.05340
1375.12976	0.05279
1373.20111	0.05214
1371.27245	0.05149
1369.34380	0.05074
1367.41515	0.04990
1365.48649	0.04902
1363.55784	0.04821
1361.62919	0.04759
1359.70053	0.04719
1357.77188	0.04693
1355.84323	0.04681
1353.91457	0.04685
1351.98592	0.04710
1350.05727	0.04752
1348.12861	0.04806
1346.19996	0.04867
1344.27131	0.04933
1342.34266	0.04999
1340.41400	0.05050
1338.48535	0.05084
1336.55670	0.05108
1334.62804	0.05112
1332.69939	0.05089
1330.77074	0.05045
1328.84208	0.04992
1326.91343	0.04939
1324.98478	0.04885
1323.05612	0.04833
1321.12747	0.04789
1319.19882	0.04758
1317.27016	0.04736
1315.34151	0.04712
1313.41286	0.04686
1311.48420	0.04664
1309.55555	0.04645
1307.62690	0.04621
1305.69824	0.04588
1303.76959	0.04557
1301.84094	0.04534
1299.91228	0.04515
1297.98363	0.04496
1296.05498	0.04483
1294.12632	0.04490
1292.19767	0.04513
1290.26902	0.04543
1288.34036	0.04575
1286.41171	0.04606
1284.48306	0.04634
1282.55440	0.04663
1280.62575	0.04693
1278.69710	0.04713
1276.76845	0.04721
1274.83979	0.04719
1272.91114	0.04715
1270.98249	0.04712
1269.05383	0.04719
1267.12518	0.04744
1265.19653	0.04783
1263.26787	0.04823
1261.33922	0.04855
1259.41057	0.04888
1257.48191	0.04932
1255.55326	0.04986
1253.62461	0.05049
1251.69595	0.05121
1249.76730	0.05198
1247.83865	0.05272
1245.90999	0.05340
1243.98134	0.05413
1242.05269	0.05498
1240.12403	0.05575
1238.19538	0.05622
1236.26673	0.05644
1234.33807	0.05650
1232.40942	0.05637
1230.48077	0.05598
1228.55211	0.05538
1226.62346	0.05467
1224.69481	0.05380
1222.76615	0.05280
1220.83750	0.05174
1218.90885	0.05071
1216.98019	0.04988
1215.05154	0.04934
1213.12289	0.04905
1211.19423	0.04889
1209.26558	0.04884
1207.33693	0.04894
1205.40828	0.04918
1203.47962	0.04938
1201.55097	0.04928
1199.62232	0.04875
1197.69366	0.04822
1195.76501	0.04756
1193.83636	0.04685
1191.90770	0.04616
1189.97905	0.04547
1188.05040	0.04480
1186.12174	0.04422
1184.19309	0.04376
1182.26444	0.04340
1180.33578	0.04311
1178.40713	0.04288
1176.47848	0.04275
1174.54982	0.04274
1172.62117	0.04280
1170.69252	0.04285
1168.76386	0.04296
1166.83521	0.04317
1164.90656	0.04338
1162.97790	0.04358
1161.04925	0.04375
1159.12060	0.04382
1157.19194	0.04379
1155.26329	0.04364
1153.33464	0.04330
1151.40598	0.04289
1149.47733	0.04254
1147.54868	0.04224
1145.62002	0.04200
1143.69137	0.04186
1141.76272	0.04172
1139.83406	0.04151
1137.90541	0.04139
1135.97676	0.04149
1134.04811	0.04167
1132.11945	0.04181
1130.19080	0.04208
1128.26215	0.04243
1126.33349	0.04263
1124.40484	0.04276
1122.47619	0.04307
1120.54753	0.04359
1118.61888	0.04410
1116.69023	0.04448
1114.76157	0.04478
1112.83292	0.04517
1110.90427	0.04575
1108.97561	0.04644
1107.04696	0.04695
1105.11831	0.04730
1103.18965	0.04775
1101.26100	0.04839
1099.33235	0.04903
1097.40369	0.04955
1095.47504	0.05004
1093.54639	0.05056
1091.61773	0.05110
1089.68908	0.05178
1087.76043	0.05258
1085.83177	0.05336
1083.90312	0.05400
1081.97447	0.05456
1080.04581	0.05505
1078.11716	0.05531
1076.18851	0.05534
1074.25985	0.05535
1072.33120	0.05539
1070.40255	0.05534
1068.47390	0.05522
1066.54524	0.05516
1064.61659	0.05525
1062.68794	0.05540
1060.75928	0.05552
1058.83063	0.05554
1056.90198	0.05545
1054.97332	0.05533
1053.04467	0.05527
1051.11602	0.05527
1049.18736	0.05528
1047.25871	0.05533
1045.33006	0.05542
1043.40140	0.05553
1041.47275	0.05580
1039.54410	0.05629
1037.61544	0.05685
1035.68679	0.05737
1033.75814	0.05793
1031.82948	0.05851
1029.90083	0.05888
1027.97218	0.05899
1026.04352	0.05893
1024.11487	0.05880
1022.18622	0.05869
1020.25756	0.05864
1018.32891	0.05859
1016.40026	0.05846
1014.47160	0.05829
1012.54295	0.05805
1010.61430	0.05765
1008.68564	0.05726
1006.75699	0.05698
1004.82834	0.05658
1002.89968	0.05593
1000.97103	0.05520
999.04238	0.05451
997.11373	0.05377
995.18507	0.05304
993.25642	0.05237
991.32777	0.05168
989.39911	0.05101
987.47046	0.05040
985.54181	0.04976
983.61315	0.04903
981.68450	0.04839
979.75585	0.04792
977.82719	0.04749
975.89854	0.04700
973.96989	0.04652
972.04123	0.04617
970.11258	0.04578
968.18393	0.04520
966.25527	0.04464
964.32662	0.04436
962.39797	0.04421
960.46931	0.04402
958.54066	0.04380
956.61201	0.04356
954.68335	0.04335
952.75470	0.04310
950.82605	0.04269
948.89739	0.04225
946.96874	0.04195
945.04009	0.04173
943.11143	0.04146
941.18278	0.04107
939.25413	0.04067
937.32547	0.04036
935.39682	0.04003
933.46817	0.03959
931.53952	0.03911
929.61086	0.03867
927.68221	0.03834
925.75356	0.03809
923.82490	0.03787
921.89625	0.03756
919.96760	0.03711
918.03894	0.03675
916.11029	0.03643
914.18164	0.03584
912.25298	0.03527
910.32433	0.03517
908.39568	0.03528
906.46702	0.03522
904.53837	0.03498
902.60972	0.03462
900.68106	0.03426
898.75241	0.03410
896.82376	0.03403
894.89510	0.03391
892.96645	0.03372
891.03780	0.03344
889.10914	0.03328
887.18049	0.03338
885.25184	0.03356
883.32318	0.03382
881.39453	0.03416
879.46588	0.03441
877.53722	0.03455
875.60857	0.03474
873.67992	0.03500
871.75126	0.03516
869.82261	0.03503
867.89396	0.03473
865.96530	0.03444
864.03665	0.03413
862.10800	0.03381
860.17935	0.03353
858.25069	0.03324
856.32204	0.03293
854.39339	0.03269
852.46473	0.03258
850.53608	0.03243
848.60743	0.03207
846.67877	0.03159
844.75012	0.03123
842.82147	0.03100
840.89281	0.03073
838.96416	0.03036
837.03551	0.03002
835.10685	0.02979
833.17820	0.02968
831.24955	0.02961
829.32089	0.02955
827.39224	0.02943
825.46359	0.02919
823.53493	0.02896
821.60628	0.02889
819.67763	0.02897
817.74897	0.02900
815.82032	0.02892
813.89167	0.02896
811.96301	0.02913
810.03436	0.02921
808.10571	0.02912
806.17705	0.02898
804.24840	0.02888
802.31975	0.02887
800.39109	0.02890
798.46244	0.02895
796.53379	0.02897
794.60513	0.02893
792.67648	0.02895
790.74783	0.02916
788.81918	0.02934
786.89052	0.02932
784.96187	0.02923
783.03322	0.02923
781.10456	0.02929
779.17591	0.02929
777.24726	0.02922
775.31860	0.02917
773.38995	0.02916
771.46130	0.02918
769.53264	0.02929
767.60399	0.02958
765.67534	0.02992
763.74668	0.03005
761.81803	0.02999
759.88938	0.02997
757.96072	0.03012
756.03207	0.03032
754.10342	0.03045
752.17476	0.03058
750.24611	0.03070
748.31746	0.03064
746.38880	0.03057
744.46015	0.03066
742.53150	0.03079
740.60284	0.03091
738.67419	0.03102
736.74554	0.03107
734.81688	0.03117
732.88823	0.03139
730.95958	0.03157
729.03092	0.03173
727.10227	0.03207
725.17362	0.03253
723.24497	0.03267
721.31631	0.03271
719.38766	0.03279
717.45901	0.03299
715.53035	0.03317
713.60170	0.03324
711.67305	0.03326
709.74439	0.03341
707.81574	0.03365
705.88709	0.03383
703.95843	0.03390
702.02978	0.03391
700.10113	0.03397
698.17247	0.03407
696.24382	0.03413
694.31517	0.03417
692.38651	0.03427
690.45786	0.03444
688.52921	0.03461
686.60055	0.03461
684.67190	0.03448
682.74325	0.03444
680.81459	0.03455
678.88594	0.03470
676.95729	0.03484
675.02863	0.03499
673.09998	0.03510
671.17133	0.03513
669.24267	0.03516
667.31402	0.03522
665.38537	0.03526
663.45671	0.03529
661.52806	0.03537
659.59941	0.03542
657.67075	0.03543
655.74210	0.03546
653.81345	0.03551
651.88480	0.03553
649.95614	0.03560
648.02749	0.03573
646.09884	0.03575
644.17018	0.03561
642.24153	0.03539
640.31288	0.03527
638.38422	0.03530
636.45557	0.03532
634.52692	0.03526
632.59826	0.03529
630.66961	0.03480
628.74096	0.03247
626.81230	0.03428
624.88365	0.03738
622.95500	0.04037
621.02634	0.04193
619.09769	0.04099
617.16904	0.03962
615.24038	0.03900
613.31173	0.03871
611.38308	0.03974
609.45442	0.04231
607.52577	0.04409
605.59712	0.04408
603.66846	0.04355
601.73981	0.04325
599.81116	0.04294
597.88250	0.04255
595.95385	0.04208
594.02520	0.04153
592.09654	0.04117
590.16789	0.04112
588.23924	0.04121
586.31059	0.04133
584.38193	0.04157
582.45328	0.04190
580.52463	0.04215
578.59597	0.04235
576.66732	0.04273
574.73867	0.04348
572.81001	0.04433
570.88136	0.04487
568.95271	0.04515
567.02405	0.04543
565.09540	0.04594
563.16675	0.04671
561.23809	0.04734
559.30944	0.04750
557.38079	0.04752
555.45213	0.04754
553.52348	0.04732
551.59483	0.04694
549.66617	0.04662
547.73752	0.04632
545.80887	0.04602
543.88021	0.04572
541.95156	0.04556
540.02291	0.04564
538.09425	0.04579
536.16560	0.04580
534.23695	0.04570
532.30829	0.04553
530.37964	0.04528
528.45099	0.04506
526.52233	0.04488
524.59368	0.04462
522.66503	0.04438
520.73637	0.04417
518.80772	0.04386
516.87907	0.04339
514.95042	0.04275
513.02176	0.04206
511.09311	0.04164
509.16446	0.04152
507.23580	0.04131
505.30715	0.04080
503.37850	0.04024
501.44984	0.03985
499.52119	0.03949
497.59254	0.03894
495.66388	0.03836
493.73523	0.03798
491.80658	0.03777
489.87792	0.03760
487.94927	0.03728
486.02062	0.03671
484.09196	0.03609
482.16331	0.03566
480.23466	0.03538
478.30600	0.03512
476.37735	0.03480
474.44870	0.03454
472.52004	0.03443
470.59139	0.03433
468.66274	0.03412
466.73408	0.03387
464.80543	0.03368
462.87678	0.03356
460.94812	0.03333
459.01947	0.03295
457.09082	0.03268
455.16216	0.03254
453.23351	0.03228
451.30486	0.03188
449.37620	0.03142
447.44755	0.03101
445.51890	0.03073
443.59025	0.03050
441.66159	0.03016
439.73294	0.02981
437.80429	0.02956
435.87563	0.02950
433.94698	0.02947
432.01833	0.02928
430.08967	0.02891
428.16102	0.02853
426.23237	0.02822
424.30371	0.02800
422.37506	0.02783
420.44641	0.02764
418.51775	0.02743
416.58910	0.02715
414.66045	0.02680
412.73179	0.02643
410.80314	0.02608
408.87449	0.02576
406.94583	0.02554
405.01718	0.02555
403.08853	0.02566
401.15987	0.02561
399.23122	0.02535
