3996.16951	0.03925
3994.24086	0.03940
3992.31221	0.04009
3990.38355	0.04061
3988.45490	0.04087
3986.52625	0.04115
3984.59759	0.04092
3982.66894	0.04029
3980.74029	0.04021
3978.81163	0.04070
3976.88298	0.04077
3974.95433	0.04030
3973.02567	0.04004
3971.09702	0.04018
3969.16837	0.04033
3967.23972	0.04027
3965.31106	0.04012
3963.38241	0.04020
3961.45376	0.04049
3959.52510	0.04048
3957.59645	0.03998
3955.66780	0.03971
3953.73914	0.04043
3951.81049	0.04139
3949.88184	0.04098
3947.95318	0.03954
3946.02453	0.03875
3944.09588	0.03882
3942.16722	0.03903
3940.23857	0.03928
3938.30992	0.03936
3936.38126	0.03907
3934.45261	0.03892
3932.52396	0.03922
3930.59530	0.03965
3928.66665	0.03983
3926.73800	0.03968
3924.80934	0.03922
3922.88069	0.03856
3920.95204	0.03813
3919.02338	0.03836
3917.09473	0.03899
3915.16608	0.03940
3913.23742	0.03930
3911.30877	0.03886
3909.38012	0.03846
3907.45146	0.03844
3905.52281	0.03891
3903.59416	0.03929
3901.66550	0.03928
3899.73685	0.03910
3897.80820	0.03879
3895.87955	0.03858
3893.95089	0.03851
3892.02224	0.03805
3890.09359	0.03736
3888.16493	0.03714
3886.23628	0.03746
3884.30763	0.03779
3882.37897	0.03768
3880.45032	0.03706
3878.52167	0.03641
3876.59301	0.03651
3874.66436	0.03717
3872.73571	0.03721
3870.80705	0.03663
3868.87840	0.03651
3866.94975	0.03714
3865.02109	0.03778
3863.09244	0.03791
3861.16379	0.03761
3859.23513	0.03716
3857.30648	0.03679
3855.37783	0.03683
3853.44917	0.03720
3851.52052	0.03728
3849.59187	0.03709
3847.66321	0.03719
3845.73456	0.03765
3843.80591	0.03799
3841.87725	0.03788
3839.94860	0.03755
3838.01995	0.03738
3836.09129	0.03722
3834.16264	0.03698
3832.23399	0.03692
3830.30534	0.03689
3828.37668	0.03654
3826.44803	0.03625
3824.51938	0.03642
3822.59072	0.03676
3820.66207	0.03676
3818.73342	0.03630
3816.80476	0.03567
3814.87611	0.03550
3812.94746	0.03593
3811.01880	0.03621
3809.09015	0.03586
3807.16150	0.03532
3805.23284	0.03525
3803.30419	0.03549
3801.37554	0.03549
3799.44688	0.03533
3797.51823	0.03525
3795.58958	0.03520
3793.66092	0.03527
3791.73227	0.03538
3789.80362	0.03505
3787.87496	0.03441
3785.94631	0.03408
3784.01766	0.03446
3782.08900	0.03530
3780.16035	0.03574
3778.23170	0.03537
3776.30304	0.03477
3774.37439	0.03451
3772.44574	0.03485
3770.51708	0.03555
3768.58843	0.03569
3766.65978	0.03526
3764.73112	0.03500
3762.80247	0.03488
3760.87382	0.03471
3758.94517	0.03479
3757.01651	0.03498
3755.08786	0.03477
3753.15921	0.03434
3751.23055	0.03436
3749.30190	0.03492
3747.37325	0.03538
3745.44459	0.03514
3743.51594	0.03433
3741.58729	0.03364
3739.65863	0.03368
3737.72998	0.03425
3735.80133	0.03454
3733.87267	0.03425
3731.94402	0.03351
3730.01537	0.03322
3728.08671	0.03362
3726.15806	0.03369
3724.22941	0.03312
3722.30075	0.03258
3720.37210	0.03222
3718.44345	0.03222
3716.51479	0.03245
3714.58614	0.03245
3712.65749	0.03204
3710.72883	0.03165
3708.80018	0.03169
3706.87153	0.03172
3704.94287	0.03174
3703.01422	0.03226
3701.08557	0.03306
3699.15691	0.03363
3697.22826	0.03388
3695.29961	0.03389
3693.37095	0.03348
3691.44230	0.03274
3689.51365	0.03224
3687.58500	0.03222
3685.65634	0.03228
3683.72769	0.03221
3681.79904	0.03233
3679.87038	0.03295
3677.94173	0.03363
3676.01308	0.03359
3674.08442	0.03296
3672.15577	0.03258
3670.22712	0.03273
3668.29846	0.03309
3666.36981	0.03338
3664.44116	0.03364
3662.51250	0.03402
3660.58385	0.03438
3658.65520	0.03454
3656.72654	0.03472
3654.79789	0.03521
3652.86924	0.03569
3650.94058	0.03557
3649.01193	0.03509
3647.08328	0.03513
3645.15462	0.03584
3643.22597	0.03648
3641.29732	0.03669
3639.36866	0.03696
3637.44001	0.03723
3635.51136	0.03712
3633.58270	0.03720
3631.65405	0.03789
3629.72540	0.03893
3627.79674	0.03947
3625.86809	0.03931
3623.93944	0.03866
3622.01079	0.03813
3620.08213	0.03804
3618.15348	0.03879
3616.22483	0.04008
3614.29617	0.04112
3612.36752	0.04160
3610.43887	0.04146
3608.51021	0.04119
3606.58156	0.04145
3604.65291	0.04233
3602.72425	0.04319
3600.79560	0.04360
3598.86695	0.04393
3596.93829	0.04455
3595.00964	0.04510
3593.08099	0.04522
3591.15233	0.04527
3589.22368	0.04553
3587.29503	0.04587
3585.36637	0.04641
3583.43772	0.04721
3581.50907	0.04811
3579.58041	0.04893
3577.65176	0.04943
3575.72311	0.04968
3573.79445	0.05015
3571.86580	0.05080
3569.93715	0.05134
3568.00849	0.05197
3566.07984	0.05265
3564.15119	0.05316
3562.22253	0.05377
3560.29388	0.05450
3558.36523	0.05491
3556.43657	0.05493
3554.50792	0.05497
3552.57927	0.05533
3550.65062	0.05602
3548.72196	0.05687
3546.79331	0.05788
3544.86466	0.05900
3542.93600	0.05990
3541.00735	0.06041
3539.07870	0.06065
3537.15004	0.06087
3535.22139	0.06129
3533.29274	0.06181
3531.36408	0.06227
3529.43543	0.06287
3527.50678	0.06380
3525.57812	0.06480
3523.64947	0.06558
3521.72082	0.06625
3519.79216	0.06675
3517.86351	0.06704
3515.93486	0.06731
3514.00620	0.06759
3512.07755	0.06784
3510.14890	0.06804
3508.22024	0.06815
3506.29159	0.06865
3504.36294	0.06983
3502.43428	0.07087
3500.50563	0.07114
3498.57698	0.07126
3496.64832	0.07159
3494.71967	0.07172
3492.79102	0.07176
3490.86236	0.07222
3488.93371	0.07293
3487.00506	0.07355
3485.07641	0.07414
3483.14775	0.07472
3481.21910	0.07509
3479.29045	0.07517
3477.36179	0.07520
3475.43314	0.07544
3473.50449	0.07592
3471.57583	0.07646
3469.64718	0.07684
3467.71853	0.07710
3465.78987	0.07752
3463.86122	0.07825
3461.93257	0.07890
3460.00391	0.07913
3458.07526	0.07928
3456.14661	0.07986
3454.21795	0.08080
3452.28930	0.08146
3450.36065	0.08144
3448.43199	0.08123
3446.50334	0.08158
3444.57469	0.08257
3442.64603	0.08356
3440.71738	0.08395
3438.78873	0.08387
3436.86007	0.08395
3434.93142	0.08446
3433.00277	0.08504
3431.07411	0.08544
3429.14546	0.08586
3427.21681	0.08627
3425.28815	0.08650
3423.35950	0.08676
3421.43085	0.08738
3419.50219	0.08823
3417.57354	0.08887
3415.64489	0.08915
3413.71624	0.08932
3411.78758	0.08956
3409.85893	0.08981
3407.93028	0.09014
3406.00162	0.09058
3404.07297	0.09080
3402.14432	0.09077
3400.21566	0.09108
3398.28701	0.09185
3396.35836	0.09249
3394.42970	0.09270
3392.50105	0.09287
3390.57240	0.09322
3388.64374	0.09359
3386.71509	0.09401
3384.78644	0.09456
3382.85778	0.09515
3380.92913	0.09562
3379.00048	0.09591
3377.07182	0.09599
3375.14317	0.09603
3373.21452	0.09620
3371.28586	0.09641
3369.35721	0.09671
3367.42856	0.09728
3365.49990	0.09812
3363.57125	0.09895
3361.64260	0.09969
3359.71394	0.10056
3357.78529	0.10138
3355.85664	0.10174
3353.92798	0.10199
3351.99933	0.10237
3350.07068	0.10266
3348.14202	0.10315
3346.21337	0.10407
3344.28472	0.10502
3342.35607	0.10569
3340.42741	0.10623
3338.49876	0.10701
3336.57011	0.10794
3334.64145	0.10848
3332.71280	0.10858
3330.78415	0.10884
3328.85549	0.10939
3326.92684	0.10981
3324.99819	0.10987
3323.06953	0.10980
3321.14088	0.11007
3319.21223	0.11086
3317.28357	0.11175
3315.35492	0.11215
3313.42627	0.11209
3311.49761	0.11199
3309.56896	0.11208
3307.64031	0.11241
3305.71165	0.11306
3303.78300	0.11377
3301.85435	0.11409
3299.92569	0.11379
3297.99704	0.11318
3296.06839	0.11289
3294.13973	0.11301
3292.21108	0.11319
3290.28243	0.11345
3288.35377	0.11367
3286.42512	0.11355
3284.49647	0.11331
3282.56781	0.11338
3280.63916	0.11351
3278.71051	0.11323
3276.78186	0.11274
3274.85320	0.11245
3272.92455	0.11204
3270.99590	0.11129
3269.06724	0.11076
3267.13859	0.11066
3265.20994	0.11066
3263.28128	0.11059
3261.35263	0.11039
3259.42398	0.10987
3257.49532	0.10912
3255.56667	0.10860
3253.63802	0.10847
3251.70936	0.10850
3249.78071	0.10842
3247.85206	0.10821
3245.92340	0.10794
3243.99475	0.10764
3242.06610	0.10729
3240.13744	0.10694
3238.20879	0.10677
3236.28014	0.10669
3234.35148	0.10627
3232.42283	0.10557
3230.49418	0.10513
3228.56552	0.10509
3226.63687	0.10518
3224.70822	0.10512
3222.77956	0.10473
3220.85091	0.10402
3218.92226	0.10345
3216.99360	0.10329
3215.06495	0.10318
3213.13630	0.10298
3211.20764	0.10290
3209.27899	0.10269
3207.35034	0.10222
3205.42169	0.10182
3203.49303	0.10147
3201.56438	0.10092
3199.63573	0.10035
3197.70707	0.10017
3195.77842	0.10018
3193.84977	0.09978
3191.92111	0.09912
3189.99246	0.09884
3188.06381	0.09863
3186.13515	0.09789
3184.20650	0.09715
3182.27785	0.09687
3180.34919	0.09651
3178.42054	0.09585
3176.49189	0.09535
3174.56323	0.09502
3172.63458	0.09465
3170.70593	0.09417
3168.77727	0.09349
3166.84862	0.09283
3164.91997	0.09247
3162.99131	0.09220
3161.06266	0.09172
3159.13401	0.09108
3157.20535	0.09066
3155.27670	0.09054
3153.34805	0.09019
3151.41939	0.08944
3149.49074	0.08884
3147.56209	0.08849
3145.63343	0.08796
3143.70478	0.08731
3141.77613	0.08690
3139.84748	0.08666
3137.91882	0.08633
3135.99017	0.08604
3134.06152	0.08611
3132.13286	0.08627
3130.20421	0.08597
3128.27556	0.08512
3126.34690	0.08421
3124.41825	0.08367
3122.48960	0.08350
3120.56094	0.08340
3118.63229	0.08304
3116.70364	0.08265
3114.77498	0.08267
3112.84633	0.08300
3110.91768	0.08321
3108.98902	0.08320
3107.06037	0.08310
3105.13172	0.08287
3103.20306	0.08251
3101.27441	0.08222
3099.34576	0.08201
3097.41710	0.08189
3095.48845	0.08217
3093.55980	0.08278
3091.63114	0.08321
3089.70249	0.08336
3087.77384	0.08354
3085.84518	0.08370
3083.91653	0.08382
3081.98788	0.08401
3080.05922	0.08418
3078.13057	0.08418
3076.20192	0.08407
3074.27326	0.08393
3072.34461	0.08381
3070.41596	0.08372
3068.48731	0.08363
3066.55865	0.08343
3064.63000	0.08311
3062.70135	0.08266
3060.77269	0.08226
3058.84404	0.08209
3056.91539	0.08194
3054.98673	0.08160
3053.05808	0.08114
3051.12943	0.08065
3049.20077	0.08015
3047.27212	0.07971
3045.34347	0.07934
3043.41481	0.07893
3041.48616	0.07841
3039.55751	0.07795
3037.62885	0.07777
3035.70020	0.07766
3033.77155	0.07720
3031.84289	0.07647
3029.91424	0.07589
3027.98559	0.07551
3026.05693	0.07511
3024.12828	0.07463
3022.19963	0.07419
3020.27097	0.07396
3018.34232	0.07374
3016.41367	0.07346
3014.48501	0.07335
3012.55636	0.07345
3010.62771	0.07343
3008.69905	0.07320
3006.77040	0.07296
3004.84175	0.07270
3002.91309	0.07229
3000.98444	0.07196
2999.05579	0.07184
2997.12714	0.07172
2995.19848	0.07163
2993.26983	0.07201
2991.34118	0.07292
2989.41252	0.07368
2987.48387	0.07367
2985.55522	0.07322
2983.62656	0.07303
2981.69791	0.07321
2979.76926	0.07356
2977.84060	0.07401
2975.91195	0.07460
2973.98330	0.07513
2972.05464	0.07541
2970.12599	0.07559
2968.19734	0.07578
2966.26868	0.07603
2964.34003	0.07644
2962.41138	0.07687
2960.48272	0.07700
2958.55407	0.07693
2956.62542	0.07712
2954.69676	0.07753
2952.76811	0.07764
2950.83946	0.07746
2948.91080	0.07744
2946.98215	0.07777
2945.05350	0.07826
2943.12484	0.07858
2941.19619	0.07869
2939.26754	0.07897
2937.33888	0.07959
2935.41023	0.08029
2933.48158	0.08096
2931.55293	0.08172
2929.62427	0.08247
2927.69562	0.08292
2925.76697	0.08311
2923.83831	0.08328
2921.90966	0.08330
2919.98101	0.08292
2918.05235	0.08216
2916.12370	0.08104
2914.19505	0.07958
2912.26639	0.07794
2910.33774	0.07647
2908.40909	0.07544
2906.48043	0.07455
2904.55178	0.07345
2902.62313	0.07239
2900.69447	0.07183
2898.76582	0.07163
2896.83717	0.07131
2894.90851	0.07081
2892.97986	0.07038
2891.05121	0.07010
2889.12255	0.06994
2887.19390	0.06971
2885.26525	0.06949
2883.33659	0.06945
2881.40794	0.06949
2879.47929	0.06943
2877.55063	0.06916
2875.62198	0.06903
2873.69333	0.06926
2871.76467	0.06937
2869.83602	0.06898
2867.90737	0.06836
2865.97871	0.06777
2864.05006	0.06736
2862.12141	0.06735
2860.19276	0.06764
2858.26410	0.06785
2856.33545	0.06796
2854.40680	0.06823
2852.47814	0.06847
2850.54949	0.06819
2848.62084	0.06742
2846.69218	0.06642
2844.76353	0.06535
2842.83488	0.06442
2840.90622	0.06370
2838.97757	0.06296
2837.04892	0.06209
2835.12026	0.06128
2833.19161	0.06063
2831.26296	0.06017
2829.33430	0.06003
2827.40565	0.06012
2825.47700	0.05999
2823.54834	0.05945
2821.61969	0.05887
2819.69104	0.05848
2817.76238	0.05820
2815.83373	0.05809
2813.90508	0.05829
2811.97642	0.05853
2810.04777	0.05839
2808.11912	0.05790
2806.19046	0.05740
2804.26181	0.05704
2802.33316	0.05683
2800.40450	0.05662
2798.47585	0.05641
2796.54720	0.05630
2794.61855	0.05624
2792.68989	0.05612
2790.76124	0.05599
2788.83259	0.05595
2786.90393	0.05583
2784.97528	0.05542
2783.04663	0.05493
2781.11797	0.05475
2779.18932	0.05490
2777.26067	0.05500
2775.33201	0.05478
2773.40336	0.05445
2771.47471	0.05416
2769.54605	0.05383
2767.61740	0.05363
2765.68875	0.05363
2763.76009	0.05350
2761.83144	0.05308
2759.90279	0.05266
2757.97413	0.05258
2756.04548	0.05276
2754.11683	0.05282
2752.18817	0.05266
2750.25952	0.05246
2748.33087	0.05220
2746.40221	0.05191
2744.47356	0.05172
2742.54491	0.05150
2740.61625	0.05111
2738.68760	0.05074
2736.75895	0.05058
2734.83029	0.05060
2732.90164	0.05058
2730.97299	0.05047
2729.04433	0.05043
2727.11568	0.05042
2725.18703	0.05027
2723.25838	0.05008
2721.32972	0.04985
2719.40107	0.04960
2717.47242	0.04939
2715.54376	0.04915
2713.61511	0.04889
2711.68646	0.04875
2709.75780	0.04881
2707.82915	0.04887
2705.90050	0.04868
2703.97184	0.04831
2702.04319	0.04802
2700.11454	0.04787
2698.18588	0.04778
2696.25723	0.04776
2694.32858	0.04782
2692.39992	0.04784
2690.47127	0.04779
2688.54262	0.04762
2686.61396	0.04731
2684.68531	0.04709
2682.75666	0.04712
2680.82800	0.04716
2678.89935	0.04710
2676.97070	0.04699
2675.04204	0.04684
2673.11339	0.04679
2671.18474	0.04686
2669.25608	0.04687
2667.32743	0.04678
2665.39878	0.04669
2663.47012	0.04660
2661.54147	0.04657
2659.61282	0.04665
2657.68417	0.04664
2655.75551	0.04635
2653.82686	0.04592
2651.89821	0.04559
2649.96955	0.04534
2648.04090	0.04505
2646.11225	0.04481
2644.18359	0.04475
2642.25494	0.04487
2640.32629	0.04495
2638.39763	0.04470
2636.46898	0.04410
2634.54033	0.04356
2632.61167	0.04332
2630.68302	0.04325
2628.75437	0.04318
2626.82571	0.04301
2624.89706	0.04270
2622.96841	0.04236
2621.03975	0.04213
2619.11110	0.04197
2617.18245	0.04181
2615.25379	0.04165
2613.32514	0.04148
2611.39649	0.04133
2609.46783	0.04099
2607.53918	0.04054
2605.61053	0.04029
2603.68187	0.04021
2601.75322	0.04014
2599.82457	0.03995
2597.89591	0.03973
2595.96726	0.03947
2594.03861	0.03898
2592.10995	0.03852
2590.18130	0.03833
2588.25265	0.03808
2586.32400	0.03771
2584.39534	0.03760
2582.46669	0.03784
2580.53804	0.03819
2578.60938	0.03850
2576.68073	0.03847
2574.75208	0.03797
2572.82342	0.03759
2570.89477	0.03762
2568.96612	0.03768
2567.03746	0.03753
2565.10881	0.03710
2563.18016	0.03661
2561.25150	0.03645
2559.32285	0.03659
2557.39420	0.03672
2555.46554	0.03678
2553.53689	0.03664
2551.60824	0.03629
2549.67958	0.03616
2547.75093	0.03637
2545.82228	0.03648
2543.89362	0.03637
2541.96497	0.03614
2540.03632	0.03580
2538.10766	0.03559
2536.17901	0.03558
2534.25036	0.03544
2532.32170	0.03519
2530.39305	0.03514
2528.46440	0.03531
2526.53574	0.03555
2524.60709	0.03566
2522.67844	0.03552
2520.74978	0.03526
2518.82113	0.03522
2516.89248	0.03546
2514.96383	0.03556
2513.03517	0.03531
2511.10652	0.03488
2509.17787	0.03448
2507.24921	0.03422
2505.32056	0.03390
2503.39191	0.03359
2501.46325	0.03375
2499.53460	0.03422
2497.60595	0.03440
2495.67729	0.03430
2493.74864	0.03428
2491.81999	0.03416
2489.89133	0.03381
2487.96268	0.03354
2486.03403	0.03354
2484.10537	0.03354
2482.17672	0.03326
2480.24807	0.03297
2478.31941	0.03298
2476.39076	0.03290
2474.46211	0.03246
2472.53345	0.03212
2470.60480	0.03215
2468.67615	0.03229
2466.74749	0.03262
2464.81884	0.03321
2462.89019	0.03361
2460.96153	0.03359
2459.03288	0.03355
2457.10423	0.03361
2455.17557	0.03346
2453.24692	0.03322
2451.31827	0.03307
2449.38962	0.03292
2447.46096	0.03303
2445.53231	0.03324
2443.60366	0.03297
2441.67500	0.03245
2439.74635	0.03223
2437.81770	0.03231
2435.88904	0.03250
2433.96039	0.03274
2432.03174	0.03278
2430.10308	0.03238
2428.17443	0.03189
2426.24578	0.03193
2424.31712	0.03231
2422.38847	0.03249
2420.45982	0.03242
2418.53116	0.03232
2416.60251	0.03225
2414.67386	0.03215
2412.74520	0.03197
2410.81655	0.03182
2408.88790	0.03184
2406.95924	0.03205
2405.03059	0.03225
2403.10194	0.03222
2401.17328	0.03202
2399.24463	0.03184
2397.31598	0.03186
2395.38732	0.03189
2393.45867	0.03182
2391.53002	0.03164
2389.60136	0.03146
2387.67271	0.03139
2385.74406	0.03145
2383.81540	0.03158
2381.88675	0.03157
2379.95810	0.03147
2378.02945	0.03154
2376.10079	0.03172
2374.17214	0.03172
2372.24349	0.03170
2370.31483	0.03187
2368.38618	0.03195
2366.45753	0.03188
2364.52887	0.03190
2362.60022	0.03207
2360.67157	0.03215
2358.74291	0.03202
2356.81426	0.03193
2354.88561	0.03226
2352.95695	0.03273
2351.02830	0.03290
2349.09965	0.03279
2347.17099	0.03269
2345.24234	0.03274
2343.31369	0.03276
2341.38503	0.03262
2339.45638	0.03247
2337.52773	0.03225
2335.59907	0.03210
2333.67042	0.03207
2331.74177	0.03207
2329.81311	0.03210
2327.88446	0.03244
2325.95581	0.03318
2324.02715	0.03365
2322.09850	0.03338
2320.16985	0.03270
2318.24119	0.03203
2316.31254	0.03152
2314.38389	0.03132
2312.45524	0.03125
2310.52658	0.03105
2308.59793	0.03074
2306.66928	0.03038
2304.74062	0.02998
2302.81197	0.02968
2300.88332	0.02952
2298.95466	0.02947
2297.02601	0.02954
2295.09736	0.02963
2293.16870	0.02965
2291.24005	0.02965
2289.31140	0.02969
2287.38274	0.02963
2285.45409	0.02935
2283.52544	0.02904
2281.59678	0.02879
2279.66813	0.02848
2277.73948	0.02803
2275.81082	0.02733
2273.88217	0.02676
2271.95352	0.02689
2270.02486	0.02725
2268.09621	0.02698
2266.16756	0.02646
2264.23890	0.02621
2262.31025	0.02583
2260.38160	0.02500
2258.45294	0.02420
2256.52429	0.02413
2254.59564	0.02430
2252.66698	0.02380
2250.73833	0.02298
2248.80968	0.02266
2246.88102	0.02273
2244.95237	0.02346
2243.02372	0.02425
2241.09507	0.02413
2239.16641	0.02343
2237.23776	0.02299
2235.30911	0.02304
2233.38045	0.02328
2231.45180	0.02295
2229.52315	0.02192
2227.59449	0.02139
2225.66584	0.02186
2223.73719	0.02219
2221.80853	0.02160
2219.87988	0.02074
2217.95123	0.02049
2216.02257	0.02101
2214.09392	0.02127
2212.16527	0.02086
2210.23661	0.02127
2208.30796	0.02262
2206.37931	0.02302
2204.45065	0.02212
2202.52200	0.02107
2200.59335	0.02027
2198.66469	0.01973
2196.73604	0.01949
2194.80739	0.01908
2192.87873	0.01841
2190.95008	0.01825
2189.02143	0.01867
2187.09277	0.01886
2185.16412	0.01831
2183.23547	0.01777
2181.30681	0.01813
2179.37816	0.01890
2177.44951	0.01925
2175.52085	0.01867
2173.59220	0.01745
2171.66355	0.01705
2169.73490	0.01756
2167.80624	0.01786
2165.87759	0.01826
2163.94894	0.01835
2162.02028	0.01648
2160.09163	0.01388
2158.16298	0.01299
2156.23432	0.01355
2154.30567	0.01441
2152.37702	0.01529
2150.44836	0.01624
2148.51971	0.01721
2146.59106	0.01791
2144.66240	0.01830
2142.73375	0.01807
2140.80510	0.01682
2138.87644	0.01564
2136.94779	0.01578
2135.01914	0.01662
2133.09048	0.01732
2131.16183	0.01800
2129.23318	0.01884
2127.30452	0.01974
2125.37587	0.02055
2123.44722	0.02092
2121.51856	0.02083
2119.58991	0.02096
2117.66126	0.02154
2115.73260	0.02193
2113.80395	0.02189
2111.87530	0.02167
2109.94664	0.02128
2108.01799	0.02084
2106.08934	0.02066
2104.16069	0.02048
2102.23203	0.02021
2100.30338	0.02028
2098.37473	0.02076
2096.44607	0.02096
2094.51742	0.02058
2092.58877	0.01994
2090.66011	0.01987
2088.73146	0.02059
2086.80281	0.02125
2084.87415	0.02117
2082.94550	0.02077
2081.01685	0.02056
2079.08819	0.02045
2077.15954	0.02004
2075.23089	0.01936
2073.30223	0.01886
2071.37358	0.01856
2069.44493	0.01818
2067.51627	0.01781
2065.58762	0.01804
2063.65897	0.01865
2061.73031	0.01842
2059.80166	0.01748
2057.87301	0.01695
2055.94435	0.01650
2054.01570	0.01569
2052.08705	0.01544
2050.15839	0.01628
2048.22974	0.01730
2046.30109	0.01747
2044.37243	0.01713
2042.44378	0.01655
2040.51513	0.01507
2038.58647	0.01327
2036.65782	0.01264
2034.72917	0.01330
2032.80052	0.01428
2030.87186	0.01457
2028.94321	0.01387
2027.01456	0.01323
2025.08590	0.01395
2023.15725	0.01561
2021.22860	0.01642
2019.29994	0.01539
2017.37129	0.01338
2015.44264	0.01237
2013.51398	0.01326
2011.58533	0.01423
2009.65668	0.01366
2007.72802	0.01262
2005.79937	0.01239
2003.87072	0.01262
2001.94206	0.01297
2000.01341	0.01395
1998.08476	0.01526
1996.15610	0.01596
1994.22745	0.01583
1992.29880	0.01505
1990.37014	0.01417
1988.44149	0.01403
1986.51284	0.01463
1984.58418	0.01493
1982.65553	0.01443
1980.72688	0.01420
1978.79822	0.01509
1976.86957	0.01659
1974.94092	0.01782
1973.01226	0.01779
1971.08361	0.01637
1969.15496	0.01488
1967.22631	0.01397
1965.29765	0.01334
1963.36900	0.01313
1961.44035	0.01311
1959.51169	0.01319
1957.58304	0.01400
1955.65439	0.01547
1953.72573	0.01643
1951.79708	0.01623
1949.86843	0.01561
1947.93977	0.01531
1946.01112	0.01493
1944.08247	0.01454
1942.15381	0.01520
1940.22516	0.01676
1938.29651	0.01758
1936.36785	0.01717
1934.43920	0.01665
1932.51055	0.01653
1930.58189	0.01656
1928.65324	0.01688
1926.72459	0.01735
1924.79593	0.01745
1922.86728	0.01731
1920.93863	0.01737
1919.00997	0.01745
1917.08132	0.01721
1915.15267	0.01685
1913.22401	0.01676
1911.29536	0.01703
1909.36671	0.01744
1907.43805	0.01771
1905.50940	0.01790
1903.58075	0.01806
1901.65209	0.01791
1899.72344	0.01743
1897.79479	0.01722
1895.86614	0.01763
1893.93748	0.01817
1892.00883	0.01831
1890.08018	0.01803
1888.15152	0.01761
1886.22287	0.01746
1884.29422	0.01768
1882.36556	0.01779
1880.43691	0.01761
1878.50826	0.01755
1876.57960	0.01779
1874.65095	0.01820
1872.72230	0.01844
1870.79364	0.01833
1868.86499	0.01802
1866.93634	0.01761
1865.00768	0.01720
1863.07903	0.01702
1861.15038	0.01708
1859.22172	0.01712
1857.29307	0.01708
1855.36442	0.01715
1853.43576	0.01733
1851.50711	0.01751
1849.57846	0.01763
1847.64980	0.01773
1845.72115	0.01779
1843.79250	0.01767
1841.86384	0.01741
1839.93519	0.01733
1838.00654	0.01749
1836.07788	0.01758
1834.14923	0.01748
1832.22058	0.01745
1830.29192	0.01760
1828.36327	0.01770
1826.43462	0.01767
1824.50597	0.01749
1822.57731	0.01734
1820.64866	0.01734
1818.72001	0.01729
1816.79135	0.01710
1814.86270	0.01702
1812.93405	0.01709
1811.00539	0.01715
1809.07674	0.01718
1807.14809	0.01720
1805.21943	0.01721
1803.29078	0.01729
1801.36213	0.01739
1799.43347	0.01740
1797.50482	0.01743
1795.57617	0.01754
1793.64751	0.01759
1791.71886	0.01746
1789.79021	0.01733
1787.86155	0.01736
1785.93290	0.01735
1784.00425	0.01720
1782.07559	0.01709
1780.14694	0.01704
1778.21829	0.01696
1776.28963	0.01689
1774.36098	0.01690
1772.43233	0.01694
1770.50367	0.01688
1768.57502	0.01673
1766.64637	0.01660
1764.71771	0.01653
1762.78906	0.01652
1760.86041	0.01657
1758.93176	0.01671
1757.00310	0.01685
1755.07445	0.01688
1753.14580	0.01683
1751.21714	0.01683
1749.28849	0.01699
1747.35984	0.01722
1745.43118	0.01736
1743.50253	0.01736
1741.57388	0.01734
1739.64522	0.01748
1737.71657	0.01781
1735.78792	0.01818
1733.85926	0.01842
1731.93061	0.01848
1730.00196	0.01850
1728.07330	0.01862
1726.14465	0.01883
1724.21600	0.01917
1722.28734	0.01959
1720.35869	0.02010
1718.43004	0.02068
1716.50138	0.02125
1714.57273	0.02173
1712.64408	0.02231
1710.71542	0.02319
1708.78677	0.02436
1706.85812	0.02572
1704.92946	0.02725
1703.00081	0.02902
1701.07216	0.03102
1699.14350	0.03310
1697.21485	0.03523
1695.28620	0.03748
1693.35754	0.03975
1691.42889	0.04199
1689.50024	0.04428
1687.57159	0.04672
1685.64293	0.04936
1683.71428	0.05207
1681.78563	0.05481
1679.85697	0.05766
1677.92832	0.06068
1675.99967	0.06386
1674.07101	0.06714
1672.14236	0.07051
1670.21371	0.07403
1668.28505	0.07756
1666.35640	0.08084
1664.42775	0.08394
1662.49909	0.08700
1660.57044	0.08989
1658.64179	0.09252
1656.71313	0.09488
1654.78448	0.09692
1652.85583	0.09856
1650.92717	0.09979
1648.99852	0.10087
1647.06987	0.10195
1645.14121	0.10289
1643.21256	0.10369
1641.28391	0.10444
1639.35525	0.10507
1637.42660	0.10555
1635.49795	0.10591
1633.56929	0.10601
1631.64064	0.10572
1629.71199	0.10501
1627.78333	0.10391
1625.85468	0.10244
1623.92603	0.10049
1621.99738	0.09807
1620.06872	0.09539
1618.14007	0.09263
1616.21142	0.08975
1614.28276	0.08672
1612.35411	0.08368
1610.42546	0.08075
1608.49680	0.07793
1606.56815	0.07524
1604.63950	0.07269
1602.71084	0.07030
1600.78219	0.06814
1598.85354	0.06626
1596.92488	0.06465
1594.99623	0.06329
1593.06758	0.06214
1591.13892	0.06121
1589.21027	0.06050
1587.28162	0.06005
1585.35296	0.05989
1583.42431	0.06006
1581.49566	0.06051
1579.56700	0.06121
1577.63835	0.06209
1575.70970	0.06312
1573.78104	0.06431
1571.85239	0.06573
1569.92374	0.06734
1567.99508	0.06904
1566.06643	0.07080
1564.13778	0.07263
1562.20912	0.07454
1560.28047	0.07655
1558.35182	0.07844
1556.42316	0.08001
1554.49451	0.08134
1552.56586	0.08255
1550.63721	0.08359
1548.70855	0.08448
1546.77990	0.08523
1544.85125	0.08578
1542.92259	0.08611
1540.99394	0.08630
1539.06529	0.08629
1537.13663	0.08591
1535.20798	0.08521
1533.27933	0.08437
1531.35067	0.08351
1529.42202	0.08266
1527.49337	0.08181
1525.56471	0.08091
1523.63606	0.08000
1521.70741	0.07909
1519.77875	0.07811
1517.85010	0.07707
1515.92145	0.07600
1513.99279	0.07479
1512.06414	0.07340
1510.13549	0.07200
1508.20683	0.07070
1506.27818	0.06932
1504.34953	0.06775
1502.42087	0.06614
1500.49222	0.06463
1498.56357	0.06319
1496.63491	0.06172
1494.70626	0.06021
1492.77761	0.05883
1490.84895	0.05765
1488.92030	0.05657
1486.99165	0.05565
1485.06299	0.05509
1483.13434	0.05497
1481.20569	0.05513
1479.27704	0.05546
1477.34838	0.05596
1475.41973	0.05669
1473.49108	0.05770
1471.56242	0.05888
1469.63377	0.06002
1467.70512	0.06108
1465.77646	0.06218
1463.84781	0.06329
1461.91916	0.06443
1459.99050	0.06569
1458.06185	0.06704
1456.13320	0.06827
1454.20454	0.06920
1452.27589	0.06992
1450.34724	0.07040
1448.41858	0.07056
1446.48993	0.07045
1444.56128	0.07012
1442.63262	0.06967
1440.70397	0.06912
1438.77532	0.06844
1436.84666	0.06759
1434.91801	0.06662
1432.98936	0.06571
1431.06070	0.06494
1429.13205	0.06431
1427.20340	0.06384
1425.27474	0.06365
1423.34609	0.06372
1421.41744	0.06386
1419.48878	0.06399
1417.56013	0.06412
1415.63148	0.06426
1413.70283	0.06438
1411.77417	0.06451
1409.84552	0.06466
1407.91687	0.06474
1405.98821	0.06476
1404.05956	0.06470
1402.13091	0.06447
1400.20225	0.06398
1398.27360	0.06335
1396.34495	0.06268
1394.41629	0.06197
1392.48764	0.06123
1390.55899	0.06051
1388.63033	0.05979
1386.70168	0.05905
1384.77303	0.05827
1382.84437	0.05751
1380.91572	0.05677
1378.98707	0.05603
1377.05841	0.05527
1375.12976	0.05443
1373.20111	0.05345
1371.27245	0.05239
1369.34380	0.05141
1367.41515	0.05047
1365.48649	0.04951
1363.55784	0.04855
1361.62919	0.04766
1359.70053	0.04692
1357.77188	0.04650
1355.84323	0.04640
1353.91457	0.04649
1351.98592	0.04665
1350.05727	0.04686
1348.12861	0.04720
1346.19996	0.04765
1344.27131	0.04810
1342.34266	0.04846
1340.41400	0.04874
1338.48535	0.04897
1336.55670	0.04906
1334.62804	0.04894
1332.69939	0.04862
1330.77074	0.04813
1328.84208	0.04750
1326.91343	0.04684
1324.98478	0.04628
1323.05612	0.04589
1321.12747	0.04562
1319.19882	0.04530
1317.27016	0.04497
1315.34151	0.04475
1313.41286	0.04459
1311.48420	0.04433
1309.55555	0.04392
1307.62690	0.04352
1305.69824	0.04325
1303.76959	0.04302
1301.84094	0.04273
1299.91228	0.04238
1297.98363	0.04208
1296.05498	0.04196
1294.12632	0.04205
1292.19767	0.04230
1290.26902	0.04260
1288.34036	0.04290
1286.41171	0.04320
1284.48306	0.04350
1282.55440	0.04379
1280.62575	0.04399
1278.69710	0.04407
1276.76845	0.04406
1274.83979	0.04399
1272.91114	0.04391
1270.98249	0.04395
1269.05383	0.04407
1267.12518	0.04420
1265.19653	0.04443
1263.26787	0.04479
1261.33922	0.04516
1259.41057	0.04550
1257.48191	0.04583
1255.55326	0.04618
1253.62461	0.04661
1251.69595	0.04718
1249.76730	0.04792
1247.83865	0.04867
1245.90999	0.04932
1243.98134	0.04995
1242.05269	0.05055
1240.12403	0.05099
1238.19538	0.05121
1236.26673	0.05125
1234.33807	0.05109
1232.40942	0.05073
1230.48077	0.05019
1228.55211	0.04946
1226.62346	0.04855
1224.69481	0.04748
1222.76615	0.04632
1220.83750	0.04517
1218.90885	0.04417
1216.98019	0.04342
1215.05154	0.04293
1213.12289	0.04270
1211.19423	0.04268
1209.26558	0.04280
1207.33693	0.04300
1205.40828	0.04319
1203.47962	0.04336
1201.55097	0.04337
1199.62232	0.04293
1197.69366	0.04232
1195.76501	0.04159
1193.83636	0.04085
1191.90770	0.04014
1189.97905	0.03948
1188.05040	0.03894
1186.12174	0.03849
1184.19309	0.03813
1182.26444	0.03791
1180.33578	0.03781
1178.40713	0.03770
1176.47848	0.03761
1174.54982	0.03762
1172.62117	0.03775
1170.69252	0.03795
1168.76386	0.03815
1166.83521	0.03834
1164.90656	0.03867
1162.97790	0.03913
1161.04925	0.03947
1159.12060	0.03958
1157.19194	0.03963
1155.26329	0.03975
1153.33464	0.03979
1151.40598	0.03970
1149.47733	0.03962
1147.54868	0.03962
1145.62002	0.03966
1143.69137	0.03972
1141.76272	0.03984
1139.83406	0.03997
1137.90541	0.04015
1135.97676	0.04044
1134.04811	0.04088
1132.11945	0.04157
1130.19080	0.04258
1128.26215	0.04364
1126.33349	0.04454
1124.40484	0.04557
1122.47619	0.04687
1120.54753	0.04813
1118.61888	0.04931
1116.69023	0.05054
1114.76157	0.05171
1112.83292	0.05273
1110.90427	0.05384
1108.97561	0.05503
1107.04696	0.05612
1105.11831	0.05716
1103.18965	0.05827
1101.26100	0.05938
1099.33235	0.06043
1097.40369	0.06139
1095.47504	0.06226
1093.54639	0.06309
1091.61773	0.06399
1089.68908	0.06503
1087.76043	0.06605
1085.83177	0.06691
1083.90312	0.06766
1081.97447	0.06840
1080.04581	0.06915
1078.11716	0.06980
1076.18851	0.07041
1074.25985	0.07102
1072.33120	0.07159
1070.40255	0.07208
1068.47390	0.07264
1066.54524	0.07332
1064.61659	0.07402
1062.68794	0.07475
1060.75928	0.07553
1058.83063	0.07621
1056.90198	0.07668
1054.97332	0.07716
1053.04467	0.07784
1051.11602	0.07865
1049.18736	0.07942
1047.25871	0.08009
1045.33006	0.08083
1043.40140	0.08167
1041.47275	0.08255
1039.54410	0.08351
1037.61544	0.08463
1035.68679	0.08591
1033.75814	0.08722
1031.82948	0.08848
1029.90083	0.08960
1027.97218	0.09041
1026.04352	0.09084
1024.11487	0.09102
1022.18622	0.09127
1020.25756	0.09167
1018.32891	0.09206
1016.40026	0.09228
1014.47160	0.09219
1012.54295	0.09181
1010.61430	0.09124
1008.68564	0.09055
1006.75699	0.08976
1004.82834	0.08891
1002.89968	0.08800
1000.97103	0.08696
999.04238	0.08586
997.11373	0.08473
995.18507	0.08340
993.25642	0.08194
991.32777	0.08056
989.39911	0.07921
987.47046	0.07778
985.54181	0.07632
983.61315	0.07489
981.68450	0.07352
979.75585	0.07222
977.82719	0.07100
975.89854	0.06977
973.96989	0.06853
972.04123	0.06736
970.11258	0.06632
968.18393	0.06535
966.25527	0.06449
964.32662	0.06387
962.39797	0.06355
960.46931	0.06335
958.54066	0.06311
956.61201	0.06271
954.68335	0.06205
952.75470	0.06118
950.82605	0.06025
948.89739	0.05940
946.96874	0.05864
945.04009	0.05792
943.11143	0.05721
941.18278	0.05642
939.25413	0.05548
937.32547	0.05456
935.39682	0.05372
933.46817	0.05306
931.53952	0.05259
929.61086	0.05202
927.68221	0.05122
925.75356	0.05044
923.82490	0.04987
921.89625	0.04939
919.96760	0.04889
918.03894	0.04834
916.11029	0.04782
914.18164	0.04732
912.25298	0.04671
910.32433	0.04602
908.39568	0.04560
906.46702	0.04560
904.53837	0.04565
902.60972	0.04533
900.68106	0.04495
898.75241	0.04486
896.82376	0.04482
894.89510	0.04461
892.96645	0.04423
891.03780	0.04385
889.10914	0.04361
887.18049	0.04354
885.25184	0.04368
883.32318	0.04407
881.39453	0.04456
879.46588	0.04510
877.53722	0.04571
875.60857	0.04635
873.67992	0.04691
871.75126	0.04717
869.82261	0.04708
867.89396	0.04684
865.96530	0.04650
864.03665	0.04601
862.10800	0.04539
860.17935	0.04470
858.25069	0.04402
856.32204	0.04360
854.39339	0.04343
852.46473	0.04322
850.53608	0.04277
848.60743	0.04221
846.67877	0.04176
844.75012	0.04150
842.82147	0.04126
840.89281	0.04087
838.96416	0.04034
837.03551	0.03981
835.10685	0.03954
833.17820	0.03946
831.24955	0.03925
829.32089	0.03888
827.39224	0.03865
825.46359	0.03862
823.53493	0.03853
821.60628	0.03836
819.67763	0.03832
817.74897	0.03827
815.82032	0.03809
813.89167	0.03794
811.96301	0.03791
810.03436	0.03782
808.10571	0.03757
806.17705	0.03739
804.24840	0.03743
802.31975	0.03760
800.39109	0.03774
798.46244	0.03770
796.53379	0.03745
794.60513	0.03722
792.67648	0.03716
790.74783	0.03722
788.81918	0.03731
786.89052	0.03740
784.96187	0.03749
783.03322	0.03758
781.10456	0.03765
779.17591	0.03768
777.24726	0.03767
775.31860	0.03762
773.38995	0.03750
771.46130	0.03729
769.53264	0.03706
767.60399	0.03690
765.67534	0.03692
763.74668	0.03712
761.81803	0.03736
759.88938	0.03760
757.96072	0.03791
756.03207	0.03816
754.10342	0.03811
752.17476	0.03785
750.24611	0.03777
748.31746	0.03793
746.38880	0.03816
744.46015	0.03834
742.53150	0.03842
740.60284	0.03830
738.67419	0.03816
736.74554	0.03837
734.81688	0.03882
732.88823	0.03913
730.95958	0.03939
729.03092	0.03970
727.10227	0.03983
725.17362	0.03978
723.24497	0.03967
721.31631	0.03986
719.38766	0.04009
717.45901	0.04031
715.53035	0.04045
713.60170	0.04042
711.67305	0.04039
709.74439	0.04050
707.81574	0.04066
705.88709	0.04078
703.95843	0.04097
702.02978	0.04118
700.10113	0.04128
698.17247	0.04132
696.24382	0.04141
694.31517	0.04151
692.38651	0.04145
690.45786	0.04129
688.52921	0.04121
686.60055	0.04130
684.67190	0.04148
682.74325	0.04161
680.81459	0.04162
678.88594	0.04157
676.95729	0.04159
675.02863	0.04173
673.09998	0.04181
671.17133	0.04185
669.24267	0.04200
667.31402	0.04214
665.38537	0.04205
663.45671	0.04184
661.52806	0.04177
659.59941	0.04178
657.67075	0.04179
655.74210	0.04177
653.81345	0.04176
651.88480	0.04193
649.95614	0.04217
648.02749	0.04179
646.09884	0.04093
644.17018	0.04055
642.24153	0.04081
640.31288	0.04115
638.38422	0.04134
636.45557	0.04141
634.52692	0.04138
632.59826	0.04136
630.66961	0.04096
628.74096	0.03930
626.81230	0.04110
624.88365	0.04387
622.95500	0.04642
621.02634	0.04867
619.09769	0.05018
617.16904	0.04940
615.24038	0.04654
613.31173	0.04643
611.38308	0.05127
609.45442	0.05477
607.52577	0.05464
605.59712	0.05577
603.66846	0.05803
601.73981	0.05852
599.81116	0.05773
597.88250	0.05681
595.95385	0.05581
594.02520	0.05492
592.09654	0.05448
590.16789	0.05439
588.23924	0.05451
586.31059	0.05491
584.38193	0.05562
582.45328	0.05640
580.52463	0.05707
578.59597	0.05767
576.66732	0.05823
574.73867	0.05872
572.81001	0.05928
570.88136	0.06033
568.95271	0.06194
567.02405	0.06377
565.09540	0.06561
563.16675	0.06732
561.23809	0.06869
559.30944	0.06962
557.38079	0.06994
555.45213	0.06948
553.52348	0.06848
551.59483	0.06728
549.66617	0.06619
547.73752	0.06545
545.80887	0.06495
543.88021	0.06426
541.95156	0.06324
540.02291	0.06218
538.09425	0.06159
536.16560	0.06155
534.23695	0.06164
532.30829	0.06154
530.37964	0.06132
528.45099	0.06106
526.52233	0.06053
524.59368	0.05980
522.66503	0.05922
520.73637	0.05863
518.80772	0.05761
516.87907	0.05638
514.95042	0.05537
513.02176	0.05472
511.09311	0.05447
509.16446	0.05432
507.23580	0.05395
505.30715	0.05320
503.37850	0.05193
501.44984	0.05037
499.52119	0.04935
497.59254	0.04917
495.66388	0.04924
493.73523	0.04895
491.80658	0.04828
489.87792	0.04758
487.94927	0.04717
486.02062	0.04690
484.09196	0.04643
482.16331	0.04582
480.23466	0.04543
478.30600	0.04522
476.37735	0.04485
474.44870	0.04432
472.52004	0.04400
470.59139	0.04400
468.66274	0.04403
466.73408	0.04401
464.80543	0.04395
462.87678	0.04366
460.94812	0.04308
459.01947	0.04241
457.09082	0.04187
455.16216	0.04152
453.23351	0.04116
451.30486	0.04065
449.37620	0.04012
447.44755	0.03976
445.51890	0.03945
443.59025	0.03895
441.66159	0.03845
439.73294	0.03825
437.80429	0.03814
435.87563	0.03787
433.94698	0.03749
432.01833	0.03712
430.08967	0.03670
428.16102	0.03624
426.23237	0.03578
424.30371	0.03532
422.37506	0.03485
420.44641	0.03441
418.51775	0.03402
416.58910	0.03369
414.66045	0.03336
412.73179	0.03302
410.80314	0.03270
408.87449	0.03243
406.94583	0.03218
405.01718	0.03187
403.08853	0.03140
401.15987	0.03086
399.23122	0.03039
