3996.16951	0.03694
3994.24086	0.03781
3992.31221	0.03842
3990.38355	0.03871
3988.45490	0.03895
3986.52625	0.03927
3984.59759	0.03908
3982.66894	0.03827
3980.74029	0.03784
3978.81163	0.03823
3976.88298	0.03857
3974.95433	0.03817
3973.02567	0.03755
3971.09702	0.03730
3969.16837	0.03711
3967.23972	0.03682
3965.31106	0.03680
3963.38241	0.03711
3961.45376	0.03747
3959.52510	0.03755
3957.59645	0.03711
3955.66780	0.03650
3953.73914	0.03620
3951.81049	0.03618
3949.88184	0.03624
3947.95318	0.03648
3946.02453	0.03686
3944.09588	0.03708
3942.16722	0.03710
3940.23857	0.03703
3938.30992	0.03675
3936.38126	0.03628
3934.45261	0.03573
3932.52396	0.03552
3930.59530	0.03603
3928.66665	0.03667
3926.73800	0.03657
3924.80934	0.03594
3922.88069	0.03563
3920.95204	0.03564
3919.02338	0.03559
3917.09473	0.03573
3915.16608	0.03624
3913.23742	0.03669
3911.30877	0.03693
3909.38012	0.03710
3907.45146	0.03739
3905.52281	0.03765
3903.59416	0.03738
3901.66550	0.03645
3899.73685	0.03552
3897.80820	0.03545
3895.87955	0.03625
3893.95089	0.03669
3892.02224	0.03580
3890.09359	0.03480
3888.16493	0.03454
3886.23628	0.03464
3884.30763	0.03491
3882.37897	0.03466
3880.45032	0.03405
3878.52167	0.03388
3876.59301	0.03408
3874.66436	0.03440
3872.73571	0.03454
3870.80705	0.03424
3868.87840	0.03432
3866.94975	0.03463
3865.02109	0.03476
3863.09244	0.03511
3861.16379	0.03515
3859.23513	0.03485
3857.30648	0.03466
3855.37783	0.03424
3853.44917	0.03408
3851.52052	0.03468
3849.59187	0.03507
3847.66321	0.03499
3845.73456	0.03503
3843.80591	0.03538
3841.87725	0.03537
3839.94860	0.03485
3838.01995	0.03477
3836.09129	0.03528
3834.16264	0.03507
3832.23399	0.03428
3830.30534	0.03382
3828.37668	0.03359
3826.44803	0.03349
3824.51938	0.03373
3822.59072	0.03387
3820.66207	0.03399
3818.73342	0.03393
3816.80476	0.03324
3814.87611	0.03317
3812.94746	0.03370
3811.01880	0.03419
3809.09015	0.03446
3807.16150	0.03415
3805.23284	0.03400
3803.30419	0.03391
3801.37554	0.03366
3799.44688	0.03369
3797.51823	0.03334
3795.58958	0.03281
3793.66092	0.03284
3791.73227	0.03324
3789.80362	0.03332
3787.87496	0.03283
3785.94631	0.03234
3784.01766	0.03262
3782.08900	0.03348
3780.16035	0.03379
3778.23170	0.03344
3776.30304	0.03313
3774.37439	0.03287
3772.44574	0.03246
3770.51708	0.03224
3768.58843	0.03256
3766.65978	0.03282
3764.73112	0.03288
3762.80247	0.03272
3760.87382	0.03210
3758.94517	0.03170
3757.01651	0.03185
3755.08786	0.03188
3753.15921	0.03141
3751.23055	0.03165
3749.30190	0.03304
3747.37325	0.03418
3745.44459	0.03368
3743.51594	0.03296
3741.58729	0.03257
3739.65863	0.03215
3737.72998	0.03193
3735.80133	0.03132
3733.87267	0.03156
3731.94402	0.03158
3730.01537	0.03108
3728.08671	0.03081
3726.15806	0.03029
3724.22941	0.03028
3722.30075	0.03118
3720.37210	0.03095
3718.44345	0.03106
3716.51479	0.03149
3714.58614	0.03155
3712.65749	0.03111
3710.72883	0.03040
3708.80018	0.02951
3706.87153	0.02854
3704.94287	0.02871
3703.01422	0.03001
3701.08557	0.03126
3699.15691	0.03143
3697.22826	0.03083
3695.29961	0.03014
3693.37095	0.02974
3691.44230	0.02967
3689.51365	0.02964
3687.58500	0.02981
3685.65634	0.03037
3683.72769	0.03068
3681.79904	0.03056
3679.87038	0.03076
3677.94173	0.03158
3676.01308	0.03192
3674.08442	0.03175
3672.15577	0.03116
3670.22712	0.03068
3668.29846	0.03076
3666.36981	0.03063
3664.44116	0.03044
3662.51250	0.03082
3660.58385	0.03154
3658.65520	0.03194
3656.72654	0.03200
3654.79789	0.03253
3652.86924	0.03331
3650.94058	0.03356
3649.01193	0.03351
3647.08328	0.03361
3645.15462	0.03376
3643.22597	0.03367
3641.29732	0.03345
3639.36866	0.03367
3637.44001	0.03401
3635.51136	0.03407
3633.58270	0.03481
3631.65405	0.03535
3629.72540	0.03582
3627.79674	0.03605
3625.86809	0.03613
3623.93944	0.03489
3622.01079	0.03470
3620.08213	0.03445
3618.15348	0.03487
3616.22483	0.03654
3614.29617	0.03755
3612.36752	0.03789
3610.43887	0.03817
3608.51021	0.03821
3606.58156	0.03770
3604.65291	0.03761
3602.72425	0.03832
3600.79560	0.03912
3598.86695	0.03971
3596.93829	0.04060
3595.00964	0.04162
3593.08099	0.04220
3591.15233	0.04249
3589.22368	0.04223
3587.29503	0.04178
3585.36637	0.04177
3583.43772	0.04235
3581.50907	0.04339
3579.58041	0.04452
3577.65176	0.04525
3575.72311	0.04548
3573.79445	0.04579
3571.86580	0.04650
3569.93715	0.04715
3568.00849	0.04748
3566.07984	0.04774
3564.15119	0.04800
3562.22253	0.04855
3560.29388	0.04953
3558.36523	0.05035
3556.43657	0.05060
3554.50792	0.05058
3552.57927	0.05066
3550.65062	0.05097
3548.72196	0.05142
3546.79331	0.05212
3544.86466	0.05324
3542.93600	0.05438
3541.00735	0.05507
3539.07870	0.05548
3537.15004	0.05576
3535.22139	0.05598
3533.29274	0.05653
3531.36408	0.05725
3529.43543	0.05762
3527.50678	0.05791
3525.57812	0.05858
3523.64947	0.05965
3521.72082	0.06089
3519.79216	0.06181
3517.86351	0.06205
3515.93486	0.06188
3514.00620	0.06193
3512.07755	0.06238
3510.14890	0.06278
3508.22024	0.06284
3506.29159	0.06294
3504.36294	0.06359
3502.43428	0.06459
3500.50563	0.06512
3498.57698	0.06511
3496.64832	0.06508
3494.71967	0.06528
3492.79102	0.06572
3490.86236	0.06626
3488.93371	0.06658
3487.00506	0.06664
3485.07641	0.06688
3483.14775	0.06748
3481.21910	0.06799
3479.29045	0.06803
3477.36179	0.06801
3475.43314	0.06845
3473.50449	0.06924
3471.57583	0.07010
3469.64718	0.07088
3467.71853	0.07127
3465.78987	0.07134
3463.86122	0.07149
3461.93257	0.07170
3460.00391	0.07179
3458.07526	0.07194
3456.14661	0.07250
3454.21795	0.07337
3452.28930	0.07404
3450.36065	0.07419
3448.43199	0.07416
3446.50334	0.07447
3444.57469	0.07512
3442.64603	0.07572
3440.71738	0.07603
3438.78873	0.07619
3436.86007	0.07648
3434.93142	0.07706
3433.00277	0.07776
3431.07411	0.07821
3429.14546	0.07843
3427.21681	0.07877
3425.28815	0.07922
3423.35950	0.07949
3421.43085	0.07969
3419.50219	0.08018
3417.57354	0.08073
3415.64489	0.08097
3413.71624	0.08110
3411.78758	0.08153
3409.85893	0.08214
3407.93028	0.08240
3406.00162	0.08231
3404.07297	0.08231
3402.14432	0.08270
3400.21566	0.08324
3398.28701	0.08356
3396.35836	0.08379
3394.42970	0.08418
3392.50105	0.08478
3390.57240	0.08535
3388.64374	0.08532
3386.71509	0.08491
3384.78644	0.08517
3382.85778	0.08616
3380.92913	0.08679
3379.00048	0.08675
3377.07182	0.08682
3375.14317	0.08736
3373.21452	0.08784
3371.28586	0.08801
3369.35721	0.08836
3367.42856	0.08920
3365.49990	0.09014
3363.57125	0.09076
3361.64260	0.09119
3359.71394	0.09186
3357.78529	0.09276
3355.85664	0.09349
3353.92798	0.09393
3351.99933	0.09431
3350.07068	0.09461
3348.14202	0.09486
3346.21337	0.09556
3344.28472	0.09668
3342.35607	0.09761
3340.42741	0.09821
3338.49876	0.09877
3336.57011	0.09920
3334.64145	0.09939
3332.71280	0.09967
3330.78415	0.10034
3328.85549	0.10120
3326.92684	0.10187
3324.99819	0.10212
3323.06953	0.10207
3321.14088	0.10214
3319.21223	0.10264
3317.28357	0.10339
3315.35492	0.10384
3313.42627	0.10378
3311.49761	0.10376
3309.56896	0.10402
3307.64031	0.10437
3305.71165	0.10483
3303.78300	0.10549
3301.85435	0.10602
3299.92569	0.10600
3297.99704	0.10559
3296.06839	0.10531
3294.13973	0.10533
3292.21108	0.10543
3290.28243	0.10546
3288.35377	0.10538
3286.42512	0.10521
3284.49647	0.10513
3282.56781	0.10521
3280.63916	0.10516
3278.71051	0.10485
3276.78186	0.10436
3274.85320	0.10391
3272.92455	0.10356
3270.99590	0.10299
3269.06724	0.10227
3267.13859	0.10197
3265.20994	0.10210
3263.28128	0.10210
3261.35263	0.10184
3259.42398	0.10153
3257.49532	0.10105
3255.56667	0.10031
3253.63802	0.09985
3251.70936	0.09989
3249.78071	0.09994
3247.85206	0.09969
3245.92340	0.09932
3243.99475	0.09900
3242.06610	0.09879
3240.13744	0.09864
3238.20879	0.09825
3236.28014	0.09759
3234.35148	0.09717
3232.42283	0.09717
3230.49418	0.09732
3228.56552	0.09746
3226.63687	0.09736
3224.70822	0.09692
3222.77956	0.09636
3220.85091	0.09572
3218.92226	0.09500
3216.99360	0.09439
3215.06495	0.09410
3213.13630	0.09413
3211.20764	0.09432
3209.27899	0.09433
3207.35034	0.09400
3205.42169	0.09350
3203.49303	0.09294
3201.56438	0.09255
3199.63573	0.09237
3197.70707	0.09216
3195.77842	0.09183
3193.84977	0.09132
3191.92111	0.09052
3189.99246	0.08984
3188.06381	0.08961
3186.13515	0.08949
3184.20650	0.08911
3182.27785	0.08846
3180.34919	0.08778
3178.42054	0.08727
3176.49189	0.08674
3174.56323	0.08603
3172.63458	0.08546
3170.70593	0.08527
3168.77727	0.08515
3166.84862	0.08482
3164.91997	0.08437
3162.99131	0.08379
3161.06266	0.08297
3159.13401	0.08218
3157.20535	0.08178
3155.27670	0.08161
3153.34805	0.08130
3151.41939	0.08075
3149.49074	0.08010
3147.56209	0.07937
3145.63343	0.07870
3143.70478	0.07841
3141.77613	0.07846
3139.84748	0.07842
3137.91882	0.07816
3135.99017	0.07788
3134.06152	0.07762
3132.13286	0.07731
3130.20421	0.07689
3128.27556	0.07632
3126.34690	0.07566
3124.41825	0.07519
3122.48960	0.07503
3120.56094	0.07500
3118.63229	0.07484
3116.70364	0.07465
3114.77498	0.07455
3112.84633	0.07445
3110.91768	0.07430
3108.98902	0.07418
3107.06037	0.07408
3105.13172	0.07394
3103.20306	0.07384
3101.27441	0.07395
3099.34576	0.07410
3097.41710	0.07406
3095.48845	0.07401
3093.55980	0.07419
3091.63114	0.07440
3089.70249	0.07453
3087.77384	0.07479
3085.84518	0.07510
3083.91653	0.07535
3081.98788	0.07568
3080.05922	0.07597
3078.13057	0.07593
3076.20192	0.07570
3074.27326	0.07562
3072.34461	0.07565
3070.41596	0.07558
3068.48731	0.07547
3066.55865	0.07532
3064.63000	0.07503
3062.70135	0.07467
3060.77269	0.07439
3058.84404	0.07419
3056.91539	0.07389
3054.98673	0.07337
3053.05808	0.07283
3051.12943	0.07259
3049.20077	0.07255
3047.27212	0.07233
3045.34347	0.07193
3043.41481	0.07150
3041.48616	0.07099
3039.55751	0.07038
3037.62885	0.06982
3035.70020	0.06933
3033.77155	0.06881
3031.84289	0.06847
3029.91424	0.06842
3027.98559	0.06818
3026.05693	0.06745
3024.12828	0.06671
3022.19963	0.06636
3020.27097	0.06630
3018.34232	0.06614
3016.41367	0.06577
3014.48501	0.06558
3012.55636	0.06578
3010.62771	0.06596
3008.69905	0.06554
3006.77040	0.06477
3004.84175	0.06430
3002.91309	0.06421
3000.98444	0.06432
2999.05579	0.06448
2997.12714	0.06445
2995.19848	0.06413
2993.26983	0.06408
2991.34118	0.06468
2989.41252	0.06543
2987.48387	0.06563
2985.55522	0.06536
2983.62656	0.06539
2981.69791	0.06601
2979.76926	0.06665
2977.84060	0.06699
2975.91195	0.06728
2973.98330	0.06772
2972.05464	0.06815
2970.12599	0.06844
2968.19734	0.06875
2966.26868	0.06923
2964.34003	0.06971
2962.41138	0.06989
2960.48272	0.06982
2958.55407	0.06985
2956.62542	0.07012
2954.69676	0.07032
2952.76811	0.07026
2950.83946	0.07001
2948.91080	0.06969
2946.98215	0.06968
2945.05350	0.07015
2943.12484	0.07073
2941.19619	0.07115
2939.26754	0.07150
2937.33888	0.07196
2935.41023	0.07258
2933.48158	0.07326
2931.55293	0.07393
2929.62427	0.07439
2927.69562	0.07449
2925.76697	0.07446
2923.83831	0.07465
2921.90966	0.07498
2919.98101	0.07507
2918.05235	0.07463
2916.12370	0.07364
2914.19505	0.07235
2912.26639	0.07092
2910.33774	0.06959
2908.40909	0.06864
2906.48043	0.06779
2904.55178	0.06668
2902.62313	0.06566
2900.69447	0.06515
2898.76582	0.06483
2896.83717	0.06434
2894.90851	0.06386
2892.97986	0.06353
2891.05121	0.06331
2889.12255	0.06312
2887.19390	0.06292
2885.26525	0.06281
2883.33659	0.06284
2881.40794	0.06283
2879.47929	0.06262
2877.55063	0.06223
2875.62198	0.06208
2873.69333	0.06230
2871.76467	0.06235
2869.83602	0.06198
2867.90737	0.06141
2865.97871	0.06093
2864.05006	0.06080
2862.12141	0.06099
2860.19276	0.06121
2858.26410	0.06126
2856.33545	0.06129
2854.40680	0.06153
2852.47814	0.06181
2850.54949	0.06167
2848.62084	0.06099
2846.69218	0.05993
2844.76353	0.05873
2842.83488	0.05771
2840.90622	0.05710
2838.97757	0.05657
2837.04892	0.05571
2835.12026	0.05466
2833.19161	0.05389
2831.26296	0.05351
2829.33430	0.05334
2827.40565	0.05335
2825.47700	0.05348
2823.54834	0.05344
2821.61969	0.05310
2819.69104	0.05265
2817.76238	0.05232
2815.83373	0.05218
2813.90508	0.05223
2811.97642	0.05230
2810.04777	0.05224
2808.11912	0.05207
2806.19046	0.05187
2804.26181	0.05159
2802.33316	0.05128
2800.40450	0.05105
2798.47585	0.05082
2796.54720	0.05052
2794.61855	0.05035
2792.68989	0.05030
2790.76124	0.05016
2788.83259	0.04998
2786.90393	0.04986
2784.97528	0.04966
2783.04663	0.04940
2781.11797	0.04926
2779.18932	0.04925
2777.26067	0.04917
2775.33201	0.04887
2773.40336	0.04846
2771.47471	0.04820
2769.54605	0.04812
2767.61740	0.04813
2765.68875	0.04819
2763.76009	0.04811
2761.83144	0.04766
2759.90279	0.04710
2757.97413	0.04708
2756.04548	0.04747
2754.11683	0.04751
2752.18817	0.04710
2750.25952	0.04674
2748.33087	0.04662
2746.40221	0.04659
2744.47356	0.04655
2742.54491	0.04654
2740.61625	0.04639
2738.68760	0.04599
2736.75895	0.04564
2734.83029	0.04557
2732.90164	0.04559
2730.97299	0.04550
2729.04433	0.04536
2727.11568	0.04525
2725.18703	0.04518
2723.25838	0.04513
2721.32972	0.04504
2719.40107	0.04486
2717.47242	0.04442
2715.54376	0.04399
2713.61511	0.04388
2711.68646	0.04392
2709.75780	0.04383
2707.82915	0.04360
2705.90050	0.04336
2703.97184	0.04312
2702.04319	0.04295
2700.11454	0.04296
2698.18588	0.04308
2696.25723	0.04309
2694.32858	0.04291
2692.39992	0.04270
2690.47127	0.04267
2688.54262	0.04269
2686.61396	0.04249
2684.68531	0.04224
2682.75666	0.04221
2680.82800	0.04226
2678.89935	0.04217
2676.97070	0.04193
2675.04204	0.04177
2673.11339	0.04189
2671.18474	0.04202
2669.25608	0.04193
2667.32743	0.04172
2665.39878	0.04154
2663.47012	0.04159
2661.54147	0.04185
2659.61282	0.04197
2657.68417	0.04178
2655.75551	0.04148
2653.82686	0.04128
2651.89821	0.04111
2649.96955	0.04081
2648.04090	0.04047
2646.11225	0.04028
2644.18359	0.04025
2642.25494	0.04024
2640.32629	0.04011
2638.39763	0.03978
2636.46898	0.03936
2634.54033	0.03913
2632.61167	0.03903
2630.68302	0.03881
2628.75437	0.03849
2626.82571	0.03829
2624.89706	0.03822
2622.96841	0.03801
2621.03975	0.03760
2619.11110	0.03726
2617.18245	0.03713
2615.25379	0.03708
2613.32514	0.03701
2611.39649	0.03697
2609.46783	0.03679
2607.53918	0.03645
2605.61053	0.03627
2603.68187	0.03634
2601.75322	0.03647
2599.82457	0.03651
2597.89591	0.03635
2595.96726	0.03591
2594.03861	0.03534
2592.10995	0.03491
2590.18130	0.03455
2588.25265	0.03413
2586.32400	0.03385
2584.39534	0.03398
2582.46669	0.03446
2580.53804	0.03485
2578.60938	0.03488
2576.68073	0.03462
2574.75208	0.03430
2572.82342	0.03422
2570.89477	0.03428
2568.96612	0.03437
2567.03746	0.03451
2565.10881	0.03435
2563.18016	0.03377
2561.25150	0.03333
2559.32285	0.03322
2557.39420	0.03317
2555.46554	0.03302
2553.53689	0.03270
2551.60824	0.03236
2549.67958	0.03242
2547.75093	0.03291
2545.82228	0.03322
2543.89362	0.03300
2541.96497	0.03238
2540.03632	0.03152
2538.10766	0.03085
2536.17901	0.03089
2534.25036	0.03153
2532.32170	0.03215
2530.39305	0.03238
2528.46440	0.03234
2526.53574	0.03232
2524.60709	0.03229
2522.67844	0.03217
2520.74978	0.03204
2518.82113	0.03196
2516.89248	0.03185
2514.96383	0.03160
2513.03517	0.03139
2511.10652	0.03128
2509.17787	0.03105
2507.24921	0.03084
2505.32056	0.03080
2503.39191	0.03074
2501.46325	0.03085
2499.53460	0.03127
2497.60595	0.03154
2495.67729	0.03125
2493.74864	0.03069
2491.81999	0.03038
2489.89133	0.03035
2487.96268	0.03022
2486.03403	0.02999
2484.10537	0.02994
2482.17672	0.02994
2480.24807	0.02997
2478.31941	0.02997
2476.39076	0.02969
2474.46211	0.02939
2472.53345	0.02957
2470.60480	0.03000
2468.67615	0.03011
2466.74749	0.02995
2464.81884	0.02985
2462.89019	0.02977
2460.96153	0.02978
2459.03288	0.03007
2457.10423	0.03038
2455.17557	0.03032
2453.24692	0.03002
2451.31827	0.02973
2449.38962	0.02948
2447.46096	0.02943
2445.53231	0.02954
2443.60366	0.02952
2441.67500	0.02935
2439.74635	0.02925
2437.81770	0.02912
2435.88904	0.02902
2433.96039	0.02929
2432.03174	0.02958
2430.10308	0.02938
2428.17443	0.02905
2426.24578	0.02912
2424.31712	0.02942
2422.38847	0.02956
2420.45982	0.02946
2418.53116	0.02915
2416.60251	0.02884
2414.67386	0.02871
2412.74520	0.02863
2410.81655	0.02852
2408.88790	0.02846
2406.95924	0.02852
2405.03059	0.02880
2403.10194	0.02910
2401.17328	0.02907
2399.24463	0.02884
2397.31598	0.02877
2395.38732	0.02888
2393.45867	0.02904
2391.53002	0.02908
2389.60136	0.02897
2387.67271	0.02887
2385.74406	0.02888
2383.81540	0.02895
2381.88675	0.02830
2379.95810	0.02734
2378.02945	0.02667
2376.10079	0.02965
2374.17214	0.03481
2372.24349	0.03405
2370.31483	0.01877
2368.38618	0.03523
2366.45753	0.03355
2364.52887	0.03643
2362.60022	0.02351
2360.67157	0.03866
2358.74291	0.01114
2356.81426	0.03811
2354.88561	0.03044
2352.95695	0.01951
2351.02830	0.03067
2349.09965	0.03093
2347.17099	0.03304
2345.24234	0.03844
2343.31369	0.03808
2341.38503	0.01766
2339.45638	0.00398
2337.52773	0.01518
2335.59907	0.03527
2333.67042	0.04252
2331.74177	0.04164
2329.81311	0.03963
2327.88446	0.03875
2325.95581	0.03735
2324.02715	0.03713
2322.09850	0.03554
2320.16985	0.03413
2318.24119	0.03188
2316.31254	0.03041
2314.38389	0.02943
2312.45524	0.02910
2310.52658	0.02908
2308.59793	0.02845
2306.66928	0.02663
2304.74062	0.02502
2302.81197	0.02591
2300.88332	0.02675
2298.95466	0.02748
2297.02601	0.02726
2295.09736	0.02740
2293.16870	0.02712
2291.24005	0.02722
2289.31140	0.02718
2287.38274	0.02704
2285.45409	0.02682
2283.52544	0.02627
2281.59678	0.02568
2279.66813	0.02506
2277.73948	0.02437
2275.81082	0.02368
2273.88217	0.02337
2271.95352	0.02400
2270.02486	0.02478
2268.09621	0.02477
2266.16756	0.02416
2264.23890	0.02349
2262.31025	0.02300
2260.38160	0.02278
2258.45294	0.02265
2256.52429	0.02243
2254.59564	0.02193
2252.66698	0.02145
2250.73833	0.02151
2248.80968	0.02165
2246.88102	0.02140
2244.95237	0.02157
2243.02372	0.02201
2241.09507	0.02189
2239.16641	0.02159
2237.23776	0.02167
2235.30911	0.02174
2233.38045	0.02144
2231.45180	0.02073
2229.52315	0.02027
2227.59449	0.02080
2225.66584	0.02148
2223.73719	0.02119
2221.80853	0.01995
2219.87988	0.01858
2217.95123	0.01817
2216.02257	0.01904
2214.09392	0.01990
2212.16527	0.01997
2210.23661	0.01999
2208.30796	0.01984
2206.37931	0.01878
2204.45065	0.01762
2202.52200	0.01750
2200.59335	0.01805
2198.66469	0.01836
2196.73604	0.01838
2194.80739	0.01830
2192.87873	0.01805
2190.95008	0.01777
2189.02143	0.01782
2187.09277	0.01819
2185.16412	0.01800
2183.23547	0.01686
2181.30681	0.01606
2179.37816	0.01621
2177.44951	0.01601
2175.52085	0.01497
2173.59220	0.01451
2171.66355	0.01539
2169.73490	0.01626
2167.80624	0.01623
2165.87759	0.01666
2163.94894	0.01716
2162.02028	0.01536
2160.09163	0.01191
2158.16298	0.00989
2156.23432	0.01045
2154.30567	0.01244
2152.37702	0.01425
2150.44836	0.01505
2148.51971	0.01510
2146.59106	0.01509
2144.66240	0.01557
2142.73375	0.01650
2140.80510	0.01714
2138.87644	0.01714
2136.94779	0.01677
2135.01914	0.01638
2133.09048	0.01662
2131.16183	0.01753
2129.23318	0.01842
2127.30452	0.01913
2125.37587	0.01947
2123.44722	0.01892
2121.51856	0.01810
2119.58991	0.01824
2117.66126	0.01925
2115.73260	0.02006
2113.80395	0.02027
2111.87530	0.02023
2109.94664	0.02000
2108.01799	0.01949
2106.08934	0.01905
2104.16069	0.01889
2102.23203	0.01880
2100.30338	0.01869
2098.37473	0.01882
2096.44607	0.01866
2094.51742	0.01831
2092.58877	0.01827
2090.66011	0.01849
2088.73146	0.01862
2086.80281	0.01871
2084.87415	0.01873
2082.94550	0.01863
2081.01685	0.01851
2079.08819	0.01869
2077.15954	0.01908
2075.23089	0.01921
2073.30223	0.01904
2071.37358	0.01882
2069.44493	0.01835
2067.51627	0.01761
2065.58762	0.01740
2063.65897	0.01779
2061.73031	0.01769
2059.80166	0.01692
2057.87301	0.01637
2055.94435	0.01616
2054.01570	0.01604
2052.08705	0.01657
2050.15839	0.01789
2048.22974	0.01862
2046.30109	0.01796
2044.37243	0.01676
2042.44378	0.01578
2040.51513	0.01498
2038.58647	0.01423
2036.65782	0.01395
2034.72917	0.01437
2032.80052	0.01443
2030.87186	0.01336
2028.94321	0.01201
2027.01456	0.01155
2025.08590	0.01205
2023.15725	0.01266
2021.22860	0.01290
2019.29994	0.01285
2017.37129	0.01247
2015.44264	0.01239
2013.51398	0.01325
2011.58533	0.01388
2009.65668	0.01345
2007.72802	0.01300
2005.79937	0.01314
2003.87072	0.01337
2001.94206	0.01370
2000.01341	0.01459
1998.08476	0.01546
1996.15610	0.01559
1994.22745	0.01531
1992.29880	0.01450
1990.37014	0.01326
1988.44149	0.01294
1986.51284	0.01370
1984.58418	0.01476
1982.65553	0.01595
1980.72688	0.01683
1978.79822	0.01682
1976.86957	0.01642
1974.94092	0.01640
1973.01226	0.01613
1971.08361	0.01517
1969.15496	0.01467
1967.22631	0.01481
1965.29765	0.01455
1963.36900	0.01390
1961.44035	0.01331
1959.51169	0.01278
1957.58304	0.01279
1955.65439	0.01362
1953.72573	0.01452
1951.79708	0.01491
1949.86843	0.01500
1947.93977	0.01508
1946.01112	0.01508
1944.08247	0.01518
1942.15381	0.01591
1940.22516	0.01702
1938.29651	0.01729
1936.36785	0.01644
1934.43920	0.01537
1932.51055	0.01503
1930.58189	0.01559
1928.65324	0.01644
1926.72459	0.01672
1924.79593	0.01630
1922.86728	0.01589
1920.93863	0.01591
1919.00997	0.01596
1917.08132	0.01584
1915.15267	0.01577
1913.22401	0.01591
1911.29536	0.01630
1909.36671	0.01682
1907.43805	0.01714
1905.50940	0.01709
1903.58075	0.01690
1901.65209	0.01675
1899.72344	0.01654
1897.79479	0.01638
1895.86614	0.01656
1893.93748	0.01711
1892.00883	0.01757
1890.08018	0.01744
1888.15152	0.01699
1886.22287	0.01680
1884.29422	0.01687
1882.36556	0.01677
1880.43691	0.01653
1878.50826	0.01634
1876.57960	0.01621
1874.65095	0.01627
1872.72230	0.01650
1870.79364	0.01663
1868.86499	0.01669
1866.93634	0.01668
1865.00768	0.01651
1863.07903	0.01635
1861.15038	0.01622
1859.22172	0.01612
1857.29307	0.01624
1855.36442	0.01636
1853.43576	0.01632
1851.50711	0.01636
1849.57846	0.01648
1847.64980	0.01646
1845.72115	0.01626
1843.79250	0.01604
1841.86384	0.01593
1839.93519	0.01586
1838.00654	0.01582
1836.07788	0.01581
1834.14923	0.01587
1832.22058	0.01596
1830.29192	0.01594
1828.36327	0.01595
1826.43462	0.01608
1824.50597	0.01629
1822.57731	0.01647
1820.64866	0.01649
1818.72001	0.01628
1816.79135	0.01593
1814.86270	0.01568
1812.93405	0.01556
1811.00539	0.01551
1809.07674	0.01549
1807.14809	0.01543
1805.21943	0.01534
1803.29078	0.01530
1801.36213	0.01534
1799.43347	0.01552
1797.50482	0.01576
1795.57617	0.01588
1793.64751	0.01576
1791.71886	0.01561
1789.79021	0.01566
1787.86155	0.01572
1785.93290	0.01563
1784.00425	0.01551
1782.07559	0.01550
1780.14694	0.01552
1778.21829	0.01553
1776.28963	0.01548
1774.36098	0.01536
1772.43233	0.01530
1770.50367	0.01536
1768.57502	0.01519
1766.64637	0.01498
1764.71771	0.01489
1762.78906	0.01481
1760.86041	0.01489
1758.93176	0.01504
1757.00310	0.01515
1755.07445	0.01532
1753.14580	0.01545
1751.21714	0.01553
1749.28849	0.01564
1747.35984	0.01564
1745.43118	0.01558
1743.50253	0.01562
1741.57388	0.01574
1739.64522	0.01596
1737.71657	0.01632
1735.78792	0.01652
1733.85926	0.01666
1731.93061	0.01684
1730.00196	0.01670
1728.07330	0.01656
1726.14465	0.01672
1724.21600	0.01701
1722.28734	0.01743
1720.35869	0.01793
1718.43004	0.01834
1716.50138	0.01879
1714.57273	0.01928
1712.64408	0.01986
1710.71542	0.02079
1708.78677	0.02210
1706.85812	0.02359
1704.92946	0.02527
1703.00081	0.02713
1701.07216	0.02909
1699.14350	0.03153
1697.21485	0.03393
1695.28620	0.03612
1693.35754	0.03853
1691.42889	0.04081
1689.50024	0.04326
1687.57159	0.04603
1685.64293	0.04878
1683.71428	0.05169
1681.78563	0.05481
1679.85697	0.05795
1677.92832	0.06141
1675.99967	0.06503
1674.07101	0.06879
1672.14236	0.07257
1670.21371	0.07632
1668.28505	0.08020
1666.35640	0.08399
1664.42775	0.08745
1662.49909	0.09075
1660.57044	0.09395
1658.64179	0.09685
1656.71313	0.09941
1654.78448	0.10140
1652.85583	0.10309
1650.92717	0.10483
1648.99852	0.10608
1647.06987	0.10697
1645.14121	0.10793
1643.21256	0.10885
1641.28391	0.10965
1639.35525	0.11039
1637.42660	0.11087
1635.49795	0.11112
1633.56929	0.11129
1631.64064	0.11096
1629.71199	0.10998
1627.78333	0.10849
1625.85468	0.10654
1623.92603	0.10407
1621.99738	0.10121
1620.06872	0.09805
1618.14007	0.09450
1616.21142	0.09087
1614.28276	0.08746
1612.35411	0.08404
1610.42546	0.08066
1608.49680	0.07741
1606.56815	0.07438
1604.63950	0.07164
1602.71084	0.06913
1600.78219	0.06687
1598.85354	0.06486
1596.92488	0.06310
1594.99623	0.06164
1593.06758	0.06057
1591.13892	0.05983
1589.21027	0.05937
1587.28162	0.05913
1585.35296	0.05914
1583.42431	0.05941
1581.49566	0.06001
1579.56700	0.06096
1577.63835	0.06205
1575.70970	0.06334
1573.78104	0.06501
1571.85239	0.06668
1569.92374	0.06839
1567.99508	0.07037
1566.06643	0.07247
1564.13778	0.07470
1562.20912	0.07704
1560.28047	0.07923
1558.35182	0.08142
1556.42316	0.08342
1554.49451	0.08492
1552.56586	0.08623
1550.63721	0.08725
1548.70855	0.08803
1546.77990	0.08874
1544.85125	0.08936
1542.92259	0.08981
1540.99394	0.08990
1539.06529	0.08969
1537.13663	0.08928
1535.20798	0.08839
1533.27933	0.08726
1531.35067	0.08620
1529.42202	0.08508
1527.49337	0.08392
1525.56471	0.08280
1523.63606	0.08166
1521.70741	0.08037
1519.77875	0.07916
1517.85010	0.07787
1515.92145	0.07641
1513.99279	0.07479
1512.06414	0.07303
1510.13549	0.07138
1508.20683	0.06966
1506.27818	0.06772
1504.34953	0.06582
1502.42087	0.06387
1500.49222	0.06198
1498.56357	0.06022
1496.63491	0.05848
1494.70626	0.05685
1492.77761	0.05529
1490.84895	0.05385
1488.92030	0.05267
1486.99165	0.05171
1485.06299	0.05105
1483.13434	0.05075
1481.20569	0.05078
1479.27704	0.05110
1477.34838	0.05171
1475.41973	0.05262
1473.49108	0.05368
1471.56242	0.05490
1469.63377	0.05622
1467.70512	0.05747
1465.77646	0.05868
1463.84781	0.05994
1461.91916	0.06125
1459.99050	0.06261
1458.06185	0.06399
1456.13320	0.06538
1454.20454	0.06648
1452.27589	0.06700
1450.34724	0.06717
1448.41858	0.06708
1446.48993	0.06683
1444.56128	0.06639
1442.63262	0.06574
1440.70397	0.06506
1438.77532	0.06428
1436.84666	0.06326
1434.91801	0.06216
1432.98936	0.06105
1431.06070	0.06005
1429.13205	0.05926
1427.20340	0.05865
1425.27474	0.05826
1423.34609	0.05813
1421.41744	0.05815
1419.48878	0.05817
1417.56013	0.05826
1415.63148	0.05833
1413.70283	0.05839
1411.77417	0.05856
1409.84552	0.05886
1407.91687	0.05921
1405.98821	0.05943
1404.05956	0.05952
1402.13091	0.05951
1400.20225	0.05932
1398.27360	0.05896
1396.34495	0.05847
1394.41629	0.05793
1392.48764	0.05745
1390.55899	0.05694
1388.63033	0.05636
1386.70168	0.05578
1384.77303	0.05516
1382.84437	0.05449
1380.91572	0.05390
1378.98707	0.05337
1377.05841	0.05276
1375.12976	0.05201
1373.20111	0.05119
1371.27245	0.05038
1369.34380	0.04948
1367.41515	0.04851
1365.48649	0.04752
1363.55784	0.04652
1361.62919	0.04566
1359.70053	0.04507
1357.77188	0.04482
1355.84323	0.04491
1353.91457	0.04518
1351.98592	0.04548
1350.05727	0.04582
1348.12861	0.04631
1346.19996	0.04690
1344.27131	0.04751
1342.34266	0.04801
1340.41400	0.04838
1338.48535	0.04867
1336.55670	0.04883
1334.62804	0.04878
1332.69939	0.04846
1330.77074	0.04790
1328.84208	0.04720
1326.91343	0.04652
1324.98478	0.04598
1323.05612	0.04562
1321.12747	0.04537
1319.19882	0.04510
1317.27016	0.04478
1315.34151	0.04451
1313.41286	0.04431
1311.48420	0.04400
1309.55555	0.04358
1307.62690	0.04322
1305.69824	0.04296
1303.76959	0.04271
1301.84094	0.04245
1299.91228	0.04217
1297.98363	0.04190
1296.05498	0.04178
1294.12632	0.04192
1292.19767	0.04227
1290.26902	0.04269
1288.34036	0.04315
1286.41171	0.04359
1284.48306	0.04398
1282.55440	0.04430
1280.62575	0.04450
1278.69710	0.04453
1276.76845	0.04448
1274.83979	0.04444
1272.91114	0.04442
1270.98249	0.04450
1269.05383	0.04468
1267.12518	0.04496
1265.19653	0.04534
1263.26787	0.04579
1261.33922	0.04620
1259.41057	0.04657
1257.48191	0.04693
1255.55326	0.04737
1253.62461	0.04798
1251.69595	0.04880
1249.76730	0.04975
1247.83865	0.05060
1245.90999	0.05133
1243.98134	0.05205
1242.05269	0.05269
1240.12403	0.05312
1238.19538	0.05336
1236.26673	0.05342
1234.33807	0.05324
1232.40942	0.05282
1230.48077	0.05215
1228.55211	0.05124
1226.62346	0.05009
1224.69481	0.04880
1222.76615	0.04756
1220.83750	0.04644
1218.90885	0.04538
1216.98019	0.04446
1215.05154	0.04383
1213.12289	0.04359
1211.19423	0.04364
1209.26558	0.04384
1207.33693	0.04413
1205.40828	0.04446
1203.47962	0.04473
1201.55097	0.04472
1199.62232	0.04416
1197.69366	0.04345
1195.76501	0.04255
1193.83636	0.04161
1191.90770	0.04076
1189.97905	0.04002
1188.05040	0.03939
1186.12174	0.03889
1184.19309	0.03848
1182.26444	0.03820
1180.33578	0.03803
1178.40713	0.03794
1176.47848	0.03789
1174.54982	0.03788
1172.62117	0.03793
1170.69252	0.03801
1168.76386	0.03813
1166.83521	0.03835
1164.90656	0.03871
1162.97790	0.03912
1161.04925	0.03937
1159.12060	0.03941
1157.19194	0.03938
1155.26329	0.03935
1153.33464	0.03922
1151.40598	0.03898
1149.47733	0.03875
1147.54868	0.03852
1145.62002	0.03828
1143.69137	0.03816
1141.76272	0.03822
1139.83406	0.03835
1137.90541	0.03849
1135.97676	0.03869
1134.04811	0.03902
1132.11945	0.03946
1130.19080	0.04000
1128.26215	0.04061
1126.33349	0.04124
1124.40484	0.04196
1122.47619	0.04278
1120.54753	0.04363
1118.61888	0.04451
1116.69023	0.04542
1114.76157	0.04619
1112.83292	0.04682
1110.90427	0.04753
1108.97561	0.04839
1107.04696	0.04928
1105.11831	0.05015
1103.18965	0.05103
1101.26100	0.05189
1099.33235	0.05257
1097.40369	0.05308
1095.47504	0.05363
1093.54639	0.05423
1091.61773	0.05485
1089.68908	0.05560
1087.76043	0.05646
1085.83177	0.05729
1083.90312	0.05800
1081.97447	0.05852
1080.04581	0.05887
1078.11716	0.05910
1076.18851	0.05928
1074.25985	0.05945
1072.33120	0.05963
1070.40255	0.05979
1068.47390	0.05994
1066.54524	0.06015
1064.61659	0.06042
1062.68794	0.06073
1060.75928	0.06105
1058.83063	0.06128
1056.90198	0.06141
1054.97332	0.06162
1053.04467	0.06196
1051.11602	0.06226
1049.18736	0.06245
1047.25871	0.06266
1045.33006	0.06304
1043.40140	0.06359
1041.47275	0.06414
1039.54410	0.06463
1037.61544	0.06524
1035.68679	0.06606
1033.75814	0.06693
1031.82948	0.06766
1029.90083	0.06813
1027.97218	0.06828
1026.04352	0.06812
1024.11487	0.06786
1022.18622	0.06771
1020.25756	0.06764
1018.32891	0.06758
1016.40026	0.06746
1014.47160	0.06718
1012.54295	0.06664
1010.61430	0.06590
1008.68564	0.06511
1006.75699	0.06426
1004.82834	0.06332
1002.89968	0.06234
1000.97103	0.06143
999.04238	0.06060
997.11373	0.05963
995.18507	0.05847
993.25642	0.05734
991.32777	0.05631
989.39911	0.05529
987.47046	0.05426
985.54181	0.05330
983.61315	0.05240
981.68450	0.05155
979.75585	0.05080
977.82719	0.05019
975.89854	0.04961
973.96989	0.04894
972.04123	0.04820
970.11258	0.04751
968.18393	0.04699
966.25527	0.04662
964.32662	0.04630
962.39797	0.04592
960.46931	0.04549
958.54066	0.04508
956.61201	0.04467
954.68335	0.04423
952.75470	0.04376
950.82605	0.04325
948.89739	0.04274
946.96874	0.04227
945.04009	0.04184
943.11143	0.04139
941.18278	0.04094
939.25413	0.04052
937.32547	0.04008
935.39682	0.03961
933.46817	0.03929
931.53952	0.03904
929.61086	0.03863
927.68221	0.03813
925.75356	0.03775
923.82490	0.03750
921.89625	0.03730
919.96760	0.03699
918.03894	0.03642
916.11029	0.03574
914.18164	0.03520
912.25298	0.03483
910.32433	0.03462
908.39568	0.03462
906.46702	0.03468
904.53837	0.03457
902.60972	0.03432
900.68106	0.03410
898.75241	0.03404
896.82376	0.03412
894.89510	0.03415
892.96645	0.03391
891.03780	0.03346
889.10914	0.03320
887.18049	0.03323
885.25184	0.03332
883.32318	0.03347
881.39453	0.03379
879.46588	0.03416
877.53722	0.03458
875.60857	0.03518
873.67992	0.03578
871.75126	0.03602
869.82261	0.03582
867.89396	0.03548
865.96530	0.03515
864.03665	0.03484
862.10800	0.03454
860.17935	0.03417
858.25069	0.03369
856.32204	0.03336
854.39339	0.03327
852.46473	0.03322
850.53608	0.03303
848.60743	0.03272
846.67877	0.03246
844.75012	0.03230
842.82147	0.03212
840.89281	0.03186
838.96416	0.03163
837.03551	0.03144
835.10685	0.03132
833.17820	0.03126
831.24955	0.03115
829.32089	0.03093
827.39224	0.03070
825.46359	0.03070
823.53493	0.03092
821.60628	0.03115
819.67763	0.03136
817.74897	0.03146
815.82032	0.03135
813.89167	0.03135
811.96301	0.03163
810.03436	0.03180
808.10571	0.03168
806.17705	0.03156
804.24840	0.03160
802.31975	0.03176
800.39109	0.03200
798.46244	0.03217
796.53379	0.03212
794.60513	0.03190
792.67648	0.03173
790.74783	0.03167
788.81918	0.03171
786.89052	0.03191
784.96187	0.03219
783.03322	0.03230
781.10456	0.03224
779.17591	0.03224
777.24726	0.03222
775.31860	0.03205
773.38995	0.03192
771.46130	0.03197
769.53264	0.03211
767.60399	0.03229
765.67534	0.03249
763.74668	0.03265
761.81803	0.03285
759.88938	0.03315
757.96072	0.03352
756.03207	0.03382
754.10342	0.03385
752.17476	0.03367
750.24611	0.03359
748.31746	0.03370
746.38880	0.03389
744.46015	0.03405
742.53150	0.03412
740.60284	0.03406
738.67419	0.03405
736.74554	0.03425
734.81688	0.03459
732.88823	0.03499
730.95958	0.03558
729.03092	0.03624
727.10227	0.03654
725.17362	0.03644
723.24497	0.03629
721.31631	0.03645
719.38766	0.03665
717.45901	0.03688
715.53035	0.03710
713.60170	0.03718
711.67305	0.03724
709.74439	0.03747
707.81574	0.03779
705.88709	0.03806
703.95843	0.03832
702.02978	0.03850
700.10113	0.03856
698.17247	0.03867
696.24382	0.03873
694.31517	0.03879
692.38651	0.03865
690.45786	0.03838
688.52921	0.03854
686.60055	0.03889
684.67190	0.03920
682.74325	0.03920
680.81459	0.03902
678.88594	0.03944
676.95729	0.03967
675.02863	0.03974
673.09998	0.03954
671.17133	0.03985
669.24267	0.04057
667.31402	0.04017
665.38537	0.04011
663.45671	0.04006
661.52806	0.04003
659.59941	0.03989
657.67075	0.04012
655.74210	0.04026
653.81345	0.04022
651.88480	0.04023
649.95614	0.04078
648.02749	0.04045
646.09884	0.03946
644.17018	0.03925
642.24153	0.03972
640.31288	0.03997
638.38422	0.04007
636.45557	0.04033
634.52692	0.04036
632.59826	0.04022
630.66961	0.03956
628.74096	0.03714
626.81230	0.03940
624.88365	0.04326
622.95500	0.04664
621.02634	0.04756
619.09769	0.04593
617.16904	0.04375
615.24038	0.04200
613.31173	0.04239
611.38308	0.04526
609.45442	0.04758
607.52577	0.04933
605.59712	0.05207
603.66846	0.05364
601.73981	0.05250
599.81116	0.05047
597.88250	0.04917
595.95385	0.04848
594.02520	0.04811
592.09654	0.04803
590.16789	0.04804
588.23924	0.04807
586.31059	0.04843
584.38193	0.04916
582.45328	0.04993
580.52463	0.05053
578.59597	0.05101
576.66732	0.05131
574.73867	0.05135
572.81001	0.05146
570.88136	0.05217
568.95271	0.05337
567.02405	0.05457
565.09540	0.05566
563.16675	0.05660
561.23809	0.05730
559.30944	0.05772
557.38079	0.05769
555.45213	0.05720
553.52348	0.05659
551.59483	0.05605
549.66617	0.05547
547.73752	0.05490
545.80887	0.05439
543.88021	0.05373
541.95156	0.05284
540.02291	0.05199
538.09425	0.05161
536.16560	0.05173
534.23695	0.05191
532.30829	0.05186
530.37964	0.05183
528.45099	0.05188
526.52233	0.05166
524.59368	0.05109
522.66503	0.05052
520.73637	0.04982
518.80772	0.04865
516.87907	0.04748
514.95042	0.04684
513.02176	0.04668
511.09311	0.04677
509.16446	0.04674
507.23580	0.04633
505.30715	0.04566
503.37850	0.04465
501.44984	0.04336
499.52119	0.04263
497.59254	0.04279
495.66388	0.04298
493.73523	0.04252
491.80658	0.04171
489.87792	0.04105
487.94927	0.04073
486.02062	0.04057
484.09196	0.04033
482.16331	0.04006
480.23466	0.03989
478.30600	0.03966
476.37735	0.03922
474.44870	0.03867
472.52004	0.03824
470.59139	0.03812
468.66274	0.03825
466.73408	0.03833
464.80543	0.03822
462.87678	0.03801
460.94812	0.03770
459.01947	0.03727
457.09082	0.03680
455.16216	0.03635
453.23351	0.03588
451.30486	0.03538
449.37620	0.03494
447.44755	0.03474
445.51890	0.03463
443.59025	0.03423
441.66159	0.03362
439.73294	0.03319
437.80429	0.03299
435.87563	0.03277
433.94698	0.03244
432.01833	0.03208
430.08967	0.03177
428.16102	0.03154
426.23237	0.03131
424.30371	0.03093
422.37506	0.03046
420.44641	0.03006
418.51775	0.02981
416.58910	0.02962
414.66045	0.02939
412.73179	0.02915
410.80314	0.02901
408.87449	0.02893
406.94583	0.02874
405.01718	0.02834
403.08853	0.02783
401.15987	0.02737
399.23122	0.02699
