3996.16951	0.05784
3994.24086	0.05718
3992.31221	0.05777
3990.38355	0.05885
3988.45490	0.05917
3986.52625	0.05878
3984.59759	0.05860
3982.66894	0.05882
3980.74029	0.05878
3978.81163	0.05832
3976.88298	0.05788
3974.95433	0.05750
3973.02567	0.05719
3971.09702	0.05713
3969.16837	0.05736
3967.23972	0.05788
3965.31106	0.05845
3963.38241	0.05884
3961.45376	0.05915
3959.52510	0.05914
3957.59645	0.05858
3955.66780	0.05806
3953.73914	0.05811
3951.81049	0.05821
3949.88184	0.05772
3947.95318	0.05694
3946.02453	0.05658
3944.09588	0.05683
3942.16722	0.05737
3940.23857	0.05771
3938.30992	0.05740
3936.38126	0.05658
3934.45261	0.05596
3932.52396	0.05602
3930.59530	0.05652
3928.66665	0.05673
3926.73800	0.05633
3924.80934	0.05575
3922.88069	0.05535
3920.95204	0.05540
3919.02338	0.05577
3917.09473	0.05588
3915.16608	0.05557
3913.23742	0.05542
3911.30877	0.05567
3909.38012	0.05589
3907.45146	0.05558
3905.52281	0.05507
3903.59416	0.05518
3901.66550	0.05582
3899.73685	0.05583
3897.80820	0.05487
3895.87955	0.05411
3893.95089	0.05421
3892.02224	0.05454
3890.09359	0.05455
3888.16493	0.05467
3886.23628	0.05495
3884.30763	0.05472
3882.37897	0.05431
3880.45032	0.05417
3878.52167	0.05406
3876.59301	0.05407
3874.66436	0.05417
3872.73571	0.05416
3870.80705	0.05441
3868.87840	0.05478
3866.94975	0.05509
3865.02109	0.05526
3863.09244	0.05479
3861.16379	0.05365
3859.23513	0.05257
3857.30648	0.05266
3855.37783	0.05375
3853.44917	0.05407
3851.52052	0.05337
3849.59187	0.05301
3847.66321	0.05315
3845.73456	0.05340
3843.80591	0.05342
3841.87725	0.05288
3839.94860	0.05234
3838.01995	0.05226
3836.09129	0.05213
3834.16264	0.05191
3832.23399	0.05175
3830.30534	0.05159
3828.37668	0.05161
3826.44803	0.05174
3824.51938	0.05190
3822.59072	0.05247
3820.66207	0.05288
3818.73342	0.05259
3816.80476	0.05197
3814.87611	0.05108
3812.94746	0.05087
3811.01880	0.05130
3809.09015	0.05140
3807.16150	0.05135
3805.23284	0.05124
3803.30419	0.05123
3801.37554	0.05128
3799.44688	0.05098
3797.51823	0.05072
3795.58958	0.05058
3793.66092	0.05044
3791.73227	0.05042
3789.80362	0.05071
3787.87496	0.05102
3785.94631	0.05074
3784.01766	0.05010
3782.08900	0.04996
3780.16035	0.05024
3778.23170	0.05028
3776.30304	0.05024
3774.37439	0.05032
3772.44574	0.05034
3770.51708	0.05014
3768.58843	0.04974
3766.65978	0.04965
3764.73112	0.04974
3762.80247	0.04954
3760.87382	0.04911
3758.94517	0.04861
3757.01651	0.04830
3755.08786	0.04845
3753.15921	0.04909
3751.23055	0.04953
3749.30190	0.04924
3747.37325	0.04868
3745.44459	0.04873
3743.51594	0.04857
3741.58729	0.04824
3739.65863	0.04861
3737.72998	0.04905
3735.80133	0.04884
3733.87267	0.04830
3731.94402	0.04800
3730.01537	0.04750
3728.08671	0.04727
3726.15806	0.04764
3724.22941	0.04793
3722.30075	0.04784
3720.37210	0.04763
3718.44345	0.04733
3716.51479	0.04689
3714.58614	0.04680
3712.65749	0.04708
3710.72883	0.04720
3708.80018	0.04725
3706.87153	0.04732
3704.94287	0.04713
3703.01422	0.04691
3701.08557	0.04698
3699.15691	0.04689
3697.22826	0.04662
3695.29961	0.04657
3693.37095	0.04699
3691.44230	0.04754
3689.51365	0.04774
3687.58500	0.04709
3685.65634	0.04604
3683.72769	0.04577
3681.79904	0.04626
3679.87038	0.04683
3677.94173	0.04713
3676.01308	0.04715
3674.08442	0.04677
3672.15577	0.04710
3670.22712	0.04806
3668.29846	0.04803
3666.36981	0.04732
3664.44116	0.04730
3662.51250	0.04818
3660.58385	0.04912
3658.65520	0.04971
3656.72654	0.04973
3654.79789	0.04927
3652.86924	0.04941
3650.94058	0.05019
3649.01193	0.05074
3647.08328	0.05119
3645.15462	0.05192
3643.22597	0.05281
3641.29732	0.05359
3639.36866	0.05396
3637.44001	0.05388
3635.51136	0.05349
3633.58270	0.05319
3631.65405	0.05405
3629.72540	0.05590
3627.79674	0.05694
3625.86809	0.05723
3623.93944	0.05781
3622.01079	0.05859
3620.08213	0.05936
3618.15348	0.06006
3616.22483	0.06068
3614.29617	0.06142
3612.36752	0.06216
3610.43887	0.06284
3608.51021	0.06339
3606.58156	0.06377
3604.65291	0.06428
3602.72425	0.06514
3600.79560	0.06607
3598.86695	0.06661
3596.93829	0.06665
3595.00964	0.06673
3593.08099	0.06766
3591.15233	0.06917
3589.22368	0.07026
3587.29503	0.07068
3585.36637	0.07105
3583.43772	0.07199
3581.50907	0.07335
3579.58041	0.07452
3577.65176	0.07533
3575.72311	0.07613
3573.79445	0.07712
3571.86580	0.07803
3569.93715	0.07864
3568.00849	0.07923
3566.07984	0.08013
3564.15119	0.08112
3562.22253	0.08194
3560.29388	0.08274
3558.36523	0.08361
3556.43657	0.08444
3554.50792	0.08537
3552.57927	0.08649
3550.65062	0.08760
3548.72196	0.08851
3546.79331	0.08927
3544.86466	0.09025
3542.93600	0.09171
3541.00735	0.09310
3539.07870	0.09402
3537.15004	0.09483
3535.22139	0.09563
3533.29274	0.09618
3531.36408	0.09661
3529.43543	0.09714
3527.50678	0.09796
3525.57812	0.09916
3523.64947	0.10040
3521.72082	0.10129
3519.79216	0.10209
3517.86351	0.10315
3515.93486	0.10428
3514.00620	0.10531
3512.07755	0.10630
3510.14890	0.10724
3508.22024	0.10807
3506.29159	0.10867
3504.36294	0.10895
3502.43428	0.10914
3500.50563	0.10951
3498.57698	0.11013
3496.64832	0.11097
3494.71967	0.11186
3492.79102	0.11278
3490.86236	0.11371
3488.93371	0.11457
3487.00506	0.11539
3485.07641	0.11620
3483.14775	0.11703
3481.21910	0.11779
3479.29045	0.11823
3477.36179	0.11853
3475.43314	0.11923
3473.50449	0.12039
3471.57583	0.12155
3469.64718	0.12245
3467.71853	0.12328
3465.78987	0.12430
3463.86122	0.12508
3461.93257	0.12522
3460.00391	0.12514
3458.07526	0.12546
3456.14661	0.12620
3454.21795	0.12719
3452.28930	0.12824
3450.36065	0.12927
3448.43199	0.13026
3446.50334	0.13116
3444.57469	0.13187
3442.64603	0.13243
3440.71738	0.13307
3438.78873	0.13383
3436.86007	0.13447
3434.93142	0.13517
3433.00277	0.13637
3431.07411	0.13777
3429.14546	0.13859
3427.21681	0.13888
3425.28815	0.13931
3423.35950	0.13999
3421.43085	0.14077
3419.50219	0.14164
3417.57354	0.14247
3415.64489	0.14300
3413.71624	0.14329
3411.78758	0.14384
3409.85893	0.14501
3407.93028	0.14636
3406.00162	0.14722
3404.07297	0.14769
3402.14432	0.14833
3400.21566	0.14914
3398.28701	0.14977
3396.35836	0.15034
3394.42970	0.15118
3392.50105	0.15213
3390.57240	0.15297
3388.64374	0.15406
3386.71509	0.15548
3384.78644	0.15680
3382.85778	0.15783
3380.92913	0.15870
3379.00048	0.15958
3377.07182	0.16054
3375.14317	0.16134
3373.21452	0.16192
3371.28586	0.16280
3369.35721	0.16397
3367.42856	0.16494
3365.49990	0.16577
3363.57125	0.16690
3361.64260	0.16840
3359.71394	0.16996
3357.78529	0.17160
3355.85664	0.17318
3353.92798	0.17435
3351.99933	0.17550
3350.07068	0.17723
3348.14202	0.17914
3346.21337	0.18065
3344.28472	0.18188
3342.35607	0.18310
3340.42741	0.18430
3338.49876	0.18547
3336.57011	0.18653
3334.64145	0.18737
3332.71280	0.18830
3330.78415	0.18970
3328.85549	0.19120
3326.92684	0.19220
3324.99819	0.19279
3323.06953	0.19350
3321.14088	0.19413
3319.21223	0.19440
3317.28357	0.19477
3315.35492	0.19556
3313.42627	0.19646
3311.49761	0.19714
3309.56896	0.19737
3307.64031	0.19735
3305.71165	0.19765
3303.78300	0.19833
3301.85435	0.19888
3299.92569	0.19898
3297.99704	0.19881
3296.06839	0.19877
3294.13973	0.19888
3292.21108	0.19878
3290.28243	0.19852
3288.35377	0.19850
3286.42512	0.19869
3284.49647	0.19869
3282.56781	0.19842
3280.63916	0.19821
3278.71051	0.19815
3276.78186	0.19801
3274.85320	0.19772
3272.92455	0.19743
3270.99590	0.19712
3269.06724	0.19636
3267.13859	0.19501
3265.20994	0.19369
3263.28128	0.19277
3261.35263	0.19201
3259.42398	0.19123
3257.49532	0.19031
3255.56667	0.18929
3253.63802	0.18856
3251.70936	0.18812
3249.78071	0.18769
3247.85206	0.18733
3245.92340	0.18699
3243.99475	0.18648
3242.06610	0.18588
3240.13744	0.18531
3238.20879	0.18468
3236.28014	0.18410
3234.35148	0.18380
3232.42283	0.18336
3230.49418	0.18240
3228.56552	0.18143
3226.63687	0.18082
3224.70822	0.18022
3222.77956	0.17941
3220.85091	0.17882
3218.92226	0.17869
3216.99360	0.17859
3215.06495	0.17807
3213.13630	0.17738
3211.20764	0.17679
3209.27899	0.17607
3207.35034	0.17532
3205.42169	0.17497
3203.49303	0.17483
3201.56438	0.17436
3199.63573	0.17360
3197.70707	0.17276
3195.77842	0.17196
3193.84977	0.17141
3191.92111	0.17083
3189.99246	0.16986
3188.06381	0.16876
3186.13515	0.16778
3184.20650	0.16688
3182.27785	0.16593
3180.34919	0.16483
3178.42054	0.16367
3176.49189	0.16274
3174.56323	0.16210
3172.63458	0.16132
3170.70593	0.16024
3168.77727	0.15917
3166.84862	0.15818
3164.91997	0.15698
3162.99131	0.15553
3161.06266	0.15420
3159.13401	0.15307
3157.20535	0.15194
3155.27670	0.15073
3153.34805	0.14962
3151.41939	0.14874
3149.49074	0.14781
3147.56209	0.14663
3145.63343	0.14554
3143.70478	0.14473
3141.77613	0.14395
3139.84748	0.14313
3137.91882	0.14252
3135.99017	0.14199
3134.06152	0.14114
3132.13286	0.14021
3130.20421	0.13956
3128.27556	0.13890
3126.34690	0.13816
3124.41825	0.13760
3122.48960	0.13728
3120.56094	0.13725
3118.63229	0.13746
3116.70364	0.13758
3114.77498	0.13739
3112.84633	0.13700
3110.91768	0.13677
3108.98902	0.13674
3107.06037	0.13674
3105.13172	0.13678
3103.20306	0.13681
3101.27441	0.13677
3099.34576	0.13691
3097.41710	0.13739
3095.48845	0.13803
3093.55980	0.13868
3091.63114	0.13916
3089.70249	0.13927
3087.77384	0.13937
3085.84518	0.13984
3083.91653	0.14043
3081.98788	0.14073
3080.05922	0.14087
3078.13057	0.14099
3076.20192	0.14097
3074.27326	0.14093
3072.34461	0.14096
3070.41596	0.14093
3068.48731	0.14072
3066.55865	0.14029
3064.63000	0.13971
3062.70135	0.13927
3060.77269	0.13901
3058.84404	0.13870
3056.91539	0.13820
3054.98673	0.13751
3053.05808	0.13665
3051.12943	0.13571
3049.20077	0.13474
3047.27212	0.13376
3045.34347	0.13282
3043.41481	0.13193
3041.48616	0.13101
3039.55751	0.13011
3037.62885	0.12928
3035.70020	0.12850
3033.77155	0.12773
3031.84289	0.12687
3029.91424	0.12573
3027.98559	0.12448
3026.05693	0.12353
3024.12828	0.12287
3022.19963	0.12222
3020.27097	0.12150
3018.34232	0.12088
3016.41367	0.12049
3014.48501	0.12034
3012.55636	0.12028
3010.62771	0.12016
3008.69905	0.11994
3006.77040	0.11973
3004.84175	0.11960
3002.91309	0.11941
3000.98444	0.11919
2999.05579	0.11920
2997.12714	0.11956
2995.19848	0.11985
2993.26983	0.11983
2991.34118	0.11984
2989.41252	0.12020
2987.48387	0.12080
2985.55522	0.12141
2983.62656	0.12186
2981.69791	0.12232
2979.76926	0.12302
2977.84060	0.12385
2975.91195	0.12452
2973.98330	0.12501
2972.05464	0.12563
2970.12599	0.12647
2968.19734	0.12735
2966.26868	0.12819
2964.34003	0.12913
2962.41138	0.12999
2960.48272	0.13055
2958.55407	0.13103
2956.62542	0.13166
2954.69676	0.13225
2952.76811	0.13249
2950.83946	0.13244
2948.91080	0.13256
2946.98215	0.13290
2945.05350	0.13328
2943.12484	0.13394
2941.19619	0.13515
2939.26754	0.13671
2937.33888	0.13831
2935.41023	0.13974
2933.48158	0.14099
2931.55293	0.14232
2929.62427	0.14382
2927.69562	0.14520
2925.76697	0.14616
2923.83831	0.14656
2921.90966	0.14645
2919.98101	0.14587
2918.05235	0.14470
2916.12370	0.14275
2914.19505	0.13991
2912.26639	0.13638
2910.33774	0.13285
2908.40909	0.13007
2906.48043	0.12815
2904.55178	0.12670
2902.62313	0.12532
2900.69447	0.12383
2898.76582	0.12244
2896.83717	0.12142
2894.90851	0.12056
2892.97986	0.11966
2891.05121	0.11888
2889.12255	0.11832
2887.19390	0.11784
2885.26525	0.11743
2883.33659	0.11715
2881.40794	0.11685
2879.47929	0.11671
2877.55063	0.11688
2875.62198	0.11694
2873.69333	0.11674
2871.76467	0.11655
2869.83602	0.11638
2867.90737	0.11597
2865.97871	0.11528
2864.05006	0.11455
2862.12141	0.11424
2860.19276	0.11455
2858.26410	0.11529
2856.33545	0.11626
2854.40680	0.11724
2852.47814	0.11793
2850.54949	0.11775
2848.62084	0.11612
2846.69218	0.11329
2844.76353	0.11022
2842.83488	0.10750
2840.90622	0.10538
2838.97757	0.10390
2837.04892	0.10262
2835.12026	0.10132
2833.19161	0.10034
2831.26296	0.09980
2829.33430	0.09930
2827.40565	0.09852
2825.47700	0.09766
2823.54834	0.09703
2821.61969	0.09656
2819.69104	0.09627
2817.76238	0.09604
2815.83373	0.09560
2813.90508	0.09499
2811.97642	0.09451
2810.04777	0.09421
2808.11912	0.09385
2806.19046	0.09328
2804.26181	0.09265
2802.33316	0.09215
2800.40450	0.09178
2798.47585	0.09147
2796.54720	0.09115
2794.61855	0.09070
2792.68989	0.09011
2790.76124	0.08965
2788.83259	0.08958
2786.90393	0.08959
2784.97528	0.08930
2783.04663	0.08885
2781.11797	0.08838
2779.18932	0.08779
2777.26067	0.08716
2775.33201	0.08675
2773.40336	0.08655
2771.47471	0.08634
2769.54605	0.08599
2767.61740	0.08555
2765.68875	0.08517
2763.76009	0.08484
2761.83144	0.08439
2759.90279	0.08393
2757.97413	0.08367
2756.04548	0.08358
2754.11683	0.08345
2752.18817	0.08318
2750.25952	0.08279
2748.33087	0.08233
2746.40221	0.08195
2744.47356	0.08175
2742.54491	0.08160
2740.61625	0.08142
2738.68760	0.08120
2736.75895	0.08091
2734.83029	0.08045
2732.90164	0.07993
2730.97299	0.07955
2729.04433	0.07919
2727.11568	0.07878
2725.18703	0.07843
2723.25838	0.07812
2721.32972	0.07777
2719.40107	0.07750
2717.47242	0.07729
2715.54376	0.07695
2713.61511	0.07657
2711.68646	0.07634
2709.75780	0.07621
2707.82915	0.07608
2705.90050	0.07592
2703.97184	0.07566
2702.04319	0.07539
2700.11454	0.07515
2698.18588	0.07488
2696.25723	0.07465
2694.32858	0.07443
2692.39992	0.07414
2690.47127	0.07402
2688.54262	0.07408
2686.61396	0.07404
2684.68531	0.07373
2682.75666	0.07325
2680.82800	0.07297
2678.89935	0.07296
2676.97070	0.07292
2675.04204	0.07279
2673.11339	0.07266
2671.18474	0.07259
2669.25608	0.07250
2667.32743	0.07228
2665.39878	0.07201
2663.47012	0.07172
2661.54147	0.07138
2659.61282	0.07103
2657.68417	0.07074
2655.75551	0.07055
2653.82686	0.07039
2651.89821	0.07018
2649.96955	0.06988
2648.04090	0.06951
2646.11225	0.06911
2644.18359	0.06865
2642.25494	0.06813
2640.32629	0.06772
2638.39763	0.06730
2636.46898	0.06678
2634.54033	0.06640
2632.61167	0.06621
2630.68302	0.06581
2628.75437	0.06522
2626.82571	0.06482
2624.89706	0.06457
2622.96841	0.06416
2621.03975	0.06357
2619.11110	0.06289
2617.18245	0.06214
2615.25379	0.06145
2613.32514	0.06096
2611.39649	0.06056
2609.46783	0.06036
2607.53918	0.06044
2605.61053	0.06043
2603.68187	0.06007
2601.75322	0.05936
2599.82457	0.05866
2597.89591	0.05828
2595.96726	0.05808
2594.03861	0.05784
2592.10995	0.05751
2590.18130	0.05710
2588.25265	0.05681
2586.32400	0.05663
2584.39534	0.05637
2582.46669	0.05609
2580.53804	0.05593
2578.60938	0.05590
2576.68073	0.05573
2574.75208	0.05510
2572.82342	0.05434
2570.89477	0.05399
2568.96612	0.05399
2567.03746	0.05406
2565.10881	0.05410
2563.18016	0.05406
2561.25150	0.05383
2559.32285	0.05326
2557.39420	0.05246
2555.46554	0.05180
2553.53689	0.05173
2551.60824	0.05204
2549.67958	0.05228
2547.75093	0.05241
2545.82228	0.05232
2543.89362	0.05188
2541.96497	0.05142
2540.03632	0.05127
2538.10766	0.05125
2536.17901	0.05102
2534.25036	0.05050
2532.32170	0.05007
2530.39305	0.04988
2528.46440	0.04977
2526.53574	0.04965
2524.60709	0.04958
2522.67844	0.04964
2520.74978	0.04958
2518.82113	0.04928
2516.89248	0.04899
2514.96383	0.04880
2513.03517	0.04862
2511.10652	0.04850
2509.17787	0.04859
2507.24921	0.04888
2505.32056	0.04914
2503.39191	0.04923
2501.46325	0.04905
2499.53460	0.04862
2497.60595	0.04825
2495.67729	0.04817
2493.74864	0.04826
2491.81999	0.04821
2489.89133	0.04799
2487.96268	0.04772
2486.03403	0.04733
2484.10537	0.04703
2482.17672	0.04711
2480.24807	0.04710
2478.31941	0.04671
2476.39076	0.04636
2474.46211	0.04621
2472.53345	0.04631
2470.60480	0.04664
2468.67615	0.04693
2466.74749	0.04701
2464.81884	0.04696
2462.89019	0.04688
2460.96153	0.04680
2459.03288	0.04667
2457.10423	0.04648
2455.17557	0.04610
2453.24692	0.04555
2451.31827	0.04519
2449.38962	0.04518
2447.46096	0.04533
2445.53231	0.04537
2443.60366	0.04512
2441.67500	0.04476
2439.74635	0.04467
2437.81770	0.04497
2435.88904	0.04535
2433.96039	0.04548
2432.03174	0.04530
2430.10308	0.04508
2428.17443	0.04498
2426.24578	0.04500
2424.31712	0.04505
2422.38847	0.04510
2420.45982	0.04499
2418.53116	0.04463
2416.60251	0.04434
2414.67386	0.04435
2412.74520	0.04459
2410.81655	0.04493
2408.88790	0.04509
2406.95924	0.04483
2405.03059	0.04444
2403.10194	0.04440
2401.17328	0.04469
2399.24463	0.04477
2397.31598	0.04465
2395.38732	0.04468
2393.45867	0.04499
2391.53002	0.04533
2389.60136	0.04554
2387.67271	0.04566
2385.74406	0.04560
2383.81540	0.04535
2381.88675	0.04527
2379.95810	0.04538
2378.02945	0.04544
2376.10079	0.04513
2374.17214	0.04509
2372.24349	0.04539
2370.31483	0.04651
2368.38618	0.04466
2366.45753	0.04377
2364.52887	0.04440
2362.60022	0.04425
2360.67157	0.04586
2358.74291	0.04756
2356.81426	0.04571
2354.88561	0.04501
2352.95695	0.04616
2351.02830	0.04629
2349.09965	0.04652
2347.17099	0.04662
2345.24234	0.04683
2343.31369	0.04645
2341.38503	0.04564
2339.45638	0.04762
2337.52773	0.04506
2335.59907	0.04487
2333.67042	0.04562
2331.74177	0.04564
2329.81311	0.04559
2327.88446	0.04593
2325.95581	0.04643
2324.02715	0.04652
2322.09850	0.04610
2320.16985	0.04542
2318.24119	0.04483
2316.31254	0.04432
2314.38389	0.04367
2312.45524	0.04284
2310.52658	0.04214
2308.59793	0.04182
2306.66928	0.04167
2304.74062	0.04145
2302.81197	0.04084
2300.88332	0.04050
2298.95466	0.04037
2297.02601	0.03996
2295.09736	0.03927
2293.16870	0.03859
2291.24005	0.03812
2289.31140	0.03795
2287.38274	0.03778
2285.45409	0.03731
2283.52544	0.03661
2281.59678	0.03598
2279.66813	0.03566
2277.73948	0.03537
2275.81082	0.03478
2273.88217	0.03413
2271.95352	0.03359
2270.02486	0.03312
2268.09621	0.03273
2266.16756	0.03237
2264.23890	0.03201
2262.31025	0.03169
2260.38160	0.03136
2258.45294	0.03090
2256.52429	0.03046
2254.59564	0.03025
2252.66698	0.02997
2250.73833	0.02934
2248.80968	0.02875
2246.88102	0.02832
2244.95237	0.02816
2243.02372	0.02778
2241.09507	0.02732
2239.16641	0.02726
2237.23776	0.02722
2235.30911	0.02668
2233.38045	0.02582
2231.45180	0.02527
2229.52315	0.02549
2227.59449	0.02601
2225.66584	0.02610
2223.73719	0.02587
2221.80853	0.02536
2219.87988	0.02448
2217.95123	0.02358
2216.02257	0.02301
2214.09392	0.02291
2212.16527	0.02307
2210.23661	0.02311
2208.30796	0.02272
2206.37931	0.02190
2204.45065	0.02112
2202.52200	0.02091
2200.59335	0.02122
2198.66469	0.02120
2196.73604	0.02060
2194.80739	0.02019
2192.87873	0.02027
2190.95008	0.02027
2189.02143	0.01940
2187.09277	0.01776
2185.16412	0.01660
2183.23547	0.01647
2181.30681	0.01698
2179.37816	0.01778
2177.44951	0.01814
2175.52085	0.01786
2173.59220	0.01777
2171.66355	0.01810
2169.73490	0.01850
2167.80624	0.01803
2165.87759	0.01609
2163.94894	0.01413
2162.02028	0.01329
2160.09163	0.01262
2158.16298	0.01164
2156.23432	0.01133
2154.30567	0.01200
2152.37702	0.01311
2150.44836	0.01453
2148.51971	0.01577
2146.59106	0.01601
2144.66240	0.01559
2142.73375	0.01584
2140.80510	0.01708
2138.87644	0.01819
2136.94779	0.01858
2135.01914	0.01881
2133.09048	0.01950
2131.16183	0.02079
2129.23318	0.02214
2127.30452	0.02289
2125.37587	0.02327
2123.44722	0.02391
2121.51856	0.02445
2119.58991	0.02431
2117.66126	0.02406
2115.73260	0.02437
2113.80395	0.02475
2111.87530	0.02463
2109.94664	0.02438
2108.01799	0.02433
2106.08934	0.02409
2104.16069	0.02369
2102.23203	0.02373
2100.30338	0.02410
2098.37473	0.02415
2096.44607	0.02368
2094.51742	0.02322
2092.58877	0.02318
2090.66011	0.02334
2088.73146	0.02322
2086.80281	0.02285
2084.87415	0.02264
2082.94550	0.02257
2081.01685	0.02247
2079.08819	0.02258
2077.15954	0.02258
2075.23089	0.02195
2073.30223	0.02126
2071.37358	0.02089
2069.44493	0.02040
2067.51627	0.01969
2065.58762	0.01914
2063.65897	0.01882
2061.73031	0.01848
2059.80166	0.01817
2057.87301	0.01818
2055.94435	0.01843
2054.01570	0.01857
2052.08705	0.01844
2050.15839	0.01805
2048.22974	0.01746
2046.30109	0.01654
2044.37243	0.01528
2042.44378	0.01417
2040.51513	0.01364
2038.58647	0.01328
2036.65782	0.01262
2034.72917	0.01221
2032.80052	0.01251
2030.87186	0.01274
2028.94321	0.01225
2027.01456	0.01153
2025.08590	0.01116
2023.15725	0.01117
2021.22860	0.01166
2019.29994	0.01244
2017.37129	0.01267
2015.44264	0.01208
2013.51398	0.01144
2011.58533	0.01139
2009.65668	0.01169
2007.72802	0.01190
2005.79937	0.01208
2003.87072	0.01273
2001.94206	0.01393
2000.01341	0.01494
1998.08476	0.01516
1996.15610	0.01485
1994.22745	0.01447
1992.29880	0.01413
1990.37014	0.01386
1988.44149	0.01374
1986.51284	0.01388
1984.58418	0.01400
1982.65553	0.01381
1980.72688	0.01340
1978.79822	0.01270
1976.86957	0.01205
1974.94092	0.01223
1973.01226	0.01294
1971.08361	0.01347
1969.15496	0.01371
1967.22631	0.01385
1965.29765	0.01437
1963.36900	0.01530
1961.44035	0.01566
1959.51169	0.01526
1957.58304	0.01491
1955.65439	0.01473
1953.72573	0.01460
1951.79708	0.01485
1949.86843	0.01556
1947.93977	0.01641
1946.01112	0.01727
1944.08247	0.01785
1942.15381	0.01793
1940.22516	0.01803
1938.29651	0.01858
1936.36785	0.01922
1934.43920	0.01945
1932.51055	0.01914
1930.58189	0.01884
1928.65324	0.01892
1926.72459	0.01905
1924.79593	0.01915
1922.86728	0.01944
1920.93863	0.01979
1919.00997	0.01999
1917.08132	0.02002
1915.15267	0.01996
1913.22401	0.01993
1911.29536	0.01993
1909.36671	0.02009
1907.43805	0.02045
1905.50940	0.02079
1903.58075	0.02095
1901.65209	0.02090
1899.72344	0.02084
1897.79479	0.02107
1895.86614	0.02139
1893.93748	0.02143
1892.00883	0.02129
1890.08018	0.02129
1888.15152	0.02142
1886.22287	0.02140
1884.29422	0.02118
1882.36556	0.02099
1880.43691	0.02096
1878.50826	0.02104
1876.57960	0.02124
1874.65095	0.02147
1872.72230	0.02153
1870.79364	0.02155
1868.86499	0.02170
1866.93634	0.02178
1865.00768	0.02170
1863.07903	0.02159
1861.15038	0.02159
1859.22172	0.02166
1857.29307	0.02167
1855.36442	0.02162
1853.43576	0.02165
1851.50711	0.02175
1849.57846	0.02178
1847.64980	0.02181
1845.72115	0.02202
1843.79250	0.02227
1841.86384	0.02239
1839.93519	0.02246
1838.00654	0.02244
1836.07788	0.02230
1834.14923	0.02211
1832.22058	0.02202
1830.29192	0.02215
1828.36327	0.02242
1826.43462	0.02266
1824.50597	0.02271
1822.57731	0.02264
1820.64866	0.02258
1818.72001	0.02261
1816.79135	0.02269
1814.86270	0.02270
1812.93405	0.02264
1811.00539	0.02261
1809.07674	0.02263
1807.14809	0.02263
1805.21943	0.02267
1803.29078	0.02283
1801.36213	0.02302
1799.43347	0.02314
1797.50482	0.02324
1795.57617	0.02338
1793.64751	0.02356
1791.71886	0.02357
1789.79021	0.02337
1787.86155	0.02324
1785.93290	0.02323
1784.00425	0.02316
1782.07559	0.02311
1780.14694	0.02318
1778.21829	0.02323
1776.28963	0.02324
1774.36098	0.02334
1772.43233	0.02343
1770.50367	0.02336
1768.57502	0.02332
1766.64637	0.02335
1764.71771	0.02345
1762.78906	0.02369
1760.86041	0.02395
1758.93176	0.02425
1757.00310	0.02462
1755.07445	0.02496
1753.14580	0.02539
1751.21714	0.02596
1749.28849	0.02649
1747.35984	0.02705
1745.43118	0.02776
1743.50253	0.02869
1741.57388	0.02976
1739.64522	0.03077
1737.71657	0.03161
1735.78792	0.03265
1733.85926	0.03380
1731.93061	0.03463
1730.00196	0.03548
1728.07330	0.03663
1726.14465	0.03790
1724.21600	0.03907
1722.28734	0.04017
1720.35869	0.04148
1718.43004	0.04315
1716.50138	0.04494
1714.57273	0.04677
1712.64408	0.04870
1710.71542	0.05064
1708.78677	0.05250
1706.85812	0.05440
1704.92946	0.05647
1703.00081	0.05892
1701.07216	0.06207
1699.14350	0.06553
1697.21485	0.06922
1695.28620	0.07316
1693.35754	0.07719
1691.42889	0.08152
1689.50024	0.08607
1687.57159	0.09087
1685.64293	0.09618
1683.71428	0.10169
1681.78563	0.10721
1679.85697	0.11315
1677.92832	0.11961
1675.99967	0.12660
1674.07101	0.13378
1672.14236	0.14102
1670.21371	0.14846
1668.28505	0.15595
1666.35640	0.16331
1664.42775	0.17057
1662.49909	0.17759
1660.57044	0.18410
1658.64179	0.19000
1656.71313	0.19525
1654.78448	0.20011
1652.85583	0.20449
1650.92717	0.20791
1648.99852	0.21083
1647.06987	0.21361
1645.14121	0.21610
1643.21256	0.21829
1641.28391	0.22029
1639.35525	0.22209
1637.42660	0.22377
1635.49795	0.22525
1633.56929	0.22611
1631.64064	0.22623
1629.71199	0.22546
1627.78333	0.22356
1625.85468	0.22049
1623.92603	0.21631
1621.99738	0.21098
1620.06872	0.20476
1618.14007	0.19806
1616.21142	0.19086
1614.28276	0.18313
1612.35411	0.17520
1610.42546	0.16730
1608.49680	0.15953
1606.56815	0.15196
1604.63950	0.14472
1602.71084	0.13791
1600.78219	0.13161
1598.85354	0.12592
1596.92488	0.12087
1594.99623	0.11644
1593.06758	0.11266
1591.13892	0.10952
1589.21027	0.10695
1587.28162	0.10497
1585.35296	0.10367
1583.42431	0.10315
1581.49566	0.10335
1579.56700	0.10419
1577.63835	0.10573
1575.70970	0.10791
1573.78104	0.11051
1571.85239	0.11371
1569.92374	0.11749
1567.99508	0.12159
1566.06643	0.12595
1564.13778	0.13048
1562.20912	0.13510
1560.28047	0.13996
1558.35182	0.14464
1556.42316	0.14879
1554.49451	0.15259
1552.56586	0.15603
1550.63721	0.15906
1548.70855	0.16160
1546.77990	0.16360
1544.85125	0.16511
1542.92259	0.16614
1540.99394	0.16682
1539.06529	0.16701
1537.13663	0.16650
1535.20798	0.16567
1533.27933	0.16466
1531.35067	0.16330
1529.42202	0.16165
1527.49337	0.15971
1525.56471	0.15749
1523.63606	0.15512
1521.70741	0.15267
1519.77875	0.14998
1517.85010	0.14704
1515.92145	0.14371
1513.99279	0.13993
1512.06414	0.13581
1510.13549	0.13142
1508.20683	0.12698
1506.27818	0.12241
1504.34953	0.11762
1502.42087	0.11300
1500.49222	0.10874
1498.56357	0.10474
1496.63491	0.10089
1494.70626	0.09707
1492.77761	0.09351
1490.84895	0.09044
1488.92030	0.08787
1486.99165	0.08588
1485.06299	0.08452
1483.13434	0.08378
1481.20569	0.08368
1479.27704	0.08421
1477.34838	0.08531
1475.41973	0.08699
1473.49108	0.08935
1471.56242	0.09214
1469.63377	0.09497
1467.70512	0.09777
1465.77646	0.10059
1463.84781	0.10333
1461.91916	0.10589
1459.99050	0.10850
1458.06185	0.11135
1456.13320	0.11398
1454.20454	0.11591
1452.27589	0.11715
1450.34724	0.11774
1448.41858	0.11769
1446.48993	0.11707
1444.56128	0.11603
1442.63262	0.11475
1440.70397	0.11320
1438.77532	0.11143
1436.84666	0.10942
1434.91801	0.10709
1432.98936	0.10473
1431.06070	0.10258
1429.13205	0.10070
1427.20340	0.09915
1425.27474	0.09795
1423.34609	0.09706
1421.41744	0.09651
1419.48878	0.09629
1417.56013	0.09624
1415.63148	0.09642
1413.70283	0.09677
1411.77417	0.09705
1409.84552	0.09714
1407.91687	0.09697
1405.98821	0.09649
1404.05956	0.09570
1402.13091	0.09468
1400.20225	0.09352
1398.27360	0.09226
1396.34495	0.09106
1394.41629	0.09003
1392.48764	0.08913
1390.55899	0.08840
1388.63033	0.08789
1386.70168	0.08751
1384.77303	0.08722
1382.84437	0.08697
1380.91572	0.08658
1378.98707	0.08609
1377.05841	0.08554
1375.12976	0.08490
1373.20111	0.08413
1371.27245	0.08326
1369.34380	0.08227
1367.41515	0.08111
1365.48649	0.07989
1363.55784	0.07882
1361.62919	0.07802
1359.70053	0.07760
1357.77188	0.07755
1355.84323	0.07780
1353.91457	0.07835
1351.98592	0.07930
1350.05727	0.08061
1348.12861	0.08212
1346.19996	0.08370
1344.27131	0.08527
1342.34266	0.08674
1340.41400	0.08799
1338.48535	0.08882
1336.55670	0.08916
1334.62804	0.08904
1332.69939	0.08847
1330.77074	0.08753
1328.84208	0.08643
1326.91343	0.08525
1324.98478	0.08407
1323.05612	0.08304
1321.12747	0.08222
1319.19882	0.08169
1317.27016	0.08136
1315.34151	0.08103
1313.41286	0.08063
1311.48420	0.08024
1309.55555	0.07989
1307.62690	0.07953
1305.69824	0.07924
1303.76959	0.07908
1301.84094	0.07903
1299.91228	0.07905
1297.98363	0.07911
1296.05498	0.07931
1294.12632	0.07980
1292.19767	0.08054
1290.26902	0.08138
1288.34036	0.08232
1286.41171	0.08331
1284.48306	0.08424
1282.55440	0.08505
1280.62575	0.08566
1278.69710	0.08601
1276.76845	0.08615
1274.83979	0.08627
1272.91114	0.08654
1270.98249	0.08686
1269.05383	0.08723
1267.12518	0.08778
1265.19653	0.08856
1263.26787	0.08946
1261.33922	0.09043
1259.41057	0.09146
1257.48191	0.09260
1255.55326	0.09383
1253.62461	0.09523
1251.69595	0.09684
1249.76730	0.09862
1247.83865	0.10044
1245.90999	0.10223
1243.98134	0.10393
1242.05269	0.10554
1240.12403	0.10695
1238.19538	0.10792
1236.26673	0.10840
1234.33807	0.10846
1232.40942	0.10813
1230.48077	0.10734
1228.55211	0.10610
1226.62346	0.10450
1224.69481	0.10261
1222.76615	0.10052
1220.83750	0.09839
1218.90885	0.09643
1216.98019	0.09484
1215.05154	0.09379
1213.12289	0.09328
1211.19423	0.09322
1209.26558	0.09351
1207.33693	0.09397
1205.40828	0.09440
1203.47962	0.09462
1201.55097	0.09450
1199.62232	0.09389
1197.69366	0.09292
1195.76501	0.09165
1193.83636	0.09032
1191.90770	0.08914
1189.97905	0.08804
1188.05040	0.08700
1186.12174	0.08610
1184.19309	0.08542
1182.26444	0.08493
1180.33578	0.08460
1178.40713	0.08446
1176.47848	0.08451
1174.54982	0.08470
1172.62117	0.08495
1170.69252	0.08525
1168.76386	0.08571
1166.83521	0.08625
1164.90656	0.08677
1162.97790	0.08726
1161.04925	0.08754
1159.12060	0.08751
1157.19194	0.08726
1155.26329	0.08688
1153.33464	0.08638
1151.40598	0.08580
1149.47733	0.08516
1147.54868	0.08453
1145.62002	0.08406
1143.69137	0.08373
1141.76272	0.08350
1139.83406	0.08337
1137.90541	0.08330
1135.97676	0.08324
1134.04811	0.08325
1132.11945	0.08340
1130.19080	0.08369
1128.26215	0.08402
1126.33349	0.08424
1124.40484	0.08434
1122.47619	0.08453
1120.54753	0.08498
1118.61888	0.08555
1116.69023	0.08596
1114.76157	0.08622
1112.83292	0.08653
1110.90427	0.08703
1108.97561	0.08768
1107.04696	0.08831
1105.11831	0.08889
1103.18965	0.08956
1101.26100	0.09035
1099.33235	0.09112
1097.40369	0.09183
1095.47504	0.09262
1093.54639	0.09352
1091.61773	0.09454
1089.68908	0.09581
1087.76043	0.09727
1085.83177	0.09873
1083.90312	0.10012
1081.97447	0.10132
1080.04581	0.10205
1078.11716	0.10208
1076.18851	0.10152
1074.25985	0.10067
1072.33120	0.09981
1070.40255	0.09897
1068.47390	0.09811
1066.54524	0.09739
1064.61659	0.09685
1062.68794	0.09632
1060.75928	0.09567
1058.83063	0.09484
1056.90198	0.09381
1054.97332	0.09266
1053.04467	0.09150
1051.11602	0.09035
1049.18736	0.08926
1047.25871	0.08832
1045.33006	0.08748
1043.40140	0.08676
1041.47275	0.08627
1039.54410	0.08608
1037.61544	0.08617
1035.68679	0.08644
1033.75814	0.08675
1031.82948	0.08690
1029.90083	0.08668
1027.97218	0.08607
1026.04352	0.08516
1024.11487	0.08410
1022.18622	0.08307
1020.25756	0.08227
1018.32891	0.08171
1016.40026	0.08133
1014.47160	0.08100
1012.54295	0.08055
1010.61430	0.07984
1008.68564	0.07901
1006.75699	0.07820
1004.82834	0.07729
1002.89968	0.07628
1000.97103	0.07521
999.04238	0.07405
997.11373	0.07289
995.18507	0.07187
993.25642	0.07096
991.32777	0.06999
989.39911	0.06891
987.47046	0.06789
985.54181	0.06700
983.61315	0.06624
981.68450	0.06575
979.75585	0.06555
977.82719	0.06545
975.89854	0.06534
973.96989	0.06523
972.04123	0.06497
970.11258	0.06452
968.18393	0.06412
966.25527	0.06394
964.32662	0.06384
962.39797	0.06367
960.46931	0.06346
958.54066	0.06329
956.61201	0.06318
954.68335	0.06305
952.75470	0.06284
950.82605	0.06262
948.89739	0.06249
946.96874	0.06246
945.04009	0.06248
943.11143	0.06242
941.18278	0.06224
939.25413	0.06198
937.32547	0.06169
935.39682	0.06133
933.46817	0.06084
931.53952	0.06020
929.61086	0.05952
927.68221	0.05894
925.75356	0.05847
923.82490	0.05799
921.89625	0.05742
919.96760	0.05683
918.03894	0.05625
916.11029	0.05564
914.18164	0.05496
912.25298	0.05422
910.32433	0.05365
908.39568	0.05340
906.46702	0.05327
904.53837	0.05311
902.60972	0.05285
900.68106	0.05252
898.75241	0.05239
896.82376	0.05240
894.89510	0.05231
892.96645	0.05214
891.03780	0.05205
889.10914	0.05211
887.18049	0.05230
885.25184	0.05256
883.32318	0.05285
881.39453	0.05313
879.46588	0.05325
877.53722	0.05322
875.60857	0.05330
873.67992	0.05344
871.75126	0.05336
869.82261	0.05301
867.89396	0.05260
865.96530	0.05218
864.03665	0.05172
862.10800	0.05131
860.17935	0.05098
858.25069	0.05071
856.32204	0.05045
854.39339	0.05017
852.46473	0.04986
850.53608	0.04946
848.60743	0.04890
846.67877	0.04817
844.75012	0.04741
842.82147	0.04677
840.89281	0.04622
838.96416	0.04579
837.03551	0.04553
835.10685	0.04528
833.17820	0.04493
831.24955	0.04470
829.32089	0.04463
827.39224	0.04448
825.46359	0.04425
823.53493	0.04413
821.60628	0.04423
819.67763	0.04444
817.74897	0.04457
815.82032	0.04465
813.89167	0.04487
811.96301	0.04516
810.03436	0.04534
808.10571	0.04543
806.17705	0.04545
804.24840	0.04541
802.31975	0.04541
800.39109	0.04548
798.46244	0.04562
796.53379	0.04584
794.60513	0.04605
792.67648	0.04616
790.74783	0.04628
788.81918	0.04645
786.89052	0.04660
784.96187	0.04678
783.03322	0.04705
781.10456	0.04730
779.17591	0.04739
777.24726	0.04737
775.31860	0.04735
773.38995	0.04748
771.46130	0.04774
769.53264	0.04805
767.60399	0.04848
765.67534	0.04889
763.74668	0.04905
761.81803	0.04914
759.88938	0.04947
757.96072	0.04997
756.03207	0.05033
754.10342	0.05045
752.17476	0.05059
750.24611	0.05079
748.31746	0.05092
746.38880	0.05116
744.46015	0.05153
742.53150	0.05186
740.60284	0.05217
738.67419	0.05252
736.74554	0.05290
734.81688	0.05345
732.88823	0.05414
730.95958	0.05475
729.03092	0.05534
727.10227	0.05608
725.17362	0.05673
723.24497	0.05697
721.31631	0.05729
719.38766	0.05761
717.45901	0.05791
715.53035	0.05820
713.60170	0.05845
711.67305	0.05868
709.74439	0.05901
707.81574	0.05945
705.88709	0.05988
703.95843	0.06025
702.02978	0.06056
700.10113	0.06085
698.17247	0.06110
696.24382	0.06133
694.31517	0.06153
692.38651	0.06174
690.45786	0.06201
688.52921	0.06218
686.60055	0.06240
684.67190	0.06260
682.74325	0.06286
680.81459	0.06326
678.88594	0.06347
676.95729	0.06365
675.02863	0.06388
673.09998	0.06415
671.17133	0.06430
669.24267	0.06444
667.31402	0.06466
665.38537	0.06503
663.45671	0.06536
661.52806	0.06554
659.59941	0.06563
657.67075	0.06569
655.74210	0.06587
653.81345	0.06610
651.88480	0.06630
649.95614	0.06642
648.02749	0.06659
646.09884	0.06674
644.17018	0.06684
642.24153	0.06690
640.31288	0.06690
638.38422	0.06693
636.45557	0.06697
634.52692	0.06707
632.59826	0.06722
630.66961	0.06696
628.74096	0.06568
626.81230	0.06624
624.88365	0.06766
622.95500	0.06899
621.02634	0.06886
619.09769	0.06769
617.16904	0.06767
615.24038	0.06888
613.31173	0.06945
611.38308	0.06838
609.45442	0.06755
607.52577	0.06831
605.59712	0.06900
603.66846	0.06883
601.73981	0.06846
599.81116	0.06852
597.88250	0.06909
595.95385	0.06957
594.02520	0.06965
592.09654	0.06986
590.16789	0.07053
588.23924	0.07127
586.31059	0.07167
584.38193	0.07163
582.45328	0.07136
580.52463	0.07132
578.59597	0.07166
576.66732	0.07219
574.73867	0.07284
572.81001	0.07347
570.88136	0.07377
568.95271	0.07396
567.02405	0.07439
565.09540	0.07480
563.16675	0.07500
561.23809	0.07525
559.30944	0.07568
557.38079	0.07621
555.45213	0.07664
553.52348	0.07680
551.59483	0.07680
549.66617	0.07693
547.73752	0.07710
545.80887	0.07716
543.88021	0.07711
541.95156	0.07706
540.02291	0.07716
538.09425	0.07754
536.16560	0.07804
534.23695	0.07839
532.30829	0.07867
530.37964	0.07892
528.45099	0.07892
526.52233	0.07864
524.59368	0.07825
522.66503	0.07793
520.73637	0.07764
518.80772	0.07729
516.87907	0.07686
514.95042	0.07639
513.02176	0.07588
511.09311	0.07545
509.16446	0.07526
507.23580	0.07510
505.30715	0.07460
503.37850	0.07372
501.44984	0.07277
499.52119	0.07197
497.59254	0.07127
495.66388	0.07054
493.73523	0.06971
491.80658	0.06889
489.87792	0.06817
487.94927	0.06739
486.02062	0.06658
484.09196	0.06590
482.16331	0.06531
480.23466	0.06482
478.30600	0.06449
476.37735	0.06429
474.44870	0.06412
472.52004	0.06377
470.59139	0.06320
468.66274	0.06265
466.73408	0.06225
464.80543	0.06187
462.87678	0.06138
460.94812	0.06079
459.01947	0.06026
457.09082	0.05978
455.16216	0.05923
453.23351	0.05868
451.30486	0.05823
449.37620	0.05775
447.44755	0.05709
445.51890	0.05636
443.59025	0.05569
441.66159	0.05506
439.73294	0.05457
437.80429	0.05429
435.87563	0.05416
433.94698	0.05405
432.01833	0.05382
430.08967	0.05337
428.16102	0.05274
426.23237	0.05216
424.30371	0.05177
422.37506	0.05151
420.44641	0.05134
418.51775	0.05112
416.58910	0.05073
414.66045	0.05021
412.73179	0.04970
410.80314	0.04932
408.87449	0.04907
406.94583	0.04882
405.01718	0.04855
403.08853	0.04832
401.15987	0.04813
399.23122	0.04795
