3996.16951	0.06378
3994.24086	0.06376
3992.31221	0.06389
3990.38355	0.06419
3988.45490	0.06458
3986.52625	0.06461
3984.59759	0.06396
3982.66894	0.06322
3980.74029	0.06317
3978.81163	0.06374
3976.88298	0.06410
3974.95433	0.06395
3973.02567	0.06351
3971.09702	0.06279
3969.16837	0.06206
3967.23972	0.06188
3965.31106	0.06225
3963.38241	0.06311
3961.45376	0.06431
3959.52510	0.06489
3957.59645	0.06416
3955.66780	0.06312
3953.73914	0.06290
3951.81049	0.06304
3949.88184	0.06287
3947.95318	0.06260
3946.02453	0.06258
3944.09588	0.06289
3942.16722	0.06350
3940.23857	0.06377
3938.30992	0.06315
3936.38126	0.06223
3934.45261	0.06185
3932.52396	0.06206
3930.59530	0.06245
3928.66665	0.06266
3926.73800	0.06225
3924.80934	0.06136
3922.88069	0.06097
3920.95204	0.06132
3919.02338	0.06169
3917.09473	0.06171
3915.16608	0.06179
3913.23742	0.06205
3911.30877	0.06233
3909.38012	0.06239
3907.45146	0.06198
3905.52281	0.06132
3903.59416	0.06131
3901.66550	0.06175
3899.73685	0.06133
3897.80820	0.06032
3895.87955	0.05986
3893.95089	0.05988
3892.02224	0.05988
3890.09359	0.06039
3888.16493	0.06105
3886.23628	0.06099
3884.30763	0.06084
3882.37897	0.06052
3880.45032	0.05997
3878.52167	0.05969
3876.59301	0.05941
3874.66436	0.05950
3872.73571	0.06010
3870.80705	0.06023
3868.87840	0.06046
3866.94975	0.06102
3865.02109	0.06122
3863.09244	0.06099
3861.16379	0.06029
3859.23513	0.06009
3857.30648	0.06072
3855.37783	0.06066
3853.44917	0.05988
3851.52052	0.05965
3849.59187	0.05972
3847.66321	0.05986
3845.73456	0.05992
3843.80591	0.05958
3841.87725	0.05909
3839.94860	0.05863
3838.01995	0.05841
3836.09129	0.05873
3834.16264	0.05873
3832.23399	0.05820
3830.30534	0.05780
3828.37668	0.05786
3826.44803	0.05811
3824.51938	0.05818
3822.59072	0.05783
3820.66207	0.05788
3818.73342	0.05828
3816.80476	0.05790
3814.87611	0.05786
3812.94746	0.05822
3811.01880	0.05809
3809.09015	0.05760
3807.16150	0.05735
3805.23284	0.05789
3803.30419	0.05772
3801.37554	0.05707
3799.44688	0.05726
3797.51823	0.05694
3795.58958	0.05630
3793.66092	0.05622
3791.73227	0.05642
3789.80362	0.05647
3787.87496	0.05607
3785.94631	0.05526
3784.01766	0.05460
3782.08900	0.05475
3780.16035	0.05524
3778.23170	0.05546
3776.30304	0.05555
3774.37439	0.05569
3772.44574	0.05545
3770.51708	0.05450
3768.58843	0.05385
3766.65978	0.05393
3764.73112	0.05427
3762.80247	0.05437
3760.87382	0.05402
3758.94517	0.05379
3757.01651	0.05400
3755.08786	0.05452
3753.15921	0.05490
3751.23055	0.05533
3749.30190	0.05592
3747.37325	0.05626
3745.44459	0.05523
3743.51594	0.05458
3741.58729	0.05484
3739.65863	0.05488
3737.72998	0.05483
3735.80133	0.05466
3733.87267	0.05438
3731.94402	0.05372
3730.01537	0.05318
3728.08671	0.05294
3726.15806	0.05319
3724.22941	0.05361
3722.30075	0.05385
3720.37210	0.05400
3718.44345	0.05374
3716.51479	0.05328
3714.58614	0.05307
3712.65749	0.05296
3710.72883	0.05289
3708.80018	0.05264
3706.87153	0.05245
3704.94287	0.05234
3703.01422	0.05205
3701.08557	0.05192
3699.15691	0.05178
3697.22826	0.05109
3695.29961	0.05066
3693.37095	0.05114
3691.44230	0.05199
3689.51365	0.05228
3687.58500	0.05211
3685.65634	0.05172
3683.72769	0.05092
3681.79904	0.05053
3679.87038	0.05110
3677.94173	0.05217
3676.01308	0.05279
3674.08442	0.05324
3672.15577	0.05281
3670.22712	0.05200
3668.29846	0.05176
3666.36981	0.05140
3664.44116	0.05129
3662.51250	0.05159
3660.58385	0.05172
3658.65520	0.05165
3656.72654	0.05161
3654.79789	0.05220
3652.86924	0.05309
3650.94058	0.05337
3649.01193	0.05316
3647.08328	0.05299
3645.15462	0.05314
3643.22597	0.05367
3641.29732	0.05421
3639.36866	0.05452
3637.44001	0.05499
3635.51136	0.05542
3633.58270	0.05543
3631.65405	0.05540
3629.72540	0.05557
3627.79674	0.05622
3625.86809	0.05675
3623.93944	0.05699
3622.01079	0.05742
3620.08213	0.05788
3618.15348	0.05857
3616.22483	0.05912
3614.29617	0.05934
3612.36752	0.05982
3610.43887	0.06011
3608.51021	0.05997
3606.58156	0.06009
3604.65291	0.06055
3602.72425	0.06124
3600.79560	0.06185
3598.86695	0.06223
3596.93829	0.06242
3595.00964	0.06255
3593.08099	0.06305
3591.15233	0.06395
3589.22368	0.06469
3587.29503	0.06531
3585.36637	0.06609
3583.43772	0.06670
3581.50907	0.06706
3579.58041	0.06759
3577.65176	0.06845
3575.72311	0.06938
3573.79445	0.07012
3571.86580	0.07062
3569.93715	0.07089
3568.00849	0.07110
3566.07984	0.07178
3564.15119	0.07278
3562.22253	0.07349
3560.29388	0.07393
3558.36523	0.07461
3556.43657	0.07556
3554.50792	0.07646
3552.57927	0.07725
3550.65062	0.07785
3548.72196	0.07792
3546.79331	0.07775
3544.86466	0.07839
3542.93600	0.07999
3541.00735	0.08132
3539.07870	0.08179
3537.15004	0.08216
3535.22139	0.08282
3533.29274	0.08335
3531.36408	0.08363
3529.43543	0.08409
3527.50678	0.08481
3525.57812	0.08542
3523.64947	0.08590
3521.72082	0.08670
3519.79216	0.08770
3517.86351	0.08852
3515.93486	0.08901
3514.00620	0.08944
3512.07755	0.09003
3510.14890	0.09062
3508.22024	0.09108
3506.29159	0.09135
3504.36294	0.09145
3502.43428	0.09169
3500.50563	0.09207
3498.57698	0.09230
3496.64832	0.09266
3494.71967	0.09348
3492.79102	0.09448
3490.86236	0.09523
3488.93371	0.09570
3487.00506	0.09614
3485.07641	0.09673
3483.14775	0.09734
3481.21910	0.09776
3479.29045	0.09786
3477.36179	0.09771
3475.43314	0.09780
3473.50449	0.09863
3471.57583	0.09997
3469.64718	0.10098
3467.71853	0.10133
3465.78987	0.10153
3463.86122	0.10188
3461.93257	0.10200
3460.00391	0.10169
3458.07526	0.10156
3456.14661	0.10219
3454.21795	0.10324
3452.28930	0.10423
3450.36065	0.10505
3448.43199	0.10574
3446.50334	0.10641
3444.57469	0.10697
3442.64603	0.10723
3440.71738	0.10728
3438.78873	0.10743
3436.86007	0.10780
3434.93142	0.10843
3433.00277	0.10946
3431.07411	0.11057
3429.14546	0.11126
3427.21681	0.11182
3425.28815	0.11240
3423.35950	0.11262
3421.43085	0.11267
3419.50219	0.11299
3417.57354	0.11344
3415.64489	0.11383
3413.71624	0.11419
3411.78758	0.11477
3409.85893	0.11590
3407.93028	0.11723
3406.00162	0.11802
3404.07297	0.11809
3402.14432	0.11784
3400.21566	0.11781
3398.28701	0.11814
3396.35836	0.11880
3394.42970	0.11977
3392.50105	0.12075
3390.57240	0.12144
3388.64374	0.12201
3386.71509	0.12271
3384.78644	0.12349
3382.85778	0.12435
3380.92913	0.12528
3379.00048	0.12594
3377.07182	0.12625
3375.14317	0.12640
3373.21452	0.12676
3371.28586	0.12763
3369.35721	0.12865
3367.42856	0.12950
3365.49990	0.13063
3363.57125	0.13223
3361.64260	0.13366
3359.71394	0.13456
3357.78529	0.13536
3355.85664	0.13645
3353.92798	0.13741
3351.99933	0.13817
3350.07068	0.13952
3348.14202	0.14166
3346.21337	0.14356
3344.28472	0.14446
3342.35607	0.14489
3340.42741	0.14553
3338.49876	0.14651
3336.57011	0.14768
3334.64145	0.14870
3332.71280	0.14958
3330.78415	0.15061
3328.85549	0.15166
3326.92684	0.15258
3324.99819	0.15345
3323.06953	0.15418
3321.14088	0.15466
3319.21223	0.15500
3317.28357	0.15537
3315.35492	0.15589
3313.42627	0.15642
3311.49761	0.15691
3309.56896	0.15752
3307.64031	0.15823
3305.71165	0.15881
3303.78300	0.15900
3301.85435	0.15888
3299.92569	0.15879
3297.99704	0.15881
3296.06839	0.15894
3294.13973	0.15918
3292.21108	0.15912
3290.28243	0.15872
3288.35377	0.15857
3286.42512	0.15888
3284.49647	0.15923
3282.56781	0.15929
3280.63916	0.15925
3278.71051	0.15933
3276.78186	0.15917
3274.85320	0.15847
3272.92455	0.15775
3270.99590	0.15741
3269.06724	0.15706
3267.13859	0.15649
3265.20994	0.15600
3263.28128	0.15556
3261.35263	0.15483
3259.42398	0.15398
3257.49532	0.15315
3255.56667	0.15219
3253.63802	0.15124
3251.70936	0.15047
3249.78071	0.14981
3247.85206	0.14931
3245.92340	0.14901
3243.99475	0.14878
3242.06610	0.14849
3240.13744	0.14802
3238.20879	0.14735
3236.28014	0.14675
3234.35148	0.14650
3232.42283	0.14634
3230.49418	0.14585
3228.56552	0.14530
3226.63687	0.14488
3224.70822	0.14432
3222.77956	0.14368
3220.85091	0.14334
3218.92226	0.14329
3216.99360	0.14314
3215.06495	0.14269
3213.13630	0.14218
3211.20764	0.14181
3209.27899	0.14149
3207.35034	0.14119
3205.42169	0.14090
3203.49303	0.14057
3201.56438	0.14013
3199.63573	0.13952
3197.70707	0.13873
3195.77842	0.13796
3193.84977	0.13753
3191.92111	0.13721
3189.99246	0.13656
3188.06381	0.13582
3186.13515	0.13531
3184.20650	0.13475
3182.27785	0.13380
3180.34919	0.13268
3178.42054	0.13187
3176.49189	0.13139
3174.56323	0.13092
3172.63458	0.13035
3170.70593	0.12966
3168.77727	0.12880
3166.84862	0.12803
3164.91997	0.12742
3162.99131	0.12655
3161.06266	0.12541
3159.13401	0.12444
3157.20535	0.12368
3155.27670	0.12294
3153.34805	0.12238
3151.41939	0.12210
3149.49074	0.12168
3147.56209	0.12084
3145.63343	0.11986
3143.70478	0.11910
3141.77613	0.11851
3139.84748	0.11789
3137.91882	0.11721
3135.99017	0.11656
3134.06152	0.11608
3132.13286	0.11582
3130.20421	0.11560
3128.27556	0.11511
3126.34690	0.11438
3124.41825	0.11372
3122.48960	0.11331
3120.56094	0.11335
3118.63229	0.11384
3116.70364	0.11411
3114.77498	0.11361
3112.84633	0.11286
3110.91768	0.11257
3108.98902	0.11258
3107.06037	0.11259
3105.13172	0.11304
3103.20306	0.11377
3101.27441	0.11397
3099.34576	0.11392
3097.41710	0.11427
3095.48845	0.11479
3093.55980	0.11519
3091.63114	0.11548
3089.70249	0.11553
3087.77384	0.11553
3085.84518	0.11574
3083.91653	0.11603
3081.98788	0.11624
3080.05922	0.11655
3078.13057	0.11691
3076.20192	0.11701
3074.27326	0.11692
3072.34461	0.11696
3070.41596	0.11696
3068.48731	0.11680
3066.55865	0.11659
3064.63000	0.11631
3062.70135	0.11586
3060.77269	0.11547
3058.84404	0.11530
3056.91539	0.11520
3054.98673	0.11500
3053.05808	0.11456
3051.12943	0.11390
3049.20077	0.11311
3047.27212	0.11217
3045.34347	0.11121
3043.41481	0.11034
3041.48616	0.10962
3039.55751	0.10920
3037.62885	0.10893
3035.70020	0.10854
3033.77155	0.10781
3031.84289	0.10679
3029.91424	0.10587
3027.98559	0.10527
3026.05693	0.10479
3024.12828	0.10429
3022.19963	0.10369
3020.27097	0.10298
3018.34232	0.10237
3016.41367	0.10209
3014.48501	0.10193
3012.55636	0.10155
3010.62771	0.10114
3008.69905	0.10111
3006.77040	0.10128
3004.84175	0.10122
3002.91309	0.10095
3000.98444	0.10089
2999.05579	0.10120
2997.12714	0.10158
2995.19848	0.10179
2993.26983	0.10181
2991.34118	0.10186
2989.41252	0.10218
2987.48387	0.10265
2985.55522	0.10300
2983.62656	0.10331
2981.69791	0.10366
2979.76926	0.10408
2977.84060	0.10473
2975.91195	0.10551
2973.98330	0.10609
2972.05464	0.10642
2970.12599	0.10665
2968.19734	0.10699
2966.26868	0.10755
2964.34003	0.10829
2962.41138	0.10911
2960.48272	0.10973
2958.55407	0.11009
2956.62542	0.11040
2954.69676	0.11076
2952.76811	0.11104
2950.83946	0.11111
2948.91080	0.11116
2946.98215	0.11137
2945.05350	0.11167
2943.12484	0.11218
2941.19619	0.11301
2939.26754	0.11399
2937.33888	0.11489
2935.41023	0.11579
2933.48158	0.11676
2931.55293	0.11764
2929.62427	0.11836
2927.69562	0.11901
2925.76697	0.11952
2923.83831	0.11958
2921.90966	0.11907
2919.98101	0.11827
2918.05235	0.11735
2916.12370	0.11609
2914.19505	0.11430
2912.26639	0.11226
2910.33774	0.11025
2908.40909	0.10843
2906.48043	0.10701
2904.55178	0.10603
2902.62313	0.10523
2900.69447	0.10434
2898.76582	0.10348
2896.83717	0.10288
2894.90851	0.10241
2892.97986	0.10181
2891.05121	0.10119
2889.12255	0.10079
2887.19390	0.10065
2885.26525	0.10069
2883.33659	0.10064
2881.40794	0.10038
2879.47929	0.10033
2877.55063	0.10068
2875.62198	0.10088
2873.69333	0.10072
2871.76467	0.10058
2869.83602	0.10050
2867.90737	0.10016
2865.97871	0.09955
2864.05006	0.09898
2862.12141	0.09872
2860.19276	0.09874
2858.26410	0.09877
2856.33545	0.09867
2854.40680	0.09859
2852.47814	0.09855
2850.54949	0.09823
2848.62084	0.09733
2846.69218	0.09594
2844.76353	0.09436
2842.83488	0.09280
2840.90622	0.09145
2838.97757	0.09036
2837.04892	0.08932
2835.12026	0.08839
2833.19161	0.08783
2831.26296	0.08764
2829.33430	0.08751
2827.40565	0.08707
2825.47700	0.08646
2823.54834	0.08610
2821.61969	0.08597
2819.69104	0.08578
2817.76238	0.08549
2815.83373	0.08514
2813.90508	0.08481
2811.97642	0.08460
2810.04777	0.08438
2808.11912	0.08399
2806.19046	0.08351
2804.26181	0.08315
2802.33316	0.08297
2800.40450	0.08282
2798.47585	0.08259
2796.54720	0.08231
2794.61855	0.08197
2792.68989	0.08160
2790.76124	0.08136
2788.83259	0.08124
2786.90393	0.08104
2784.97528	0.08071
2783.04663	0.08034
2781.11797	0.08004
2779.18932	0.07977
2777.26067	0.07942
2775.33201	0.07916
2773.40336	0.07903
2771.47471	0.07882
2769.54605	0.07854
2767.61740	0.07828
2765.68875	0.07801
2763.76009	0.07764
2761.83144	0.07721
2759.90279	0.07693
2757.97413	0.07682
2756.04548	0.07669
2754.11683	0.07649
2752.18817	0.07634
2750.25952	0.07625
2748.33087	0.07614
2746.40221	0.07601
2744.47356	0.07585
2742.54491	0.07562
2740.61625	0.07540
2738.68760	0.07519
2736.75895	0.07489
2734.83029	0.07452
2732.90164	0.07414
2730.97299	0.07372
2729.04433	0.07330
2727.11568	0.07302
2725.18703	0.07289
2723.25838	0.07276
2721.32972	0.07264
2719.40107	0.07256
2717.47242	0.07230
2715.54376	0.07193
2713.61511	0.07180
2711.68646	0.07183
2709.75780	0.07168
2707.82915	0.07135
2705.90050	0.07105
2703.97184	0.07084
2702.04319	0.07069
2700.11454	0.07057
2698.18588	0.07047
2696.25723	0.07038
2694.32858	0.07016
2692.39992	0.06983
2690.47127	0.06963
2688.54262	0.06956
2686.61396	0.06952
2684.68531	0.06948
2682.75666	0.06939
2680.82800	0.06933
2678.89935	0.06931
2676.97070	0.06912
2675.04204	0.06884
2673.11339	0.06870
2671.18474	0.06864
2669.25608	0.06844
2667.32743	0.06819
2665.39878	0.06802
2663.47012	0.06788
2661.54147	0.06764
2659.61282	0.06728
2657.68417	0.06697
2655.75551	0.06679
2653.82686	0.06661
2651.89821	0.06638
2649.96955	0.06603
2648.04090	0.06555
2646.11225	0.06516
2644.18359	0.06499
2642.25494	0.06484
2640.32629	0.06454
2638.39763	0.06408
2636.46898	0.06350
2634.54033	0.06292
2632.61167	0.06256
2630.68302	0.06231
2628.75437	0.06191
2626.82571	0.06138
2624.89706	0.06086
2622.96841	0.06045
2621.03975	0.06021
2619.11110	0.05988
2617.18245	0.05925
2615.25379	0.05865
2613.32514	0.05826
2611.39649	0.05794
2609.46783	0.05786
2607.53918	0.05809
2605.61053	0.05822
2603.68187	0.05790
2601.75322	0.05715
2599.82457	0.05646
2597.89591	0.05625
2595.96726	0.05608
2594.03861	0.05542
2592.10995	0.05463
2590.18130	0.05426
2588.25265	0.05420
2586.32400	0.05411
2584.39534	0.05405
2582.46669	0.05397
2580.53804	0.05371
2578.60938	0.05346
2576.68073	0.05336
2574.75208	0.05316
2572.82342	0.05266
2570.89477	0.05197
2568.96612	0.05135
2567.03746	0.05133
2565.10881	0.05183
2563.18016	0.05201
2561.25150	0.05155
2559.32285	0.05078
2557.39420	0.05012
2555.46554	0.04991
2553.53689	0.05026
2551.60824	0.05090
2549.67958	0.05117
2547.75093	0.05094
2545.82228	0.05059
2543.89362	0.05015
2541.96497	0.04960
2540.03632	0.04932
2538.10766	0.04947
2536.17901	0.04960
2534.25036	0.04938
2532.32170	0.04901
2530.39305	0.04868
2528.46440	0.04848
2526.53574	0.04843
2524.60709	0.04844
2522.67844	0.04838
2520.74978	0.04823
2518.82113	0.04807
2516.89248	0.04787
2514.96383	0.04770
2513.03517	0.04769
2511.10652	0.04782
2509.17787	0.04807
2507.24921	0.04825
2505.32056	0.04817
2503.39191	0.04803
2501.46325	0.04777
2499.53460	0.04722
2497.60595	0.04684
2495.67729	0.04686
2493.74864	0.04675
2491.81999	0.04631
2489.89133	0.04591
2487.96268	0.04578
2486.03403	0.04574
2484.10537	0.04574
2482.17672	0.04592
2480.24807	0.04600
2478.31941	0.04577
2476.39076	0.04539
2474.46211	0.04516
2472.53345	0.04516
2470.60480	0.04522
2468.67615	0.04533
2466.74749	0.04542
2464.81884	0.04532
2462.89019	0.04524
2460.96153	0.04547
2459.03288	0.04570
2457.10423	0.04556
2455.17557	0.04509
2453.24692	0.04463
2451.31827	0.04453
2449.38962	0.04475
2447.46096	0.04478
2445.53231	0.04451
2443.60366	0.04430
2441.67500	0.04429
2439.74635	0.04432
2437.81770	0.04434
2435.88904	0.04442
2433.96039	0.04449
2432.03174	0.04440
2430.10308	0.04416
2428.17443	0.04404
2426.24578	0.04411
2424.31712	0.04409
2422.38847	0.04398
2420.45982	0.04390
2418.53116	0.04379
2416.60251	0.04370
2414.67386	0.04371
2412.74520	0.04377
2410.81655	0.04381
2408.88790	0.04365
2406.95924	0.04327
2405.03059	0.04309
2403.10194	0.04330
2401.17328	0.04362
2399.24463	0.04374
2397.31598	0.04378
2395.38732	0.04385
2393.45867	0.04417
2391.53002	0.04464
2389.60136	0.04491
2387.67271	0.04484
2385.74406	0.04459
2383.81540	0.04450
2381.88675	0.04469
2379.95810	0.04477
2378.02945	0.04462
2376.10079	0.04465
2374.17214	0.04477
2372.24349	0.04473
2370.31483	0.04470
2368.38618	0.04473
2366.45753	0.04495
2364.52887	0.04510
2362.60022	0.04542
2360.67157	0.04578
2358.74291	0.04564
2356.81426	0.04564
2354.88561	0.04575
2352.95695	0.04586
2351.02830	0.04600
2349.09965	0.04613
2347.17099	0.04611
2345.24234	0.04613
2343.31369	0.04597
2341.38503	0.04550
2339.45638	0.04541
2337.52773	0.04549
2335.59907	0.04561
2333.67042	0.04569
2331.74177	0.04568
2329.81311	0.04580
2327.88446	0.04604
2325.95581	0.04655
2324.02715	0.04662
2322.09850	0.04607
2320.16985	0.04533
2318.24119	0.04475
2316.31254	0.04405
2314.38389	0.04327
2312.45524	0.04240
2310.52658	0.04161
2308.59793	0.04130
2306.66928	0.04120
2304.74062	0.04078
2302.81197	0.04013
2300.88332	0.03971
2298.95466	0.03950
2297.02601	0.03918
2295.09736	0.03880
2293.16870	0.03841
2291.24005	0.03784
2289.31140	0.03712
2287.38274	0.03663
2285.45409	0.03657
2283.52544	0.03657
2281.59678	0.03628
2279.66813	0.03585
2277.73948	0.03523
2275.81082	0.03424
2273.88217	0.03337
2271.95352	0.03298
2270.02486	0.03270
2268.09621	0.03217
2266.16756	0.03142
2264.23890	0.03067
2262.31025	0.03012
2260.38160	0.02991
2258.45294	0.02999
2256.52429	0.02998
2254.59564	0.02958
2252.66698	0.02915
2250.73833	0.02897
2248.80968	0.02883
2246.88102	0.02837
2244.95237	0.02816
2243.02372	0.02797
2241.09507	0.02769
2239.16641	0.02747
2237.23776	0.02694
2235.30911	0.02611
2233.38045	0.02569
2231.45180	0.02582
2229.52315	0.02612
2227.59449	0.02606
2225.66584	0.02529
2223.73719	0.02416
2221.80853	0.02318
2219.87988	0.02270
2217.95123	0.02266
2216.02257	0.02244
2214.09392	0.02197
2212.16527	0.02165
2210.23661	0.02146
2208.30796	0.02141
2206.37931	0.02179
2204.45065	0.02217
2202.52200	0.02178
2200.59335	0.02110
2198.66469	0.02106
2196.73604	0.02134
2194.80739	0.02126
2192.87873	0.02087
2190.95008	0.02029
2189.02143	0.01932
2187.09277	0.01845
2185.16412	0.01823
2183.23547	0.01816
2181.30681	0.01811
2179.37816	0.01864
2177.44951	0.01924
2175.52085	0.01911
2173.59220	0.01858
2171.66355	0.01810
2169.73490	0.01778
2167.80624	0.01748
2165.87759	0.01669
2163.94894	0.01534
2162.02028	0.01333
2160.09163	0.01102
2158.16298	0.01020
2156.23432	0.01163
2154.30567	0.01392
2152.37702	0.01584
2150.44836	0.01726
2148.51971	0.01789
2146.59106	0.01764
2144.66240	0.01723
2142.73375	0.01706
2140.80510	0.01727
2138.87644	0.01803
2136.94779	0.01901
2135.01914	0.01983
2133.09048	0.02055
2131.16183	0.02141
2129.23318	0.02247
2127.30452	0.02336
2125.37587	0.02383
2123.44722	0.02428
2121.51856	0.02467
2119.58991	0.02453
2117.66126	0.02432
2115.73260	0.02452
2113.80395	0.02462
2111.87530	0.02440
2109.94664	0.02457
2108.01799	0.02520
2106.08934	0.02524
2104.16069	0.02445
2102.23203	0.02377
2100.30338	0.02368
2098.37473	0.02384
2096.44607	0.02386
2094.51742	0.02390
2092.58877	0.02394
2090.66011	0.02383
2088.73146	0.02363
2086.80281	0.02335
2084.87415	0.02308
2082.94550	0.02311
2081.01685	0.02331
2079.08819	0.02331
2077.15954	0.02291
2075.23089	0.02226
2073.30223	0.02164
2071.37358	0.02110
2069.44493	0.02070
2067.51627	0.02066
2065.58762	0.02079
2063.65897	0.02056
2061.73031	0.02004
2059.80166	0.01945
2057.87301	0.01872
2055.94435	0.01805
2054.01570	0.01786
2052.08705	0.01796
2050.15839	0.01762
2048.22974	0.01649
2046.30109	0.01512
2044.37243	0.01422
2042.44378	0.01392
2040.51513	0.01400
2038.58647	0.01409
2036.65782	0.01374
2034.72917	0.01322
2032.80052	0.01320
2030.87186	0.01361
2028.94321	0.01362
2027.01456	0.01303
2025.08590	0.01240
2023.15725	0.01217
2021.22860	0.01262
2019.29994	0.01339
2017.37129	0.01348
2015.44264	0.01279
2013.51398	0.01213
2011.58533	0.01212
2009.65668	0.01279
2007.72802	0.01344
2005.79937	0.01356
2003.87072	0.01355
2001.94206	0.01404
2000.01341	0.01470
1998.08476	0.01479
1996.15610	0.01442
1994.22745	0.01397
1992.29880	0.01351
1990.37014	0.01342
1988.44149	0.01382
1986.51284	0.01426
1984.58418	0.01454
1982.65553	0.01478
1980.72688	0.01476
1978.79822	0.01416
1976.86957	0.01336
1974.94092	0.01314
1973.01226	0.01366
1971.08361	0.01430
1969.15496	0.01444
1967.22631	0.01423
1965.29765	0.01440
1963.36900	0.01502
1961.44035	0.01533
1959.51169	0.01524
1957.58304	0.01513
1955.65439	0.01497
1953.72573	0.01503
1951.79708	0.01551
1949.86843	0.01597
1947.93977	0.01629
1946.01112	0.01702
1944.08247	0.01800
1942.15381	0.01859
1940.22516	0.01875
1938.29651	0.01876
1936.36785	0.01874
1934.43920	0.01875
1932.51055	0.01865
1930.58189	0.01855
1928.65324	0.01878
1926.72459	0.01923
1924.79593	0.01950
1922.86728	0.01963
1920.93863	0.01979
1919.00997	0.01985
1917.08132	0.01984
1915.15267	0.01982
1913.22401	0.01967
1911.29536	0.01967
1909.36671	0.02010
1907.43805	0.02062
1905.50940	0.02081
1903.58075	0.02085
1901.65209	0.02095
1899.72344	0.02097
1897.79479	0.02096
1895.86614	0.02104
1893.93748	0.02115
1892.00883	0.02116
1890.08018	0.02116
1888.15152	0.02132
1886.22287	0.02142
1884.29422	0.02128
1882.36556	0.02096
1880.43691	0.02068
1878.50826	0.02075
1876.57960	0.02113
1874.65095	0.02144
1872.72230	0.02154
1870.79364	0.02159
1868.86499	0.02174
1866.93634	0.02187
1865.00768	0.02184
1863.07903	0.02176
1861.15038	0.02164
1859.22172	0.02146
1857.29307	0.02134
1855.36442	0.02137
1853.43576	0.02159
1851.50711	0.02194
1849.57846	0.02214
1847.64980	0.02207
1845.72115	0.02186
1843.79250	0.02172
1841.86384	0.02177
1839.93519	0.02168
1838.00654	0.02144
1836.07788	0.02128
1834.14923	0.02132
1832.22058	0.02145
1830.29192	0.02155
1828.36327	0.02169
1826.43462	0.02177
1824.50597	0.02183
1822.57731	0.02198
1820.64866	0.02201
1818.72001	0.02188
1816.79135	0.02175
1814.86270	0.02173
1812.93405	0.02172
1811.00539	0.02167
1809.07674	0.02169
1807.14809	0.02172
1805.21943	0.02168
1803.29078	0.02163
1801.36213	0.02168
1799.43347	0.02184
1797.50482	0.02207
1795.57617	0.02229
1793.64751	0.02230
1791.71886	0.02214
1789.79021	0.02197
1787.86155	0.02178
1785.93290	0.02164
1784.00425	0.02150
1782.07559	0.02134
1780.14694	0.02125
1778.21829	0.02126
1776.28963	0.02129
1774.36098	0.02124
1772.43233	0.02118
1770.50367	0.02121
1768.57502	0.02112
1766.64637	0.02105
1764.71771	0.02099
1762.78906	0.02084
1760.86041	0.02086
1758.93176	0.02092
1757.00310	0.02090
1755.07445	0.02100
1753.14580	0.02110
1751.21714	0.02127
1749.28849	0.02158
1747.35984	0.02173
1745.43118	0.02179
1743.50253	0.02205
1741.57388	0.02249
1739.64522	0.02298
1737.71657	0.02358
1735.78792	0.02404
1733.85926	0.02453
1731.93061	0.02520
1730.00196	0.02556
1728.07330	0.02584
1726.14465	0.02625
1724.21600	0.02669
1722.28734	0.02737
1720.35869	0.02824
1718.43004	0.02901
1716.50138	0.02997
1714.57273	0.03115
1712.64408	0.03243
1710.71542	0.03396
1708.78677	0.03568
1706.85812	0.03755
1704.92946	0.03982
1703.00081	0.04251
1701.07216	0.04524
1699.14350	0.04845
1697.21485	0.05163
1695.28620	0.05473
1693.35754	0.05829
1691.42889	0.06169
1689.50024	0.06525
1687.57159	0.06924
1685.64293	0.07326
1683.71428	0.07749
1681.78563	0.08193
1679.85697	0.08641
1677.92832	0.09140
1675.99967	0.09671
1674.07101	0.10231
1672.14236	0.10801
1670.21371	0.11371
1668.28505	0.11964
1666.35640	0.12555
1664.42775	0.13113
1662.49909	0.13650
1660.57044	0.14161
1658.64179	0.14624
1656.71313	0.15051
1654.78448	0.15417
1652.85583	0.15748
1650.92717	0.16076
1648.99852	0.16317
1647.06987	0.16509
1645.14121	0.16720
1643.21256	0.16914
1641.28391	0.17076
1639.35525	0.17243
1637.42660	0.17395
1635.49795	0.17518
1633.56929	0.17625
1631.64064	0.17663
1629.71199	0.17610
1627.78333	0.17479
1625.85468	0.17258
1623.92603	0.16923
1621.99738	0.16513
1620.06872	0.16054
1618.14007	0.15535
1616.21142	0.14990
1614.28276	0.14447
1612.35411	0.13872
1610.42546	0.13290
1608.49680	0.12726
1606.56815	0.12184
1604.63950	0.11674
1602.71084	0.11204
1600.78219	0.10774
1598.85354	0.10380
1596.92488	0.10029
1594.99623	0.09732
1593.06758	0.09489
1591.13892	0.09286
1589.21027	0.09118
1587.28162	0.08988
1585.35296	0.08898
1583.42431	0.08855
1581.49566	0.08874
1579.56700	0.08954
1577.63835	0.09064
1575.70970	0.09220
1573.78104	0.09440
1571.85239	0.09674
1569.92374	0.09942
1567.99508	0.10266
1566.06643	0.10609
1564.13778	0.10974
1562.20912	0.11356
1560.28047	0.11717
1558.35182	0.12088
1556.42316	0.12447
1554.49451	0.12736
1552.56586	0.12993
1550.63721	0.13223
1548.70855	0.13427
1546.77990	0.13606
1544.85125	0.13754
1542.92259	0.13865
1540.99394	0.13921
1539.06529	0.13945
1537.13663	0.13952
1535.20798	0.13908
1533.27933	0.13843
1531.35067	0.13780
1529.42202	0.13686
1527.49337	0.13566
1525.56471	0.13447
1523.63606	0.13325
1521.70741	0.13180
1519.77875	0.13034
1517.85010	0.12857
1515.92145	0.12640
1513.99279	0.12399
1512.06414	0.12128
1510.13549	0.11838
1508.20683	0.11512
1506.27818	0.11167
1504.34953	0.10834
1502.42087	0.10481
1500.49222	0.10121
1498.56357	0.09782
1496.63491	0.09451
1494.70626	0.09134
1492.77761	0.08821
1490.84895	0.08514
1488.92030	0.08246
1486.99165	0.08027
1485.06299	0.07861
1483.13434	0.07745
1481.20569	0.07679
1479.27704	0.07669
1477.34838	0.07710
1475.41973	0.07801
1473.49108	0.07936
1471.56242	0.08114
1469.63377	0.08318
1467.70512	0.08514
1465.77646	0.08700
1463.84781	0.08896
1461.91916	0.09107
1459.99050	0.09329
1458.06185	0.09558
1456.13320	0.09797
1454.20454	0.10003
1452.27589	0.10127
1450.34724	0.10201
1448.41858	0.10235
1446.48993	0.10224
1444.56128	0.10171
1442.63262	0.10086
1440.70397	0.09985
1438.77532	0.09855
1436.84666	0.09692
1434.91801	0.09513
1432.98936	0.09313
1431.06070	0.09117
1429.13205	0.08955
1427.20340	0.08825
1425.27474	0.08720
1423.34609	0.08653
1421.41744	0.08612
1419.48878	0.08582
1417.56013	0.08578
1415.63148	0.08585
1413.70283	0.08597
1411.77417	0.08618
1409.84552	0.08643
1407.91687	0.08662
1405.98821	0.08665
1404.05956	0.08660
1402.13091	0.08645
1400.20225	0.08610
1398.27360	0.08562
1396.34495	0.08499
1394.41629	0.08422
1392.48764	0.08354
1390.55899	0.08295
1388.63033	0.08238
1386.70168	0.08185
1384.77303	0.08140
1382.84437	0.08093
1380.91572	0.08043
1378.98707	0.07992
1377.05841	0.07932
1375.12976	0.07850
1373.20111	0.07762
1371.27245	0.07678
1369.34380	0.07582
1367.41515	0.07468
1365.48649	0.07345
1363.55784	0.07230
1361.62919	0.07140
1359.70053	0.07079
1357.77188	0.07042
1355.84323	0.07030
1353.91457	0.07049
1351.98592	0.07104
1350.05727	0.07189
1348.12861	0.07293
1346.19996	0.07409
1344.27131	0.07530
1342.34266	0.07645
1340.41400	0.07736
1338.48535	0.07800
1336.55670	0.07836
1334.62804	0.07840
1332.69939	0.07804
1330.77074	0.07733
1328.84208	0.07648
1326.91343	0.07556
1324.98478	0.07462
1323.05612	0.07378
1321.12747	0.07311
1319.19882	0.07262
1317.27016	0.07223
1315.34151	0.07181
1313.41286	0.07133
1311.48420	0.07086
1309.55555	0.07044
1307.62690	0.07001
1305.69824	0.06955
1303.76959	0.06914
1301.84094	0.06885
1299.91228	0.06867
1297.98363	0.06851
1296.05498	0.06840
1294.12632	0.06849
1292.19767	0.06885
1290.26902	0.06946
1288.34036	0.07023
1286.41171	0.07105
1284.48306	0.07177
1282.55440	0.07235
1280.62575	0.07275
1278.69710	0.07293
1276.76845	0.07293
1274.83979	0.07290
1272.91114	0.07297
1270.98249	0.07308
1269.05383	0.07320
1267.12518	0.07345
1265.19653	0.07394
1263.26787	0.07456
1261.33922	0.07523
1259.41057	0.07602
1257.48191	0.07694
1255.55326	0.07794
1253.62461	0.07904
1251.69595	0.08033
1249.76730	0.08176
1247.83865	0.08319
1245.90999	0.08458
1243.98134	0.08597
1242.05269	0.08735
1240.12403	0.08855
1238.19538	0.08944
1236.26673	0.09006
1234.33807	0.09036
1232.40942	0.09022
1230.48077	0.08963
1228.55211	0.08864
1226.62346	0.08732
1224.69481	0.08574
1222.76615	0.08399
1220.83750	0.08217
1218.90885	0.08044
1216.98019	0.07903
1215.05154	0.07804
1213.12289	0.07744
1211.19423	0.07721
1209.26558	0.07734
1207.33693	0.07773
1205.40828	0.07821
1203.47962	0.07858
1201.55097	0.07851
1199.62232	0.07783
1197.69366	0.07687
1195.76501	0.07566
1193.83636	0.07433
1191.90770	0.07304
1189.97905	0.07181
1188.05040	0.07064
1186.12174	0.06960
1184.19309	0.06872
1182.26444	0.06797
1180.33578	0.06738
1178.40713	0.06696
1176.47848	0.06676
1174.54982	0.06674
1172.62117	0.06676
1170.69252	0.06677
1168.76386	0.06686
1166.83521	0.06704
1164.90656	0.06722
1162.97790	0.06746
1161.04925	0.06765
1159.12060	0.06750
1157.19194	0.06701
1155.26329	0.06638
1153.33464	0.06573
1151.40598	0.06508
1149.47733	0.06441
1147.54868	0.06376
1145.62002	0.06316
1143.69137	0.06255
1141.76272	0.06187
1139.83406	0.06122
1137.90541	0.06079
1135.97676	0.06055
1134.04811	0.06034
1132.11945	0.06008
1130.19080	0.05994
1128.26215	0.05996
1126.33349	0.05997
1124.40484	0.05985
1122.47619	0.05973
1120.54753	0.05977
1118.61888	0.05998
1116.69023	0.06016
1114.76157	0.06020
1112.83292	0.06022
1110.90427	0.06037
1108.97561	0.06067
1107.04696	0.06102
1105.11831	0.06129
1103.18965	0.06157
1101.26100	0.06196
1099.33235	0.06243
1097.40369	0.06297
1095.47504	0.06355
1093.54639	0.06414
1091.61773	0.06485
1089.68908	0.06577
1087.76043	0.06692
1085.83177	0.06819
1083.90312	0.06938
1081.97447	0.07033
1080.04581	0.07088
1078.11716	0.07104
1076.18851	0.07097
1074.25985	0.07074
1072.33120	0.07036
1070.40255	0.06994
1068.47390	0.06961
1066.54524	0.06948
1064.61659	0.06953
1062.68794	0.06951
1060.75928	0.06927
1058.83063	0.06890
1056.90198	0.06852
1054.97332	0.06813
1053.04467	0.06766
1051.11602	0.06710
1049.18736	0.06654
1047.25871	0.06609
1045.33006	0.06576
1043.40140	0.06546
1041.47275	0.06526
1039.54410	0.06526
1037.61544	0.06557
1035.68679	0.06612
1033.75814	0.06671
1031.82948	0.06712
1029.90083	0.06715
1027.97218	0.06680
1026.04352	0.06617
1024.11487	0.06532
1022.18622	0.06442
1020.25756	0.06367
1018.32891	0.06309
1016.40026	0.06264
1014.47160	0.06221
1012.54295	0.06161
1010.61430	0.06083
1008.68564	0.06009
1006.75699	0.05947
1004.82834	0.05879
1002.89968	0.05802
1000.97103	0.05723
999.04238	0.05639
997.11373	0.05548
995.18507	0.05466
993.25642	0.05398
991.32777	0.05336
989.39911	0.05276
987.47046	0.05222
985.54181	0.05167
983.61315	0.05115
981.68450	0.05089
979.75585	0.05088
977.82719	0.05085
975.89854	0.05078
973.96989	0.05079
972.04123	0.05073
970.11258	0.05043
968.18393	0.05001
966.25527	0.04965
964.32662	0.04941
962.39797	0.04924
960.46931	0.04901
958.54066	0.04875
956.61201	0.04859
954.68335	0.04846
952.75470	0.04830
950.82605	0.04813
948.89739	0.04803
946.96874	0.04804
945.04009	0.04813
943.11143	0.04816
941.18278	0.04807
939.25413	0.04800
937.32547	0.04804
935.39682	0.04807
933.46817	0.04794
931.53952	0.04762
929.61086	0.04719
927.68221	0.04682
925.75356	0.04659
923.82490	0.04648
921.89625	0.04630
919.96760	0.04596
918.03894	0.04554
916.11029	0.04502
914.18164	0.04433
912.25298	0.04364
910.32433	0.04321
908.39568	0.04293
906.46702	0.04264
904.53837	0.04248
902.60972	0.04231
900.68106	0.04194
898.75241	0.04152
896.82376	0.04117
894.89510	0.04087
892.96645	0.04060
891.03780	0.04035
889.10914	0.04021
887.18049	0.04027
885.25184	0.04050
883.32318	0.04078
881.39453	0.04096
879.46588	0.04105
877.53722	0.04118
875.60857	0.04134
873.67992	0.04151
871.75126	0.04156
869.82261	0.04137
867.89396	0.04108
865.96530	0.04079
864.03665	0.04050
862.10800	0.04026
860.17935	0.04007
858.25069	0.03992
856.32204	0.03978
854.39339	0.03971
852.46473	0.03966
850.53608	0.03946
848.60743	0.03903
846.67877	0.03853
844.75012	0.03809
842.82147	0.03770
840.89281	0.03738
838.96416	0.03720
837.03551	0.03713
835.10685	0.03701
833.17820	0.03679
831.24955	0.03659
829.32089	0.03648
827.39224	0.03639
825.46359	0.03625
823.53493	0.03605
821.60628	0.03601
819.67763	0.03625
817.74897	0.03656
815.82032	0.03676
813.89167	0.03690
811.96301	0.03701
810.03436	0.03702
808.10571	0.03700
806.17705	0.03706
804.24840	0.03724
802.31975	0.03743
800.39109	0.03751
798.46244	0.03757
796.53379	0.03769
794.60513	0.03779
792.67648	0.03784
790.74783	0.03803
788.81918	0.03835
786.89052	0.03865
784.96187	0.03884
783.03322	0.03898
781.10456	0.03920
779.17591	0.03937
777.24726	0.03934
775.31860	0.03935
773.38995	0.03950
771.46130	0.03967
769.53264	0.03982
767.60399	0.04005
765.67534	0.04030
763.74668	0.04046
761.81803	0.04053
759.88938	0.04069
757.96072	0.04103
756.03207	0.04136
754.10342	0.04150
752.17476	0.04155
750.24611	0.04162
748.31746	0.04178
746.38880	0.04203
744.46015	0.04223
742.53150	0.04246
740.60284	0.04287
738.67419	0.04323
736.74554	0.04334
734.81688	0.04343
732.88823	0.04368
730.95958	0.04407
729.03092	0.04464
727.10227	0.04526
725.17362	0.04570
723.24497	0.04583
721.31631	0.04603
719.38766	0.04618
717.45901	0.04638
715.53035	0.04673
713.60170	0.04707
711.67305	0.04731
709.74439	0.04762
707.81574	0.04801
705.88709	0.04831
703.95843	0.04855
702.02978	0.04881
700.10113	0.04905
698.17247	0.04921
696.24382	0.04933
694.31517	0.04949
692.38651	0.04971
690.45786	0.04995
688.52921	0.05012
686.60055	0.05017
684.67190	0.05014
682.74325	0.05015
680.81459	0.05030
678.88594	0.05053
676.95729	0.05076
675.02863	0.05093
673.09998	0.05102
671.17133	0.05115
669.24267	0.05147
667.31402	0.05166
665.38537	0.05198
663.45671	0.05211
661.52806	0.05218
659.59941	0.05231
657.67075	0.05245
655.74210	0.05255
653.81345	0.05261
651.88480	0.05266
649.95614	0.05277
648.02749	0.05292
646.09884	0.05303
644.17018	0.05304
642.24153	0.05294
640.31288	0.05281
638.38422	0.05284
636.45557	0.05297
634.52692	0.05306
632.59826	0.05320
630.66961	0.05298
628.74096	0.05144
626.81230	0.05274
624.88365	0.05512
622.95500	0.05766
621.02634	0.05919
619.09769	0.05912
617.16904	0.05820
615.24038	0.05686
613.31173	0.05582
611.38308	0.05572
609.45442	0.05607
607.52577	0.05586
605.59712	0.05515
603.66846	0.05511
601.73981	0.05581
599.81116	0.05623
597.88250	0.05618
595.95385	0.05593
594.02520	0.05564
592.09654	0.05548
590.16789	0.05557
588.23924	0.05567
586.31059	0.05563
584.38193	0.05560
582.45328	0.05566
580.52463	0.05579
578.59597	0.05607
576.66732	0.05644
574.73867	0.05679
572.81001	0.05705
570.88136	0.05731
568.95271	0.05772
567.02405	0.05827
565.09540	0.05870
563.16675	0.05888
561.23809	0.05891
559.30944	0.05884
557.38079	0.05882
555.45213	0.05889
553.52348	0.05882
551.59483	0.05860
549.66617	0.05847
547.73752	0.05845
545.80887	0.05848
543.88021	0.05850
541.95156	0.05842
540.02291	0.05829
538.09425	0.05821
536.16560	0.05812
534.23695	0.05808
532.30829	0.05827
530.37964	0.05856
528.45099	0.05867
526.52233	0.05855
524.59368	0.05827
522.66503	0.05793
520.73637	0.05766
518.80772	0.05743
516.87907	0.05715
514.95042	0.05692
513.02176	0.05677
511.09311	0.05646
509.16446	0.05596
507.23580	0.05544
505.30715	0.05497
503.37850	0.05451
501.44984	0.05407
499.52119	0.05363
497.59254	0.05324
495.66388	0.05292
493.73523	0.05252
491.80658	0.05204
489.87792	0.05157
487.94927	0.05108
486.02062	0.05054
484.09196	0.05004
482.16331	0.04967
480.23466	0.04939
478.30600	0.04906
476.37735	0.04870
474.44870	0.04849
472.52004	0.04832
470.59139	0.04794
468.66274	0.04746
466.73408	0.04711
464.80543	0.04687
462.87678	0.04662
460.94812	0.04623
459.01947	0.04571
457.09082	0.04528
455.16216	0.04500
453.23351	0.04466
451.30486	0.04429
449.37620	0.04393
447.44755	0.04346
445.51890	0.04296
443.59025	0.04254
441.66159	0.04216
439.73294	0.04172
437.80429	0.04124
435.87563	0.04090
433.94698	0.04072
432.01833	0.04052
430.08967	0.04025
428.16102	0.03993
426.23237	0.03954
424.30371	0.03916
422.37506	0.03890
420.44641	0.03867
418.51775	0.03845
416.58910	0.03825
414.66045	0.03790
412.73179	0.03742
410.80314	0.03706
408.87449	0.03686
406.94583	0.03673
405.01718	0.03664
403.08853	0.03658
401.15987	0.03648
399.23122	0.03630
