3996.16951	0.06516
3994.24086	0.06456
3992.31221	0.06485
3990.38355	0.06564
3988.45490	0.06615
3986.52625	0.06623
3984.59759	0.06609
3982.66894	0.06592
3980.74029	0.06557
3978.81163	0.06488
3976.88298	0.06412
3974.95433	0.06378
3973.02567	0.06391
3971.09702	0.06402
3969.16837	0.06402
3967.23972	0.06422
3965.31106	0.06441
3963.38241	0.06450
3961.45376	0.06473
3959.52510	0.06458
3957.59645	0.06368
3955.66780	0.06306
3953.73914	0.06357
3951.81049	0.06446
3949.88184	0.06476
3947.95318	0.06437
3946.02453	0.06376
3944.09588	0.06356
3942.16722	0.06386
3940.23857	0.06406
3938.30992	0.06376
3936.38126	0.06336
3934.45261	0.06339
3932.52396	0.06379
3930.59530	0.06396
3928.66665	0.06349
3926.73800	0.06264
3924.80934	0.06208
3922.88069	0.06208
3920.95204	0.06228
3919.02338	0.06245
3917.09473	0.06261
3915.16608	0.06272
3913.23742	0.06290
3911.30877	0.06303
3909.38012	0.06247
3907.45146	0.06141
3905.52281	0.06093
3903.59416	0.06135
3901.66550	0.06191
3899.73685	0.06176
3897.80820	0.06100
3895.87955	0.06049
3893.95089	0.06063
3892.02224	0.06118
3890.09359	0.06195
3888.16493	0.06255
3886.23628	0.06241
3884.30763	0.06154
3882.37897	0.06058
3880.45032	0.06007
3878.52167	0.06002
3876.59301	0.06005
3874.66436	0.05999
3872.73571	0.06009
3870.80705	0.06044
3868.87840	0.06094
3866.94975	0.06130
3865.02109	0.06113
3863.09244	0.06052
3861.16379	0.05988
3859.23513	0.05952
3857.30648	0.05972
3855.37783	0.06026
3853.44917	0.06050
3851.52052	0.06025
3849.59187	0.05987
3847.66321	0.05964
3845.73456	0.05971
3843.80591	0.05991
3841.87725	0.05981
3839.94860	0.05924
3838.01995	0.05841
3836.09129	0.05791
3834.16264	0.05809
3832.23399	0.05847
3830.30534	0.05862
3828.37668	0.05867
3826.44803	0.05863
3824.51938	0.05840
3822.59072	0.05820
3820.66207	0.05813
3818.73342	0.05813
3816.80476	0.05808
3814.87611	0.05791
3812.94746	0.05767
3811.01880	0.05753
3809.09015	0.05750
3807.16150	0.05740
3805.23284	0.05689
3803.30419	0.05624
3801.37554	0.05619
3799.44688	0.05659
3797.51823	0.05695
3795.58958	0.05726
3793.66092	0.05737
3791.73227	0.05722
3789.80362	0.05699
3787.87496	0.05668
3785.94631	0.05637
3784.01766	0.05629
3782.08900	0.05647
3780.16035	0.05647
3778.23170	0.05614
3776.30304	0.05600
3774.37439	0.05605
3772.44574	0.05584
3770.51708	0.05543
3768.58843	0.05533
3766.65978	0.05575
3764.73112	0.05618
3762.80247	0.05598
3760.87382	0.05539
3758.94517	0.05507
3757.01651	0.05506
3755.08786	0.05515
3753.15921	0.05543
3751.23055	0.05562
3749.30190	0.05538
3747.37325	0.05470
3745.44459	0.05379
3743.51594	0.05340
3741.58729	0.05381
3739.65863	0.05429
3737.72998	0.05433
3735.80133	0.05420
3733.87267	0.05433
3731.94402	0.05457
3730.01537	0.05430
3728.08671	0.05372
3726.15806	0.05348
3724.22941	0.05325
3722.30075	0.05298
3720.37210	0.05306
3718.44345	0.05327
3716.51479	0.05331
3714.58614	0.05339
3712.65749	0.05348
3710.72883	0.05345
3708.80018	0.05351
3706.87153	0.05377
3704.94287	0.05379
3703.01422	0.05336
3701.08557	0.05276
3699.15691	0.05190
3697.22826	0.05110
3695.29961	0.05133
3693.37095	0.05248
3691.44230	0.05357
3689.51365	0.05426
3687.58500	0.05430
3685.65634	0.05372
3683.72769	0.05301
3681.79904	0.05259
3679.87038	0.05271
3677.94173	0.05317
3676.01308	0.05337
3674.08442	0.05320
3672.15577	0.05320
3670.22712	0.05351
3668.29846	0.05353
3666.36981	0.05313
3664.44116	0.05318
3662.51250	0.05401
3660.58385	0.05491
3658.65520	0.05536
3656.72654	0.05567
3654.79789	0.05610
3652.86924	0.05646
3650.94058	0.05663
3649.01193	0.05677
3647.08328	0.05689
3645.15462	0.05707
3643.22597	0.05765
3641.29732	0.05861
3639.36866	0.05961
3637.44001	0.06032
3635.51136	0.06061
3633.58270	0.06068
3631.65405	0.06091
3629.72540	0.06148
3627.79674	0.06228
3625.86809	0.06312
3623.93944	0.06400
3622.01079	0.06488
3620.08213	0.06564
3618.15348	0.06632
3616.22483	0.06689
3614.29617	0.06743
3612.36752	0.06813
3610.43887	0.06877
3608.51021	0.06924
3606.58156	0.06972
3604.65291	0.07041
3602.72425	0.07134
3600.79560	0.07221
3598.86695	0.07275
3596.93829	0.07279
3595.00964	0.07275
3593.08099	0.07338
3591.15233	0.07466
3589.22368	0.07597
3587.29503	0.07695
3585.36637	0.07757
3583.43772	0.07805
3581.50907	0.07871
3579.58041	0.07979
3577.65176	0.08121
3575.72311	0.08246
3573.79445	0.08351
3571.86580	0.08447
3569.93715	0.08503
3568.00849	0.08558
3566.07984	0.08706
3564.15119	0.08897
3562.22253	0.08998
3560.29388	0.09036
3558.36523	0.09114
3556.43657	0.09236
3554.50792	0.09355
3552.57927	0.09444
3550.65062	0.09499
3548.72196	0.09553
3546.79331	0.09639
3544.86466	0.09769
3542.93600	0.09929
3541.00735	0.10065
3539.07870	0.10162
3537.15004	0.10261
3535.22139	0.10345
3533.29274	0.10382
3531.36408	0.10421
3529.43543	0.10507
3527.50678	0.10632
3525.57812	0.10769
3523.64947	0.10885
3521.72082	0.10949
3519.79216	0.10990
3517.86351	0.11070
3515.93486	0.11195
3514.00620	0.11317
3512.07755	0.11411
3510.14890	0.11502
3508.22024	0.11613
3506.29159	0.11715
3504.36294	0.11777
3502.43428	0.11826
3500.50563	0.11897
3498.57698	0.11981
3496.64832	0.12084
3494.71967	0.12225
3492.79102	0.12359
3490.86236	0.12429
3488.93371	0.12464
3487.00506	0.12525
3485.07641	0.12623
3483.14775	0.12730
3481.21910	0.12807
3479.29045	0.12836
3477.36179	0.12861
3475.43314	0.12940
3473.50449	0.13063
3471.57583	0.13186
3469.64718	0.13294
3467.71853	0.13384
3465.78987	0.13454
3463.86122	0.13517
3461.93257	0.13581
3460.00391	0.13648
3458.07526	0.13724
3456.14661	0.13808
3454.21795	0.13906
3452.28930	0.14011
3450.36065	0.14092
3448.43199	0.14171
3446.50334	0.14291
3444.57469	0.14399
3442.64603	0.14451
3440.71738	0.14519
3438.78873	0.14636
3436.86007	0.14737
3434.93142	0.14798
3433.00277	0.14861
3431.07411	0.14941
3429.14546	0.15006
3427.21681	0.15085
3425.28815	0.15207
3423.35950	0.15317
3421.43085	0.15382
3419.50219	0.15431
3417.57354	0.15478
3415.64489	0.15537
3413.71624	0.15616
3411.78758	0.15712
3409.85893	0.15841
3407.93028	0.15971
3406.00162	0.16043
3404.07297	0.16076
3402.14432	0.16118
3400.21566	0.16191
3398.28701	0.16271
3396.35836	0.16343
3394.42970	0.16429
3392.50105	0.16510
3390.57240	0.16579
3388.64374	0.16698
3386.71509	0.16866
3384.78644	0.17013
3382.85778	0.17115
3380.92913	0.17204
3379.00048	0.17312
3377.07182	0.17436
3375.14317	0.17552
3373.21452	0.17659
3371.28586	0.17769
3369.35721	0.17888
3367.42856	0.18025
3365.49990	0.18189
3363.57125	0.18387
3361.64260	0.18590
3359.71394	0.18751
3357.78529	0.18889
3355.85664	0.19048
3353.92798	0.19221
3351.99933	0.19409
3350.07068	0.19637
3348.14202	0.19886
3346.21337	0.20107
3344.28472	0.20295
3342.35607	0.20459
3340.42741	0.20594
3338.49876	0.20725
3336.57011	0.20859
3334.64145	0.20959
3332.71280	0.21057
3330.78415	0.21227
3328.85549	0.21436
3326.92684	0.21600
3324.99819	0.21708
3323.06953	0.21794
3321.14088	0.21857
3319.21223	0.21891
3317.28357	0.21921
3315.35492	0.21972
3313.42627	0.22039
3311.49761	0.22120
3309.56896	0.22194
3307.64031	0.22231
3305.71165	0.22235
3303.78300	0.22231
3301.85435	0.22226
3299.92569	0.22230
3297.99704	0.22252
3296.06839	0.22274
3294.13973	0.22283
3292.21108	0.22268
3290.28243	0.22234
3288.35377	0.22220
3286.42512	0.22243
3284.49647	0.22264
3282.56781	0.22224
3280.63916	0.22126
3278.71051	0.22040
3276.78186	0.21985
3274.85320	0.21919
3272.92455	0.21848
3270.99590	0.21808
3269.06724	0.21767
3267.13859	0.21676
3265.20994	0.21557
3263.28128	0.21444
3261.35263	0.21333
3259.42398	0.21216
3257.49532	0.21094
3255.56667	0.20973
3253.63802	0.20862
3251.70936	0.20756
3249.78071	0.20671
3247.85206	0.20622
3245.92340	0.20572
3243.99475	0.20502
3242.06610	0.20429
3240.13744	0.20332
3238.20879	0.20207
3236.28014	0.20104
3234.35148	0.20046
3232.42283	0.19997
3230.49418	0.19921
3228.56552	0.19840
3226.63687	0.19783
3224.70822	0.19734
3222.77956	0.19665
3220.85091	0.19586
3218.92226	0.19529
3216.99360	0.19485
3215.06495	0.19422
3213.13630	0.19352
3211.20764	0.19287
3209.27899	0.19206
3207.35034	0.19126
3205.42169	0.19075
3203.49303	0.19033
3201.56438	0.18962
3199.63573	0.18854
3197.70707	0.18731
3195.77842	0.18616
3193.84977	0.18528
3191.92111	0.18452
3189.99246	0.18365
3188.06381	0.18268
3186.13515	0.18163
3184.20650	0.18045
3182.27785	0.17914
3180.34919	0.17771
3178.42054	0.17629
3176.49189	0.17514
3174.56323	0.17426
3172.63458	0.17336
3170.70593	0.17227
3168.77727	0.17111
3166.84862	0.16996
3164.91997	0.16862
3162.99131	0.16690
3161.06266	0.16526
3159.13401	0.16422
3157.20535	0.16343
3155.27670	0.16229
3153.34805	0.16091
3151.41939	0.15969
3149.49074	0.15852
3147.56209	0.15724
3145.63343	0.15610
3143.70478	0.15520
3141.77613	0.15424
3139.84748	0.15303
3137.91882	0.15185
3135.99017	0.15108
3134.06152	0.15055
3132.13286	0.14987
3130.20421	0.14897
3128.27556	0.14799
3126.34690	0.14722
3124.41825	0.14674
3122.48960	0.14640
3120.56094	0.14628
3118.63229	0.14642
3116.70364	0.14649
3114.77498	0.14618
3112.84633	0.14575
3110.91768	0.14563
3108.98902	0.14580
3107.06037	0.14604
3105.13172	0.14627
3103.20306	0.14639
3101.27441	0.14641
3099.34576	0.14677
3097.41710	0.14755
3095.48845	0.14832
3093.55980	0.14888
3091.63114	0.14945
3089.70249	0.14985
3087.77384	0.14997
3085.84518	0.15017
3083.91653	0.15065
3081.98788	0.15115
3080.05922	0.15149
3078.13057	0.15165
3076.20192	0.15167
3074.27326	0.15152
3072.34461	0.15118
3070.41596	0.15084
3068.48731	0.15067
3066.55865	0.15035
3064.63000	0.14973
3062.70135	0.14920
3060.77269	0.14891
3058.84404	0.14856
3056.91539	0.14793
3054.98673	0.14714
3053.05808	0.14629
3051.12943	0.14545
3049.20077	0.14457
3047.27212	0.14337
3045.34347	0.14195
3043.41481	0.14068
3041.48616	0.13961
3039.55751	0.13867
3037.62885	0.13794
3035.70020	0.13737
3033.77155	0.13660
3031.84289	0.13551
3029.91424	0.13425
3027.98559	0.13302
3026.05693	0.13198
3024.12828	0.13113
3022.19963	0.13029
3020.27097	0.12951
3018.34232	0.12897
3016.41367	0.12861
3014.48501	0.12831
3012.55636	0.12797
3010.62771	0.12756
3008.69905	0.12725
3006.77040	0.12722
3004.84175	0.12741
3002.91309	0.12755
3000.98444	0.12753
2999.05579	0.12750
2997.12714	0.12764
2995.19848	0.12793
2993.26983	0.12822
2991.34118	0.12850
2989.41252	0.12896
2987.48387	0.12976
2985.55522	0.13077
2983.62656	0.13163
2981.69791	0.13229
2979.76926	0.13302
2977.84060	0.13390
2975.91195	0.13488
2973.98330	0.13593
2972.05464	0.13691
2970.12599	0.13787
2968.19734	0.13909
2966.26868	0.14062
2964.34003	0.14223
2962.41138	0.14379
2960.48272	0.14525
2958.55407	0.14661
2956.62542	0.14769
2954.69676	0.14816
2952.76811	0.14802
2950.83946	0.14782
2948.91080	0.14802
2946.98215	0.14869
2945.05350	0.14982
2943.12484	0.15142
2941.19619	0.15343
2939.26754	0.15591
2937.33888	0.15895
2935.41023	0.16208
2933.48158	0.16478
2931.55293	0.16718
2929.62427	0.16961
2927.69562	0.17203
2925.76697	0.17421
2923.83831	0.17572
2921.90966	0.17605
2919.98101	0.17522
2918.05235	0.17342
2916.12370	0.17031
2914.19505	0.16561
2912.26639	0.15988
2910.33774	0.15453
2908.40909	0.15061
2906.48043	0.14773
2904.55178	0.14527
2902.62313	0.14313
2900.69447	0.14127
2898.76582	0.13959
2896.83717	0.13820
2894.90851	0.13706
2892.97986	0.13587
2891.05121	0.13453
2889.12255	0.13329
2887.19390	0.13244
2885.26525	0.13192
2883.33659	0.13144
2881.40794	0.13105
2879.47929	0.13104
2877.55063	0.13134
2875.62198	0.13162
2873.69333	0.13168
2871.76467	0.13139
2869.83602	0.13083
2867.90737	0.13023
2865.97871	0.12964
2864.05006	0.12931
2862.12141	0.12984
2860.19276	0.13130
2858.26410	0.13316
2856.33545	0.13496
2854.40680	0.13661
2852.47814	0.13773
2850.54949	0.13743
2848.62084	0.13494
2846.69218	0.13055
2844.76353	0.12555
2842.83488	0.12104
2840.90622	0.11753
2838.97757	0.11500
2837.04892	0.11307
2835.12026	0.11143
2833.19161	0.11008
2831.26296	0.10911
2829.33430	0.10843
2827.40565	0.10759
2825.47700	0.10646
2823.54834	0.10546
2821.61969	0.10486
2819.69104	0.10454
2817.76238	0.10424
2815.83373	0.10372
2813.90508	0.10299
2811.97642	0.10230
2810.04777	0.10183
2808.11912	0.10140
2806.19046	0.10081
2804.26181	0.10019
2802.33316	0.09968
2800.40450	0.09924
2798.47585	0.09885
2796.54720	0.09847
2794.61855	0.09795
2792.68989	0.09732
2790.76124	0.09683
2788.83259	0.09656
2786.90393	0.09630
2784.97528	0.09579
2783.04663	0.09512
2781.11797	0.09458
2779.18932	0.09409
2777.26067	0.09348
2775.33201	0.09291
2773.40336	0.09250
2771.47471	0.09215
2769.54605	0.09177
2767.61740	0.09139
2765.68875	0.09111
2763.76009	0.09079
2761.83144	0.09039
2759.90279	0.09004
2757.97413	0.08975
2756.04548	0.08951
2754.11683	0.08918
2752.18817	0.08877
2750.25952	0.08855
2748.33087	0.08838
2746.40221	0.08804
2744.47356	0.08769
2742.54491	0.08737
2740.61625	0.08698
2738.68760	0.08658
2736.75895	0.08626
2734.83029	0.08605
2732.90164	0.08582
2730.97299	0.08537
2729.04433	0.08478
2727.11568	0.08432
2725.18703	0.08406
2723.25838	0.08373
2721.32972	0.08334
2719.40107	0.08309
2717.47242	0.08287
2715.54376	0.08256
2713.61511	0.08230
2711.68646	0.08213
2709.75780	0.08203
2707.82915	0.08188
2705.90050	0.08151
2703.97184	0.08097
2702.04319	0.08052
2700.11454	0.08033
2698.18588	0.08024
2696.25723	0.08010
2694.32858	0.07992
2692.39992	0.07970
2690.47127	0.07947
2688.54262	0.07939
2686.61396	0.07948
2684.68531	0.07948
2682.75666	0.07925
2680.82800	0.07893
2678.89935	0.07869
2676.97070	0.07856
2675.04204	0.07847
2673.11339	0.07828
2671.18474	0.07802
2669.25608	0.07785
2667.32743	0.07769
2665.39878	0.07748
2663.47012	0.07734
2661.54147	0.07721
2659.61282	0.07693
2657.68417	0.07654
2655.75551	0.07619
2653.82686	0.07585
2651.89821	0.07543
2649.96955	0.07498
2648.04090	0.07457
2646.11225	0.07417
2644.18359	0.07377
2642.25494	0.07348
2640.32629	0.07326
2638.39763	0.07280
2636.46898	0.07200
2634.54033	0.07119
2632.61167	0.07063
2630.68302	0.07014
2628.75437	0.06974
2626.82571	0.06956
2624.89706	0.06930
2622.96841	0.06877
2621.03975	0.06825
2619.11110	0.06769
2617.18245	0.06688
2615.25379	0.06612
2613.32514	0.06560
2611.39649	0.06520
2609.46783	0.06502
2607.53918	0.06505
2605.61053	0.06495
2603.68187	0.06449
2601.75322	0.06370
2599.82457	0.06303
2597.89591	0.06288
2595.96726	0.06276
2594.03861	0.06221
2592.10995	0.06164
2590.18130	0.06134
2588.25265	0.06121
2586.32400	0.06103
2584.39534	0.06057
2582.46669	0.06011
2580.53804	0.06009
2578.60938	0.06030
2576.68073	0.06032
2574.75208	0.05986
2572.82342	0.05887
2570.89477	0.05792
2568.96612	0.05749
2567.03746	0.05758
2565.10881	0.05811
2563.18016	0.05845
2561.25150	0.05792
2559.32285	0.05687
2557.39420	0.05614
2555.46554	0.05601
2553.53689	0.05619
2551.60824	0.05639
2549.67958	0.05640
2547.75093	0.05617
2545.82228	0.05577
2543.89362	0.05525
2541.96497	0.05486
2540.03632	0.05481
2538.10766	0.05486
2536.17901	0.05464
2534.25036	0.05413
2532.32170	0.05388
2530.39305	0.05405
2528.46440	0.05408
2526.53574	0.05373
2524.60709	0.05337
2522.67844	0.05316
2520.74978	0.05284
2518.82113	0.05231
2516.89248	0.05191
2514.96383	0.05175
2513.03517	0.05167
2511.10652	0.05182
2509.17787	0.05232
2507.24921	0.05263
2505.32056	0.05244
2503.39191	0.05223
2501.46325	0.05211
2499.53460	0.05188
2497.60595	0.05167
2495.67729	0.05153
2493.74864	0.05139
2491.81999	0.05116
2489.89133	0.05059
2487.96268	0.04997
2486.03403	0.04982
2484.10537	0.05003
2482.17672	0.05013
2480.24807	0.04981
2478.31941	0.04939
2476.39076	0.04930
2474.46211	0.04937
2472.53345	0.04946
2470.60480	0.04961
2468.67615	0.04966
2466.74749	0.04948
2464.81884	0.04927
2462.89019	0.04927
2460.96153	0.04934
2459.03288	0.04925
2457.10423	0.04904
2455.17557	0.04874
2453.24692	0.04840
2451.31827	0.04824
2449.38962	0.04831
2447.46096	0.04834
2445.53231	0.04822
2443.60366	0.04802
2441.67500	0.04775
2439.74635	0.04758
2437.81770	0.04764
2435.88904	0.04781
2433.96039	0.04786
2432.03174	0.04769
2430.10308	0.04739
2428.17443	0.04715
2426.24578	0.04710
2424.31712	0.04705
2422.38847	0.04686
2420.45982	0.04668
2418.53116	0.04669
2416.60251	0.04684
2414.67386	0.04683
2412.74520	0.04660
2410.81655	0.04647
2408.88790	0.04651
2406.95924	0.04656
2405.03059	0.04664
2403.10194	0.04671
2401.17328	0.04680
2399.24463	0.04676
2397.31598	0.04668
2395.38732	0.04660
2393.45867	0.04682
2391.53002	0.04728
2389.60136	0.04766
2387.67271	0.04774
2385.74406	0.04756
2383.81540	0.04737
2381.88675	0.04734
2379.95810	0.04746
2378.02945	0.04764
2376.10079	0.04785
2374.17214	0.04798
2372.24349	0.04787
2370.31483	0.04746
2368.38618	0.04772
2366.45753	0.04793
2364.52887	0.04815
2362.60022	0.04795
2360.67157	0.04832
2358.74291	0.04774
2356.81426	0.04811
2354.88561	0.04810
2352.95695	0.04830
2351.02830	0.04874
2349.09965	0.04874
2347.17099	0.04873
2345.24234	0.04887
2343.31369	0.04881
2341.38503	0.04836
2339.45638	0.04808
2337.52773	0.04794
2335.59907	0.04782
2333.67042	0.04756
2331.74177	0.04728
2329.81311	0.04725
2327.88446	0.04759
2325.95581	0.04810
2324.02715	0.04841
2322.09850	0.04808
2320.16985	0.04741
2318.24119	0.04669
2316.31254	0.04608
2314.38389	0.04559
2312.45524	0.04500
2310.52658	0.04432
2308.59793	0.04368
2306.66928	0.04304
2304.74062	0.04236
2302.81197	0.04180
2300.88332	0.04151
2298.95466	0.04139
2297.02601	0.04106
2295.09736	0.04048
2293.16870	0.03994
2291.24005	0.03955
2289.31140	0.03914
2287.38274	0.03867
2285.45409	0.03827
2283.52544	0.03785
2281.59678	0.03731
2279.66813	0.03693
2277.73948	0.03666
2275.81082	0.03604
2273.88217	0.03525
2271.95352	0.03474
2270.02486	0.03430
2268.09621	0.03364
2266.16756	0.03286
2264.23890	0.03212
2262.31025	0.03147
2260.38160	0.03109
2258.45294	0.03095
2256.52429	0.03068
2254.59564	0.03035
2252.66698	0.03024
2250.73833	0.03017
2248.80968	0.03016
2246.88102	0.02979
2244.95237	0.02969
2243.02372	0.02960
2241.09507	0.02930
2239.16641	0.02880
2237.23776	0.02799
2235.30911	0.02703
2233.38045	0.02630
2231.45180	0.02586
2229.52315	0.02588
2227.59449	0.02639
2225.66584	0.02670
2223.73719	0.02636
2221.80853	0.02566
2219.87988	0.02479
2217.95123	0.02383
2216.02257	0.02313
2214.09392	0.02301
2212.16527	0.02335
2210.23661	0.02366
2208.30796	0.02360
2206.37931	0.02313
2204.45065	0.02245
2202.52200	0.02175
2200.59335	0.02109
2198.66469	0.02079
2196.73604	0.02110
2194.80739	0.02157
2192.87873	0.02166
2190.95008	0.02118
2189.02143	0.02012
2187.09277	0.01908
2185.16412	0.01855
2183.23547	0.01833
2181.30681	0.01859
2179.37816	0.01910
2177.44951	0.01886
2175.52085	0.01819
2173.59220	0.01824
2171.66355	0.01858
2169.73490	0.01840
2167.80624	0.01757
2165.87759	0.01594
2163.94894	0.01408
2162.02028	0.01259
2160.09163	0.01122
2158.16298	0.01075
2156.23432	0.01199
2154.30567	0.01392
2152.37702	0.01557
2150.44836	0.01690
2148.51971	0.01772
2146.59106	0.01787
2144.66240	0.01787
2142.73375	0.01802
2140.80510	0.01818
2138.87644	0.01856
2136.94779	0.01928
2135.01914	0.01999
2133.09048	0.02089
2131.16183	0.02221
2129.23318	0.02343
2127.30452	0.02406
2125.37587	0.02433
2123.44722	0.02475
2121.51856	0.02528
2119.58991	0.02558
2117.66126	0.02580
2115.73260	0.02590
2113.80395	0.02545
2111.87530	0.02477
2109.94664	0.02463
2108.01799	0.02496
2106.08934	0.02517
2104.16069	0.02503
2102.23203	0.02481
2100.30338	0.02464
2098.37473	0.02447
2096.44607	0.02431
2094.51742	0.02429
2092.58877	0.02442
2090.66011	0.02451
2088.73146	0.02428
2086.80281	0.02378
2084.87415	0.02348
2082.94550	0.02334
2081.01685	0.02317
2079.08819	0.02336
2077.15954	0.02374
2075.23089	0.02357
2073.30223	0.02287
2071.37358	0.02211
2069.44493	0.02166
2067.51627	0.02154
2065.58762	0.02134
2063.65897	0.02079
2061.73031	0.02000
2059.80166	0.01926
2057.87301	0.01897
2055.94435	0.01901
2054.01570	0.01894
2052.08705	0.01854
2050.15839	0.01764
2048.22974	0.01636
2046.30109	0.01502
2044.37243	0.01407
2042.44378	0.01384
2040.51513	0.01383
2038.58647	0.01323
2036.65782	0.01233
2034.72917	0.01198
2032.80052	0.01221
2030.87186	0.01222
2028.94321	0.01177
2027.01456	0.01134
2025.08590	0.01146
2023.15725	0.01204
2021.22860	0.01237
2019.29994	0.01224
2017.37129	0.01231
2015.44264	0.01277
2013.51398	0.01312
2011.58533	0.01314
2009.65668	0.01289
2007.72802	0.01256
2005.79937	0.01241
2003.87072	0.01275
2001.94206	0.01371
2000.01341	0.01453
1998.08476	0.01443
1996.15610	0.01404
1994.22745	0.01417
1992.29880	0.01451
1990.37014	0.01486
1988.44149	0.01530
1986.51284	0.01556
1984.58418	0.01550
1982.65553	0.01522
1980.72688	0.01443
1978.79822	0.01329
1976.86957	0.01251
1974.94092	0.01227
1973.01226	0.01239
1971.08361	0.01275
1969.15496	0.01318
1967.22631	0.01345
1965.29765	0.01351
1963.36900	0.01374
1961.44035	0.01432
1959.51169	0.01479
1957.58304	0.01495
1955.65439	0.01522
1953.72573	0.01588
1951.79708	0.01658
1949.86843	0.01694
1947.93977	0.01706
1946.01112	0.01745
1944.08247	0.01826
1942.15381	0.01902
1940.22516	0.01936
1938.29651	0.01939
1936.36785	0.01945
1934.43920	0.01966
1932.51055	0.01976
1930.58189	0.01967
1928.65324	0.01963
1926.72459	0.01964
1924.79593	0.01969
1922.86728	0.01978
1920.93863	0.01988
1919.00997	0.02004
1917.08132	0.02019
1915.15267	0.02019
1913.22401	0.02035
1911.29536	0.02098
1909.36671	0.02171
1907.43805	0.02204
1905.50940	0.02196
1903.58075	0.02183
1901.65209	0.02167
1899.72344	0.02139
1897.79479	0.02133
1895.86614	0.02166
1893.93748	0.02204
1892.00883	0.02223
1890.08018	0.02220
1888.15152	0.02207
1886.22287	0.02196
1884.29422	0.02205
1882.36556	0.02229
1880.43691	0.02241
1878.50826	0.02232
1876.57960	0.02222
1874.65095	0.02226
1872.72230	0.02234
1870.79364	0.02250
1868.86499	0.02271
1866.93634	0.02275
1865.00768	0.02260
1863.07903	0.02248
1861.15038	0.02256
1859.22172	0.02268
1857.29307	0.02260
1855.36442	0.02239
1853.43576	0.02234
1851.50711	0.02248
1849.57846	0.02257
1847.64980	0.02258
1845.72115	0.02265
1843.79250	0.02282
1841.86384	0.02299
1839.93519	0.02302
1838.00654	0.02291
1836.07788	0.02279
1834.14923	0.02276
1832.22058	0.02278
1830.29192	0.02284
1828.36327	0.02298
1826.43462	0.02316
1824.50597	0.02328
1822.57731	0.02323
1820.64866	0.02304
1818.72001	0.02292
1816.79135	0.02303
1814.86270	0.02323
1812.93405	0.02335
1811.00539	0.02342
1809.07674	0.02343
1807.14809	0.02339
1805.21943	0.02348
1803.29078	0.02367
1801.36213	0.02372
1799.43347	0.02365
1797.50482	0.02368
1795.57617	0.02384
1793.64751	0.02400
1791.71886	0.02407
1789.79021	0.02405
1787.86155	0.02401
1785.93290	0.02394
1784.00425	0.02387
1782.07559	0.02377
1780.14694	0.02367
1778.21829	0.02369
1776.28963	0.02387
1774.36098	0.02414
1772.43233	0.02428
1770.50367	0.02427
1768.57502	0.02430
1766.64637	0.02443
1764.71771	0.02459
1762.78906	0.02484
1760.86041	0.02521
1758.93176	0.02559
1757.00310	0.02596
1755.07445	0.02647
1753.14580	0.02716
1751.21714	0.02799
1749.28849	0.02892
1747.35984	0.02989
1745.43118	0.03089
1743.50253	0.03201
1741.57388	0.03329
1739.64522	0.03460
1737.71657	0.03577
1735.78792	0.03692
1733.85926	0.03818
1731.93061	0.03945
1730.00196	0.04064
1728.07330	0.04191
1726.14465	0.04330
1724.21600	0.04476
1722.28734	0.04635
1720.35869	0.04818
1718.43004	0.05027
1716.50138	0.05253
1714.57273	0.05484
1712.64408	0.05715
1710.71542	0.05943
1708.78677	0.06156
1706.85812	0.06361
1704.92946	0.06584
1703.00081	0.06840
1701.07216	0.07143
1699.14350	0.07496
1697.21485	0.07883
1695.28620	0.08303
1693.35754	0.08752
1691.42889	0.09220
1689.50024	0.09709
1687.57159	0.10230
1685.64293	0.10799
1683.71428	0.11418
1681.78563	0.12067
1679.85697	0.12753
1677.92832	0.13509
1675.99967	0.14339
1674.07101	0.15204
1672.14236	0.16076
1670.21371	0.16965
1668.28505	0.17873
1666.35640	0.18770
1664.42775	0.19635
1662.49909	0.20466
1660.57044	0.21243
1658.64179	0.21938
1656.71313	0.22535
1654.78448	0.23051
1652.85583	0.23506
1650.92717	0.23884
1648.99852	0.24182
1647.06987	0.24447
1645.14121	0.24701
1643.21256	0.24923
1641.28391	0.25113
1639.35525	0.25295
1637.42660	0.25476
1635.49795	0.25647
1633.56929	0.25773
1631.64064	0.25806
1629.71199	0.25710
1627.78333	0.25468
1625.85468	0.25071
1623.92603	0.24514
1621.99738	0.23820
1620.06872	0.23033
1618.14007	0.22188
1616.21142	0.21296
1614.28276	0.20364
1612.35411	0.19416
1610.42546	0.18479
1608.49680	0.17569
1606.56815	0.16694
1604.63950	0.15864
1602.71084	0.15090
1600.78219	0.14379
1598.85354	0.13734
1596.92488	0.13158
1594.99623	0.12657
1593.06758	0.12231
1591.13892	0.11877
1589.21027	0.11587
1587.28162	0.11363
1585.35296	0.11214
1583.42431	0.11147
1581.49566	0.11167
1579.56700	0.11270
1577.63835	0.11455
1575.70970	0.11725
1573.78104	0.12066
1571.85239	0.12461
1569.92374	0.12917
1567.99508	0.13433
1566.06643	0.13988
1564.13778	0.14559
1562.20912	0.15134
1560.28047	0.15720
1558.35182	0.16302
1556.42316	0.16836
1554.49451	0.17301
1552.56586	0.17709
1550.63721	0.18068
1548.70855	0.18372
1546.77990	0.18609
1544.85125	0.18773
1542.92259	0.18869
1540.99394	0.18913
1539.06529	0.18905
1537.13663	0.18834
1535.20798	0.18703
1533.27933	0.18537
1531.35067	0.18348
1529.42202	0.18127
1527.49337	0.17865
1525.56471	0.17580
1523.63606	0.17286
1521.70741	0.16982
1519.77875	0.16660
1517.85010	0.16305
1515.92145	0.15896
1513.99279	0.15439
1512.06414	0.14945
1510.13549	0.14423
1508.20683	0.13883
1506.27818	0.13331
1504.34953	0.12777
1502.42087	0.12237
1500.49222	0.11729
1498.56357	0.11256
1496.63491	0.10812
1494.70626	0.10387
1492.77761	0.09993
1490.84895	0.09645
1488.92030	0.09354
1486.99165	0.09133
1485.06299	0.08996
1483.13434	0.08940
1481.20569	0.08952
1479.27704	0.09031
1477.34838	0.09184
1475.41973	0.09420
1473.49108	0.09740
1471.56242	0.10117
1469.63377	0.10513
1467.70512	0.10901
1465.77646	0.11267
1463.84781	0.11605
1461.91916	0.11920
1459.99050	0.12234
1458.06185	0.12563
1456.13320	0.12870
1454.20454	0.13089
1452.27589	0.13205
1450.34724	0.13242
1448.41858	0.13220
1446.48993	0.13141
1444.56128	0.13004
1442.63262	0.12827
1440.70397	0.12625
1438.77532	0.12397
1436.84666	0.12142
1434.91801	0.11868
1432.98936	0.11593
1431.06070	0.11340
1429.13205	0.11124
1427.20340	0.10952
1425.27474	0.10826
1423.34609	0.10745
1421.41744	0.10699
1419.48878	0.10682
1417.56013	0.10689
1415.63148	0.10717
1413.70283	0.10757
1411.77417	0.10794
1409.84552	0.10815
1407.91687	0.10809
1405.98821	0.10772
1404.05956	0.10696
1402.13091	0.10577
1400.20225	0.10429
1398.27360	0.10272
1396.34495	0.10116
1394.41629	0.09977
1392.48764	0.09870
1390.55899	0.09799
1388.63033	0.09759
1386.70168	0.09732
1384.77303	0.09707
1382.84437	0.09684
1380.91572	0.09658
1378.98707	0.09627
1377.05841	0.09578
1375.12976	0.09498
1373.20111	0.09401
1371.27245	0.09298
1369.34380	0.09179
1367.41515	0.09036
1365.48649	0.08885
1363.55784	0.08756
1361.62919	0.08666
1359.70053	0.08615
1357.77188	0.08605
1355.84323	0.08641
1353.91457	0.08727
1351.98592	0.08857
1350.05727	0.09020
1348.12861	0.09202
1346.19996	0.09393
1344.27131	0.09579
1342.34266	0.09749
1340.41400	0.09882
1338.48535	0.09961
1336.55670	0.09986
1334.62804	0.09959
1332.69939	0.09880
1330.77074	0.09755
1328.84208	0.09603
1326.91343	0.09441
1324.98478	0.09287
1323.05612	0.09155
1321.12747	0.09057
1319.19882	0.08990
1317.27016	0.08934
1315.34151	0.08888
1313.41286	0.08856
1311.48420	0.08830
1309.55555	0.08797
1307.62690	0.08759
1305.69824	0.08729
1303.76959	0.08716
1301.84094	0.08717
1299.91228	0.08725
1297.98363	0.08736
1296.05498	0.08762
1294.12632	0.08813
1292.19767	0.08897
1290.26902	0.09008
1288.34036	0.09134
1286.41171	0.09258
1284.48306	0.09365
1282.55440	0.09451
1280.62575	0.09517
1278.69710	0.09560
1276.76845	0.09574
1274.83979	0.09576
1272.91114	0.09589
1270.98249	0.09617
1269.05383	0.09653
1267.12518	0.09706
1265.19653	0.09781
1263.26787	0.09875
1261.33922	0.09982
1259.41057	0.10105
1257.48191	0.10243
1255.55326	0.10395
1253.62461	0.10571
1251.69595	0.10775
1249.76730	0.10992
1247.83865	0.11206
1245.90999	0.11414
1243.98134	0.11620
1242.05269	0.11820
1240.12403	0.11990
1238.19538	0.12106
1236.26673	0.12160
1234.33807	0.12156
1232.40942	0.12095
1230.48077	0.11977
1228.55211	0.11806
1226.62346	0.11589
1224.69481	0.11338
1222.76615	0.11068
1220.83750	0.10803
1218.90885	0.10568
1216.98019	0.10384
1215.05154	0.10262
1213.12289	0.10202
1211.19423	0.10200
1209.26558	0.10240
1207.33693	0.10297
1205.40828	0.10347
1203.47962	0.10368
1201.55097	0.10333
1199.62232	0.10228
1197.69366	0.10076
1195.76501	0.09901
1193.83636	0.09724
1191.90770	0.09557
1189.97905	0.09404
1188.05040	0.09265
1186.12174	0.09148
1184.19309	0.09056
1182.26444	0.08981
1180.33578	0.08920
1178.40713	0.08878
1176.47848	0.08857
1174.54982	0.08858
1172.62117	0.08868
1170.69252	0.08878
1168.76386	0.08895
1166.83521	0.08923
1164.90656	0.08945
1162.97790	0.08957
1161.04925	0.08955
1159.12060	0.08925
1157.19194	0.08863
1155.26329	0.08777
1153.33464	0.08674
1151.40598	0.08572
1149.47733	0.08470
1147.54868	0.08365
1145.62002	0.08270
1143.69137	0.08186
1141.76272	0.08105
1139.83406	0.08039
1137.90541	0.08002
1135.97676	0.07983
1134.04811	0.07962
1132.11945	0.07939
1130.19080	0.07930
1128.26215	0.07932
1126.33349	0.07929
1124.40484	0.07919
1122.47619	0.07915
1120.54753	0.07926
1118.61888	0.07943
1116.69023	0.07955
1114.76157	0.07957
1112.83292	0.07958
1110.90427	0.07985
1108.97561	0.08047
1107.04696	0.08116
1105.11831	0.08166
1103.18965	0.08213
1101.26100	0.08273
1099.33235	0.08343
1097.40369	0.08414
1095.47504	0.08494
1093.54639	0.08589
1091.61773	0.08709
1089.68908	0.08861
1087.76043	0.09036
1085.83177	0.09215
1083.90312	0.09380
1081.97447	0.09508
1080.04581	0.09573
1078.11716	0.09565
1076.18851	0.09506
1074.25985	0.09431
1072.33120	0.09364
1070.40255	0.09305
1068.47390	0.09246
1066.54524	0.09201
1064.61659	0.09177
1062.68794	0.09148
1060.75928	0.09091
1058.83063	0.09014
1056.90198	0.08932
1054.97332	0.08846
1053.04467	0.08756
1051.11602	0.08670
1049.18736	0.08596
1047.25871	0.08534
1045.33006	0.08479
1043.40140	0.08436
1041.47275	0.08411
1039.54410	0.08413
1037.61544	0.08450
1035.68679	0.08510
1033.75814	0.08564
1031.82948	0.08584
1029.90083	0.08550
1027.97218	0.08462
1026.04352	0.08337
1024.11487	0.08195
1022.18622	0.08059
1020.25756	0.07947
1018.32891	0.07858
1016.40026	0.07778
1014.47160	0.07699
1012.54295	0.07614
1010.61430	0.07523
1008.68564	0.07429
1006.75699	0.07334
1004.82834	0.07239
1002.89968	0.07138
1000.97103	0.07036
999.04238	0.06937
997.11373	0.06839
995.18507	0.06743
993.25642	0.06648
991.32777	0.06554
989.39911	0.06469
987.47046	0.06401
985.54181	0.06340
983.61315	0.06277
981.68450	0.06235
979.75585	0.06233
977.82719	0.06248
975.89854	0.06261
973.96989	0.06269
972.04123	0.06265
970.11258	0.06234
968.18393	0.06188
966.25527	0.06157
964.32662	0.06147
962.39797	0.06141
960.46931	0.06122
958.54066	0.06094
956.61201	0.06076
954.68335	0.06077
952.75470	0.06083
950.82605	0.06084
948.89739	0.06089
946.96874	0.06101
945.04009	0.06119
943.11143	0.06140
941.18278	0.06156
939.25413	0.06160
937.32547	0.06147
935.39682	0.06113
933.46817	0.06070
931.53952	0.06019
929.61086	0.05955
927.68221	0.05890
925.75356	0.05842
923.82490	0.05808
921.89625	0.05766
919.96760	0.05704
918.03894	0.05633
916.11029	0.05562
914.18164	0.05482
912.25298	0.05395
910.32433	0.05329
908.39568	0.05292
906.46702	0.05260
904.53837	0.05214
902.60972	0.05153
900.68106	0.05091
898.75241	0.05047
896.82376	0.05024
894.89510	0.05003
892.96645	0.04966
891.03780	0.04929
889.10914	0.04914
887.18049	0.04917
885.25184	0.04934
883.32318	0.04976
881.39453	0.05023
879.46588	0.05040
877.53722	0.05040
875.60857	0.05048
873.67992	0.05057
871.75126	0.05045
869.82261	0.05012
867.89396	0.04974
865.96530	0.04932
864.03665	0.04884
862.10800	0.04848
860.17935	0.04828
858.25069	0.04810
856.32204	0.04788
854.39339	0.04765
852.46473	0.04735
850.53608	0.04694
848.60743	0.04637
846.67877	0.04571
844.75012	0.04509
842.82147	0.04463
840.89281	0.04423
838.96416	0.04382
837.03551	0.04357
835.10685	0.04344
833.17820	0.04331
831.24955	0.04321
829.32089	0.04318
827.39224	0.04311
825.46359	0.04298
823.53493	0.04296
821.60628	0.04327
819.67763	0.04373
817.74897	0.04395
815.82032	0.04395
813.89167	0.04403
811.96301	0.04424
810.03436	0.04440
808.10571	0.04448
806.17705	0.04458
804.24840	0.04476
802.31975	0.04503
800.39109	0.04525
798.46244	0.04531
796.53379	0.04535
794.60513	0.04550
792.67648	0.04581
790.74783	0.04620
788.81918	0.04651
786.89052	0.04671
784.96187	0.04698
783.03322	0.04730
781.10456	0.04751
779.17591	0.04766
777.24726	0.04778
775.31860	0.04790
773.38995	0.04801
771.46130	0.04805
769.53264	0.04817
767.60399	0.04850
765.67534	0.04893
763.74668	0.04923
761.81803	0.04943
759.88938	0.04968
757.96072	0.05003
756.03207	0.05047
754.10342	0.05089
752.17476	0.05124
750.24611	0.05155
748.31746	0.05193
746.38880	0.05239
744.46015	0.05276
742.53150	0.05299
740.60284	0.05336
738.67419	0.05386
736.74554	0.05422
734.81688	0.05464
732.88823	0.05532
730.95958	0.05596
729.03092	0.05657
727.10227	0.05734
725.17362	0.05813
723.24497	0.05849
721.31631	0.05905
719.38766	0.05946
717.45901	0.05972
715.53035	0.05998
713.60170	0.06024
711.67305	0.06052
709.74439	0.06091
707.81574	0.06136
705.88709	0.06171
703.95843	0.06200
702.02978	0.06230
700.10113	0.06259
698.17247	0.06284
696.24382	0.06309
694.31517	0.06338
692.38651	0.06367
690.45786	0.06391
688.52921	0.06416
686.60055	0.06437
684.67190	0.06444
682.74325	0.06456
680.81459	0.06487
678.88594	0.06526
676.95729	0.06557
675.02863	0.06578
673.09998	0.06595
671.17133	0.06612
669.24267	0.06642
667.31402	0.06686
665.38537	0.06733
663.45671	0.06769
661.52806	0.06795
659.59941	0.06816
657.67075	0.06828
655.74210	0.06834
653.81345	0.06840
651.88480	0.06854
649.95614	0.06882
648.02749	0.06917
646.09884	0.06937
644.17018	0.06935
642.24153	0.06931
640.31288	0.06939
638.38422	0.06951
636.45557	0.06956
634.52692	0.06958
632.59826	0.06958
630.66961	0.06932
628.74096	0.06858
626.81230	0.06882
624.88365	0.06937
622.95500	0.06979
621.02634	0.06962
619.09769	0.06860
617.16904	0.06840
615.24038	0.06966
613.31173	0.07089
611.38308	0.07189
609.45442	0.07274
607.52577	0.07223
605.59712	0.07078
603.66846	0.06965
601.73981	0.06914
599.81116	0.06937
597.88250	0.07028
595.95385	0.07116
594.02520	0.07142
592.09654	0.07125
590.16789	0.07124
588.23924	0.07149
586.31059	0.07176
584.38193	0.07196
582.45328	0.07201
580.52463	0.07189
578.59597	0.07183
576.66732	0.07199
574.73867	0.07236
572.81001	0.07276
570.88136	0.07288
568.95271	0.07284
567.02405	0.07302
565.09540	0.07347
563.16675	0.07406
561.23809	0.07454
559.30944	0.07474
557.38079	0.07486
555.45213	0.07484
553.52348	0.07448
551.59483	0.07423
549.66617	0.07443
547.73752	0.07470
545.80887	0.07485
543.88021	0.07494
541.95156	0.07485
540.02291	0.07466
538.09425	0.07472
536.16560	0.07504
534.23695	0.07531
532.30829	0.07557
530.37964	0.07593
528.45099	0.07609
526.52233	0.07584
524.59368	0.07543
522.66503	0.07522
520.73637	0.07507
518.80772	0.07471
516.87907	0.07421
514.95042	0.07377
513.02176	0.07349
511.09311	0.07319
509.16446	0.07273
507.23580	0.07221
505.30715	0.07162
503.37850	0.07092
501.44984	0.07015
499.52119	0.06935
497.59254	0.06853
495.66388	0.06786
493.73523	0.06733
491.80658	0.06673
489.87792	0.06605
487.94927	0.06545
486.02062	0.06501
484.09196	0.06465
482.16331	0.06422
480.23466	0.06378
478.30600	0.06341
476.37735	0.06317
474.44870	0.06302
472.52004	0.06276
470.59139	0.06233
468.66274	0.06193
466.73408	0.06153
464.80543	0.06103
462.87678	0.06046
460.94812	0.05982
459.01947	0.05906
457.09082	0.05835
455.16216	0.05779
453.23351	0.05733
451.30486	0.05682
449.37620	0.05611
447.44755	0.05525
445.51890	0.05452
443.59025	0.05401
441.66159	0.05354
439.73294	0.05305
437.80429	0.05266
435.87563	0.05243
433.94698	0.05229
432.01833	0.05208
430.08967	0.05176
428.16102	0.05138
426.23237	0.05093
424.30371	0.05045
422.37506	0.05001
420.44641	0.04966
418.51775	0.04940
416.58910	0.04911
414.66045	0.04865
412.73179	0.04812
410.80314	0.04767
408.87449	0.04729
406.94583	0.04697
405.01718	0.04680
403.08853	0.04677
401.15987	0.04663
399.23122	0.04631
