3997.45528	0.05803
3996.16951	0.05833
3994.88374	0.05844
3993.59798	0.05836
3992.31221	0.05830
3991.02644	0.05845
3989.74067	0.05871
3988.45490	0.05887
3987.16913	0.05872
3985.88336	0.05824
3984.59759	0.05762
3983.31183	0.05720
3982.02606	0.05722
3980.74029	0.05754
3979.45452	0.05778
3978.16875	0.05769
3976.88298	0.05740
3975.59721	0.05719
3974.31144	0.05720
3973.02567	0.05737
3971.73991	0.05761
3970.45414	0.05794
3969.16837	0.05847
3967.88260	0.05921
3966.59683	0.05997
3965.31106	0.06040
3964.02529	0.06013
3962.73952	0.05913
3961.45376	0.05774
3960.16799	0.05650
3958.88222	0.05585
3957.59645	0.05584
3956.31068	0.05616
3955.02491	0.05639
3953.73914	0.05637
3952.45337	0.05628
3951.16760	0.05630
3949.88184	0.05634
3948.59607	0.05611
3947.31030	0.05559
3946.02453	0.05515
3944.73876	0.05513
3943.45299	0.05543
3942.16722	0.05572
3940.88145	0.05604
3939.59569	0.05665
3938.30992	0.05750
3937.02415	0.05811
3935.73838	0.05816
3934.45261	0.05776
3933.16684	0.05719
3931.88107	0.05662
3930.59530	0.05616
3929.30953	0.05590
3928.02377	0.05585
3926.73800	0.05598
3925.45223	0.05619
3924.16646	0.05629
3922.88069	0.05615
3921.59492	0.05578
3920.30915	0.05537
3919.02338	0.05502
3917.73762	0.05470
3916.45185	0.05428
3915.16608	0.05386
3913.88031	0.05357
3912.59454	0.05343
3911.30877	0.05330
3910.02300	0.05309
3908.73723	0.05285
3907.45146	0.05271
3906.16570	0.05280
3904.87993	0.05310
3903.59416	0.05347
3902.30839	0.05379
3901.02262	0.05406
3899.73685	0.05421
3898.45108	0.05405
3897.16531	0.05354
3895.87955	0.05284
3894.59378	0.05221
3893.30801	0.05190
3892.02224	0.05193
3890.73647	0.05209
3889.45070	0.05234
3888.16493	0.05288
3886.87916	0.05355
3885.59339	0.05391
3884.30763	0.05392
3883.02186	0.05400
3881.73609	0.05426
3880.45032	0.05429
3879.16455	0.05390
3877.87878	0.05353
3876.59301	0.05360
3875.30724	0.05391
3874.02148	0.05407
3872.73571	0.05418
3871.44994	0.05461
3870.16417	0.05521
3868.87840	0.05544
3867.59263	0.05525
3866.30686	0.05492
3865.02109	0.05455
3863.73532	0.05424
3862.44956	0.05417
3861.16379	0.05425
3859.87802	0.05401
3858.59225	0.05329
3857.30648	0.05258
3856.02071	0.05256
3854.73494	0.05316
3853.44917	0.05351
3852.16341	0.05319
3850.87764	0.05267
3849.59187	0.05243
3848.30610	0.05236
3847.02033	0.05221
3845.73456	0.05196
3844.44879	0.05172
3843.16302	0.05158
3841.87725	0.05155
3840.59149	0.05175
3839.30572	0.05215
3838.01995	0.05241
3836.73418	0.05221
3835.44841	0.05184
3834.16264	0.05181
3832.87687	0.05224
3831.59110	0.05273
3830.30534	0.05287
3829.01957	0.05263
3827.73380	0.05219
3826.44803	0.05165
3825.16226	0.05125
3823.87649	0.05139
3822.59072	0.05208
3821.30495	0.05260
3820.01918	0.05238
3818.73342	0.05181
3817.44765	0.05144
3816.16188	0.05105
3814.87611	0.05032
3813.59034	0.04971
3812.30457	0.04973
3811.01880	0.05020
3809.73303	0.05077
3808.44726	0.05127
3807.16150	0.05131
3805.87573	0.05076
3804.58996	0.05028
3803.30419	0.05058
3802.01842	0.05133
3800.73265	0.05159
3799.44688	0.05121
3798.16111	0.05070
3796.87535	0.05019
3795.58958	0.04955
3794.30381	0.04907
3793.01804	0.04911
3791.73227	0.04957
3790.44650	0.05003
3789.16073	0.05028
3787.87496	0.05037
3786.58919	0.05043
3785.30343	0.05042
3784.01766	0.05031
3782.73189	0.05026
3781.44612	0.05050
3780.16035	0.05101
3778.87458	0.05141
3777.58881	0.05138
3776.30304	0.05094
3775.01728	0.05033
3773.73151	0.04982
3772.44574	0.04961
3771.15997	0.04967
3769.87420	0.04975
3768.58843	0.04976
3767.30266	0.04988
3766.01689	0.05015
3764.73112	0.05036
3763.44536	0.05035
3762.15959	0.05015
3760.87382	0.04973
3759.58805	0.04905
3758.30228	0.04819
3757.01651	0.04733
3755.73074	0.04674
3754.44497	0.04665
3753.15921	0.04698
3751.87344	0.04744
3750.58767	0.04784
3749.30190	0.04806
3748.01613	0.04810
3746.73036	0.04835
3745.44459	0.04880
3744.15882	0.04886
3742.87305	0.04850
3741.58729	0.04840
3740.30152	0.04866
3739.01575	0.04883
3737.72998	0.04874
3736.44421	0.04844
3735.15844	0.04795
3733.87267	0.04747
3732.58690	0.04723
3731.30114	0.04724
3730.01537	0.04752
3728.72960	0.04808
3727.44383	0.04855
3726.15806	0.04850
3724.87229	0.04796
3723.58652	0.04728
3722.30075	0.04666
3721.01498	0.04610
3719.72922	0.04572
3718.44345	0.04560
3717.15768	0.04560
3715.87191	0.04551
3714.58614	0.04531
3713.30037	0.04501
3712.01460	0.04460
3710.72883	0.04422
3709.44307	0.04410
3708.15730	0.04425
3706.87153	0.04456
3705.58576	0.04498
3704.29999	0.04553
3703.01422	0.04611
3701.72845	0.04653
3700.44268	0.04669
3699.15691	0.04678
3697.87115	0.04715
3696.58538	0.04789
3695.29961	0.04861
3694.01384	0.04877
3692.72807	0.04814
3691.44230	0.04700
3690.15653	0.04596
3688.87076	0.04535
3687.58500	0.04500
3686.29923	0.04467
3685.01346	0.04442
3683.72769	0.04437
3682.44192	0.04459
3681.15615	0.04515
3679.87038	0.04590
3678.58461	0.04669
3677.29884	0.04734
3676.01308	0.04743
3674.72731	0.04679
3673.44154	0.04617
3672.15577	0.04644
3670.87000	0.04735
3669.58423	0.04793
3668.29846	0.04789
3667.01269	0.04757
3665.72693	0.04724
3664.44116	0.04711
3663.15539	0.04741
3661.86962	0.04820
3660.58385	0.04909
3659.29808	0.04960
3658.01231	0.04953
3656.72654	0.04904
3655.44077	0.04847
3654.15501	0.04830
3652.86924	0.04880
3651.58347	0.04965
3650.29770	0.05025
3649.01193	0.05030
3647.72616	0.05007
3646.44039	0.04999
3645.15462	0.05026
3643.86886	0.05070
3642.58309	0.05100
3641.29732	0.05103
3640.01155	0.05100
3638.72578	0.05120
3637.44001	0.05172
3636.15424	0.05241
3634.86847	0.05295
3633.58270	0.05300
3632.29694	0.05255
3631.01117	0.05204
3629.72540	0.05186
3628.43963	0.05213
3627.15386	0.05289
3625.86809	0.05413
3624.58232	0.05557
3623.29655	0.05682
3622.01079	0.05775
3620.72502	0.05830
3619.43925	0.05827
3618.15348	0.05768
3616.86771	0.05703
3615.58194	0.05686
3614.29617	0.05722
3613.01040	0.05770
3611.72463	0.05804
3610.43887	0.05838
3609.15310	0.05892
3607.86733	0.05974
3606.58156	0.06091
3605.29579	0.06239
3604.01002	0.06392
3602.72425	0.06507
3601.43848	0.06555
3600.15272	0.06536
3598.86695	0.06486
3597.58118	0.06462
3596.29541	0.06500
3595.00964	0.06580
3593.72387	0.06649
3592.43810	0.06677
3591.15233	0.06688
3589.86656	0.06712
3588.58080	0.06747
3587.29503	0.06772
3586.00926	0.06786
3584.72349	0.06810
3583.43772	0.06865
3582.15195	0.06951
3580.86618	0.07052
3579.58041	0.07159
3578.29464	0.07274
3577.00888	0.07391
3575.72311	0.07497
3574.43734	0.07584
3573.15157	0.07658
3571.86580	0.07737
3570.58003	0.07826
3569.29426	0.07900
3568.00849	0.07931
3566.72273	0.07922
3565.43696	0.07919
3564.15119	0.07956
3562.86542	0.08019
3561.57965	0.08070
3560.29388	0.08105
3559.00811	0.08156
3557.72234	0.08244
3556.43657	0.08346
3555.15081	0.08421
3553.86504	0.08458
3552.57927	0.08481
3551.29350	0.08519
3550.00773	0.08581
3548.72196	0.08653
3547.43619	0.08717
3546.15042	0.08771
3544.86466	0.08821
3543.57889	0.08868
3542.29312	0.08907
3541.00735	0.08940
3539.72158	0.08987
3538.43581	0.09069
3537.15004	0.09184
3535.86427	0.09309
3534.57850	0.09422
3533.29274	0.09514
3532.00697	0.09579
3530.72120	0.09609
3529.43543	0.09613
3528.14966	0.09609
3526.86389	0.09624
3525.57812	0.09670
3524.29235	0.09747
3523.00659	0.09841
3521.72082	0.09928
3520.43505	0.09989
3519.14928	0.10028
3517.86351	0.10076
3516.57774	0.10161
3515.29197	0.10277
3514.00620	0.10378
3512.72043	0.10422
3511.43467	0.10409
3510.14890	0.10380
3508.86313	0.10383
3507.57736	0.10439
3506.29159	0.10532
3505.00582	0.10629
3503.72005	0.10701
3502.43428	0.10744
3501.14852	0.10771
3499.86275	0.10794
3498.57698	0.10816
3497.29121	0.10832
3496.00544	0.10850
3494.71967	0.10892
3493.43390	0.10978
3492.14813	0.11096
3490.86236	0.11208
3489.57660	0.11270
3488.29083	0.11268
3487.00506	0.11232
3485.71929	0.11220
3484.43352	0.11277
3483.14775	0.11401
3481.86198	0.11542
3480.57621	0.11642
3479.29045	0.11671
3478.00468	0.11652
3476.71891	0.11629
3475.43314	0.11631
3474.14737	0.11649
3472.86160	0.11665
3471.57583	0.11675
3470.29006	0.11694
3469.00429	0.11735
3467.71853	0.11795
3466.43276	0.11859
3465.14699	0.11906
3463.86122	0.11936
3462.57545	0.11966
3461.28968	0.12015
3460.00391	0.12084
3458.71814	0.12158
3457.43238	0.12218
3456.14661	0.12256
3454.86084	0.12273
3453.57507	0.12290
3452.28930	0.12331
3451.00353	0.12408
3449.71776	0.12501
3448.43199	0.12579
3447.14622	0.12628
3445.86046	0.12660
3444.57469	0.12694
3443.28892	0.12741
3442.00315	0.12801
3440.71738	0.12863
3439.43161	0.12907
3438.14584	0.12927
3436.86007	0.12936
3435.57431	0.12954
3434.28854	0.12986
3433.00277	0.13020
3431.71700	0.13056
3430.43123	0.13099
3429.14546	0.13143
3427.85969	0.13176
3426.57392	0.13185
3425.28815	0.13177
3424.00239	0.13173
3422.71662	0.13193
3421.43085	0.13242
3420.14508	0.13300
3418.85931	0.13339
3417.57354	0.13351
3416.28777	0.13355
3415.00200	0.13381
3413.71624	0.13442
3412.43047	0.13527
3411.14470	0.13607
3409.85893	0.13672
3408.57316	0.13727
3407.28739	0.13785
3406.00162	0.13855
3404.71585	0.13936
3403.43008	0.14021
3402.14432	0.14085
3400.85855	0.14100
3399.57278	0.14067
3398.28701	0.14013
3397.00124	0.13976
3395.71547	0.13971
3394.42970	0.13999
3393.14393	0.14056
3391.85817	0.14142
3390.57240	0.14247
3389.28663	0.14342
3388.00086	0.14402
3386.71509	0.14425
3385.42932	0.14441
3384.14355	0.14479
3382.85778	0.14538
3381.57201	0.14598
3380.28625	0.14641
3379.00048	0.14677
3377.71471	0.14725
3376.42894	0.14788
3375.14317	0.14848
3373.85740	0.14896
3372.57163	0.14946
3371.28586	0.15012
3370.00010	0.15089
3368.71433	0.15164
3367.42856	0.15244
3366.14279	0.15344
3364.85702	0.15459
3363.57125	0.15565
3362.28548	0.15645
3360.99971	0.15711
3359.71394	0.15786
3358.42818	0.15881
3357.14241	0.15986
3355.85664	0.16087
3354.57087	0.16178
3353.28510	0.16261
3351.99933	0.16338
3350.71356	0.16416
3349.42779	0.16506
3348.14202	0.16615
3346.85626	0.16733
3345.57049	0.16847
3344.28472	0.16950
3342.99895	0.17047
3341.71318	0.17144
3340.42741	0.17239
3339.14164	0.17322
3337.85587	0.17386
3336.57011	0.17441
3335.28434	0.17511
3333.99857	0.17608
3332.71280	0.17715
3331.42703	0.17794
3330.14126	0.17832
3328.85549	0.17854
3327.56972	0.17902
3326.28395	0.17982
3324.99819	0.18067
3323.71242	0.18124
3322.42665	0.18152
3321.14088	0.18173
3319.85511	0.18211
3318.56934	0.18263
3317.28357	0.18315
3315.99780	0.18360
3314.71204	0.18401
3313.42627	0.18449
3312.14050	0.18504
3310.85473	0.18556
3309.56896	0.18596
3308.28319	0.18628
3306.99742	0.18663
3305.71165	0.18709
3304.42588	0.18762
3303.14012	0.18810
3301.85435	0.18840
3300.56858	0.18850
3299.28281	0.18846
3297.99704	0.18843
3296.71127	0.18851
3295.42550	0.18862
3294.13973	0.18866
3292.85397	0.18859
3291.56820	0.18843
3290.28243	0.18818
3288.99666	0.18780
3287.71089	0.18734
3286.42512	0.18698
3285.13935	0.18687
3283.85358	0.18695
3282.56781	0.18708
3281.28205	0.18712
3279.99628	0.18707
3278.71051	0.18697
3277.42474	0.18683
3276.13897	0.18663
3274.85320	0.18626
3273.56743	0.18569
3272.28166	0.18500
3270.99590	0.18438
3269.71013	0.18398
3268.42436	0.18379
3267.13859	0.18370
3265.85282	0.18356
3264.56705	0.18324
3263.28128	0.18272
3261.99551	0.18209
3260.70974	0.18144
3259.42398	0.18078
3258.13821	0.18005
3256.85244	0.17928
3255.56667	0.17862
3254.28090	0.17812
3252.99513	0.17771
3251.70936	0.17731
3250.42359	0.17703
3249.13783	0.17699
3247.85206	0.17712
3246.56629	0.17708
3245.28052	0.17658
3243.99475	0.17567
3242.70898	0.17471
3241.42321	0.17402
3240.13744	0.17359
3238.85167	0.17322
3237.56591	0.17280
3236.28014	0.17242
3234.99437	0.17221
3233.70860	0.17217
3232.42283	0.17212
3231.13706	0.17188
3229.85129	0.17133
3228.56552	0.17051
3227.27976	0.16950
3225.99399	0.16837
3224.70822	0.16728
3223.42245	0.16650
3222.13668	0.16625
3220.85091	0.16646
3219.56514	0.16673
3218.27937	0.16671
3216.99360	0.16632
3215.70784	0.16573
3214.42207	0.16518
3213.13630	0.16483
3211.85053	0.16463
3210.56476	0.16444
3209.27899	0.16421
3207.99322	0.16404
3206.70745	0.16398
3205.42169	0.16387
3204.13592	0.16357
3202.85015	0.16305
3201.56438	0.16244
3200.27861	0.16179
3198.99284	0.16108
3197.70707	0.16038
3196.42130	0.15987
3195.13553	0.15972
3193.84977	0.15981
3192.56400	0.15976
3191.27823	0.15924
3189.99246	0.15825
3188.70669	0.15715
3187.42092	0.15633
3186.13515	0.15585
3184.84938	0.15545
3183.56362	0.15484
3182.27785	0.15394
3180.99208	0.15295
3179.70631	0.15210
3178.42054	0.15143
3177.13477	0.15079
3175.84900	0.15009
3174.56323	0.14937
3173.27746	0.14875
3171.99170	0.14832
3170.70593	0.14801
3169.42016	0.14767
3168.13439	0.14712
3166.84862	0.14638
3165.56285	0.14560
3164.27708	0.14500
3162.99131	0.14464
3161.70555	0.14437
3160.41978	0.14400
3159.13401	0.14342
3157.84824	0.14270
3156.56247	0.14193
3155.27670	0.14118
3153.99093	0.14042
3152.70516	0.13958
3151.41939	0.13865
3150.13363	0.13777
3148.84786	0.13707
3147.56209	0.13656
3146.27632	0.13610
3144.99055	0.13555
3143.70478	0.13482
3142.41901	0.13385
3141.13324	0.13272
3139.84748	0.13167
3138.56171	0.13098
3137.27594	0.13071
3135.99017	0.13072
3134.70440	0.13081
3133.41863	0.13087
3132.13286	0.13078
3130.84709	0.13041
3129.56132	0.12970
3128.27556	0.12884
3126.98979	0.12804
3125.70402	0.12746
3124.41825	0.12717
3123.13248	0.12719
3121.84671	0.12745
3120.56094	0.12775
3119.27517	0.12786
3117.98940	0.12771
3116.70364	0.12742
3115.41787	0.12709
3114.13210	0.12678
3112.84633	0.12657
3111.56056	0.12661
3110.27479	0.12692
3108.98902	0.12730
3107.70325	0.12748
3106.41749	0.12744
3105.13172	0.12738
3103.84595	0.12752
3102.56018	0.12782
3101.27441	0.12814
3099.98864	0.12837
3098.70287	0.12858
3097.41710	0.12883
3096.13133	0.12907
3094.84557	0.12921
3093.55980	0.12927
3092.27403	0.12934
3090.98826	0.12944
3089.70249	0.12956
3088.41672	0.12966
3087.13095	0.12977
3085.84518	0.12993
3084.55942	0.13018
3083.27365	0.13046
3081.98788	0.13069
3080.70211	0.13082
3079.41634	0.13091
3078.13057	0.13101
3076.84480	0.13112
3075.55903	0.13123
3074.27326	0.13131
3072.98750	0.13133
3071.70173	0.13121
3070.41596	0.13089
3069.13019	0.13049
3067.84442	0.13026
3066.55865	0.13033
3065.27288	0.13060
3063.98711	0.13080
3062.70135	0.13066
3061.41558	0.13008
3060.12981	0.12913
3058.84404	0.12803
3057.55827	0.12698
3056.27250	0.12613
3054.98673	0.12556
3053.70096	0.12526
3052.41519	0.12516
3051.12943	0.12510
3049.84366	0.12486
3048.55789	0.12431
3047.27212	0.12355
3045.98635	0.12279
3044.70058	0.12214
3043.41481	0.12155
3042.12904	0.12098
3040.84328	0.12042
3039.55751	0.11987
3038.27174	0.11921
3036.98597	0.11833
3035.70020	0.11722
3034.41443	0.11611
3033.12866	0.11525
3031.84289	0.11472
3030.55712	0.11441
3029.27136	0.11410
3027.98559	0.11371
3026.69982	0.11330
3025.41405	0.11294
3024.12828	0.11269
3022.84251	0.11247
3021.55674	0.11216
3020.27097	0.11165
3018.98521	0.11097
3017.69944	0.11024
3016.41367	0.10964
3015.12790	0.10924
3013.84213	0.10905
3012.55636	0.10898
3011.27059	0.10890
3009.98482	0.10872
3008.69905	0.10845
3007.41329	0.10814
3006.12752	0.10785
3004.84175	0.10757
3003.55598	0.10734
3002.27021	0.10721
3000.98444	0.10725
2999.69867	0.10751
2998.41290	0.10794
2997.12714	0.10846
2995.84137	0.10890
2994.55560	0.10917
2993.26983	0.10923
2991.98406	0.10916
2990.69829	0.10905
2989.41252	0.10907
2988.12675	0.10935
2986.84098	0.10985
2985.55522	0.11043
2984.26945	0.11094
2982.98368	0.11139
2981.69791	0.11190
2980.41214	0.11250
2979.12637	0.11310
2977.84060	0.11364
2976.55483	0.11411
2975.26907	0.11455
2973.98330	0.11498
2972.69753	0.11544
2971.41176	0.11598
2970.12599	0.11663
2968.84022	0.11730
2967.55445	0.11785
2966.26868	0.11830
2964.98291	0.11878
2963.69715	0.11939
2962.41138	0.12005
2961.12561	0.12066
2959.83984	0.12117
2958.55407	0.12158
2957.26830	0.12186
2955.98253	0.12196
2954.69676	0.12196
2953.41100	0.12197
2952.12523	0.12205
2950.83946	0.12211
2949.55369	0.12217
2948.26792	0.12234
2946.98215	0.12273
2945.69638	0.12325
2944.41061	0.12376
2943.12484	0.12420
2941.83908	0.12469
2940.55331	0.12539
2939.26754	0.12637
2937.98177	0.12757
2936.69600	0.12878
2935.41023	0.12986
2934.12446	0.13085
2932.83869	0.13189
2931.55293	0.13298
2930.26716	0.13399
2928.98139	0.13476
2927.69562	0.13521
2926.40985	0.13540
2925.12408	0.13543
2923.83831	0.13529
2922.55254	0.13487
2921.26677	0.13412
2919.98101	0.13316
2918.69524	0.13222
2917.40947	0.13128
2916.12370	0.13006
2914.83793	0.12830
2913.55216	0.12614
2912.26639	0.12402
2910.98062	0.12228
2909.69486	0.12093
2908.40909	0.11971
2907.12332	0.11840
2905.83755	0.11697
2904.55178	0.11553
2903.26601	0.11421
2901.98024	0.11308
2900.69447	0.11214
2899.40870	0.11134
2898.12294	0.11065
2896.83717	0.11007
2895.55140	0.10957
2894.26563	0.10907
2892.97986	0.10852
2891.69409	0.10798
2890.40832	0.10760
2889.12255	0.10743
2887.83678	0.10734
2886.55102	0.10725
2885.26525	0.10716
2883.97948	0.10711
2882.69371	0.10709
2881.40794	0.10705
2880.12217	0.10699
2878.83640	0.10699
2877.55063	0.10711
2876.26487	0.10731
2874.97910	0.10747
2873.69333	0.10741
2872.40756	0.10702
2871.12179	0.10637
2869.83602	0.10568
2868.55025	0.10513
2867.26448	0.10473
2865.97871	0.10439
2864.69295	0.10406
2863.40718	0.10382
2862.12141	0.10381
2860.83564	0.10405
2859.54987	0.10451
2858.26410	0.10511
2856.97833	0.10577
2855.69256	0.10641
2854.40680	0.10690
2853.12103	0.10713
2851.83526	0.10696
2850.54949	0.10635
2849.26372	0.10528
2847.97795	0.10384
2846.69218	0.10214
2845.40641	0.10036
2844.12064	0.09866
2842.83488	0.09718
2841.54911	0.09596
2840.26334	0.09497
2838.97757	0.09414
2837.69180	0.09340
2836.40603	0.09265
2835.12026	0.09184
2833.83449	0.09103
2832.54873	0.09039
2831.26296	0.08999
2829.97719	0.08979
2828.69142	0.08970
2827.40565	0.08961
2826.11988	0.08942
2824.83411	0.08914
2823.54834	0.08878
2822.26257	0.08830
2820.97681	0.08765
2819.69104	0.08691
2818.40527	0.08633
2817.11950	0.08607
2815.83373	0.08602
2814.54796	0.08591
2813.26219	0.08560
2811.97642	0.08518
2810.69066	0.08484
2809.40489	0.08466
2808.11912	0.08459
2806.83335	0.08454
2805.54758	0.08445
2804.26181	0.08433
2802.97604	0.08415
2801.69027	0.08386
2800.40450	0.08351
2799.11874	0.08320
2797.83297	0.08297
2796.54720	0.08276
2795.26143	0.08248
2793.97566	0.08216
2792.68989	0.08189
2791.40412	0.08175
2790.11835	0.08165
2788.83259	0.08143
2787.54682	0.08102
2786.26105	0.08055
2784.97528	0.08027
2783.68951	0.08028
2782.40374	0.08041
2781.11797	0.08044
2779.83220	0.08023
2778.54643	0.07985
2777.26067	0.07947
2775.97490	0.07925
2774.68913	0.07920
2773.40336	0.07915
2772.11759	0.07896
2770.83182	0.07866
2769.54605	0.07840
2768.26028	0.07824
2766.97452	0.07811
2765.68875	0.07787
2764.40298	0.07748
2763.11721	0.07705
2761.83144	0.07678
2760.54567	0.07668
2759.25990	0.07667
2757.97413	0.07660
2756.68836	0.07648
2755.40260	0.07636
2754.11683	0.07626
2752.83106	0.07615
2751.54529	0.07599
2750.25952	0.07581
2748.97375	0.07565
2747.68798	0.07545
2746.40221	0.07516
2745.11645	0.07478
2743.83068	0.07445
2742.54491	0.07429
2741.25914	0.07423
2739.97337	0.07408
2738.68760	0.07376
2737.40183	0.07333
2736.11606	0.07298
2734.83029	0.07286
2733.54453	0.07295
2732.25876	0.07310
2730.97299	0.07313
2729.68722	0.07296
2728.40145	0.07266
2727.11568	0.07233
2725.82991	0.07202
2724.54414	0.07171
2723.25838	0.07137
2721.97261	0.07106
2720.68684	0.07083
2719.40107	0.07066
2718.11530	0.07052
2716.82953	0.07038
2715.54376	0.07028
2714.25799	0.07026
2712.97222	0.07032
2711.68646	0.07040
2710.40069	0.07042
2709.11492	0.07032
2707.82915	0.07012
2706.54338	0.06988
2705.25761	0.06966
2703.97184	0.06949
2702.68607	0.06937
2701.40031	0.06931
2700.11454	0.06928
2698.82877	0.06921
2697.54300	0.06901
2696.25723	0.06869
2694.97146	0.06837
2693.68569	0.06819
2692.39992	0.06821
2691.11415	0.06831
2689.82839	0.06835
2688.54262	0.06828
2687.25685	0.06814
2685.97108	0.06800
2684.68531	0.06787
2683.39954	0.06770
2682.11377	0.06752
2680.82800	0.06741
2679.54224	0.06746
2678.25647	0.06756
2676.97070	0.06755
2675.68493	0.06739
2674.39916	0.06720
2673.11339	0.06707
2671.82762	0.06698
2670.54185	0.06687
2669.25608	0.06675
2667.97032	0.06665
2666.68455	0.06662
2665.39878	0.06664
2664.11301	0.06672
2662.82724	0.06684
2661.54147	0.06692
2660.25570	0.06690
2658.96993	0.06673
2657.68417	0.06649
2656.39840	0.06627
2655.11263	0.06609
2653.82686	0.06590
2652.54109	0.06564
2651.25532	0.06532
2649.96955	0.06498
2648.68378	0.06464
2647.39801	0.06427
2646.11225	0.06390
2644.82648	0.06366
2643.54071	0.06358
2642.25494	0.06354
2640.96917	0.06332
2639.68340	0.06286
2638.39763	0.06229
2637.11186	0.06178
2635.82609	0.06143
2634.54033	0.06120
2633.25456	0.06106
2631.96879	0.06101
2630.68302	0.06104
2629.39725	0.06111
2628.11148	0.06114
2626.82571	0.06101
2625.53994	0.06067
2624.25418	0.06010
2622.96841	0.05936
2621.68264	0.05863
2620.39687	0.05813
2619.11110	0.05794
2617.82533	0.05796
2616.53956	0.05800
2615.25379	0.05801
2613.96802	0.05803
2612.68226	0.05807
2611.39649	0.05803
2610.11072	0.05783
2608.82495	0.05750
2607.53918	0.05718
2606.25341	0.05702
2604.96764	0.05696
2603.68187	0.05689
2602.39611	0.05676
2601.11034	0.05665
2599.82457	0.05659
2598.53880	0.05648
2597.25303	0.05626
2595.96726	0.05603
2594.68149	0.05586
2593.39572	0.05567
2592.10995	0.05544
2590.82419	0.05527
2589.53842	0.05522
2588.25265	0.05513
2586.96688	0.05483
2585.68111	0.05438
2584.39534	0.05406
2583.10957	0.05401
2581.82380	0.05411
2580.53804	0.05417
2579.25227	0.05413
2577.96650	0.05408
2576.68073	0.05407
2575.39496	0.05407
2574.10919	0.05399
2572.82342	0.05374
2571.53765	0.05334
2570.25188	0.05291
2568.96612	0.05262
2567.68035	0.05252
2566.39458	0.05253
2565.10881	0.05256
2563.82304	0.05257
2562.53727	0.05258
2561.25150	0.05261
2559.96573	0.05258
2558.67997	0.05238
2557.39420	0.05200
2556.10843	0.05162
2554.82266	0.05135
2553.53689	0.05116
2552.25112	0.05091
2550.96535	0.05060
2549.67958	0.05038
2548.39381	0.05031
2547.10805	0.05028
2545.82228	0.05021
2544.53651	0.05011
2543.25074	0.04997
2541.96497	0.04973
2540.67920	0.04942
2539.39343	0.04919
2538.10766	0.04915
2536.82190	0.04922
2535.53613	0.04920
2534.25036	0.04899
2532.96459	0.04866
2531.67882	0.04837
2530.39305	0.04829
2529.10728	0.04844
2527.82151	0.04874
2526.53574	0.04905
2525.24998	0.04925
2523.96421	0.04927
2522.67844	0.04912
2521.39267	0.04890
2520.10690	0.04875
2518.82113	0.04872
2517.53536	0.04883
2516.24959	0.04900
2514.96383	0.04912
2513.67806	0.04908
2512.39229	0.04885
2511.10652	0.04852
2509.82075	0.04818
2508.53498	0.04787
2507.24921	0.04751
2505.96344	0.04712
2504.67767	0.04682
2503.39191	0.04666
2502.10614	0.04658
2500.82037	0.04648
2499.53460	0.04637
2498.24883	0.04629
2496.96306	0.04628
2495.67729	0.04630
2494.39152	0.04629
2493.10576	0.04622
2491.81999	0.04607
2490.53422	0.04592
2489.24845	0.04585
2487.96268	0.04590
2486.67691	0.04594
2485.39114	0.04582
2484.10537	0.04555
2482.81960	0.04523
2481.53384	0.04506
2480.24807	0.04513
2478.96230	0.04551
2477.67653	0.04607
2476.39076	0.04655
2475.10499	0.04665
2473.81922	0.04639
2472.53345	0.04603
2471.24769	0.04579
2469.96192	0.04566
2468.67615	0.04544
2467.39038	0.04512
2466.10461	0.04489
2464.81884	0.04488
2463.53307	0.04506
2462.24730	0.04525
2460.96153	0.04529
2459.67577	0.04511
2458.39000	0.04478
2457.10423	0.04451
2455.81846	0.04445
2454.53269	0.04459
2453.24692	0.04480
2451.96115	0.04500
2450.67538	0.04522
2449.38962	0.04549
2448.10385	0.04571
2446.81808	0.04569
2445.53231	0.04534
2444.24654	0.04479
2442.96077	0.04421
2441.67500	0.04373
2440.38923	0.04343
2439.10346	0.04341
2437.81770	0.04370
2436.53193	0.04408
2435.24616	0.04426
2433.96039	0.04417
2432.67462	0.04398
2431.38885	0.04383
2430.10308	0.04375
2428.81731	0.04370
2427.53155	0.04370
2426.24578	0.04380
2424.96001	0.04395
2423.67424	0.04406
2422.38847	0.04406
2421.10270	0.04400
2419.81693	0.04398
2418.53116	0.04401
2417.24539	0.04397
2415.95963	0.04376
2414.67386	0.04351
2413.38809	0.04343
2412.10232	0.04355
2410.81655	0.04371
2409.53078	0.04372
2408.24501	0.04352
2406.95924	0.04318
2405.67347	0.04284
2404.38771	0.04261
2403.10194	0.04254
2401.81617	0.04262
2400.53040	0.04275
2399.24463	0.04274
2397.95886	0.04264
2396.67309	0.04254
2395.38732	0.04250
2394.10156	0.04249
2392.81579	0.04247
2391.53002	0.04247
2390.24425	0.04252
2388.95848	0.04260
2387.67271	0.04264
2386.38694	0.04266
2385.10117	0.04274
2383.81540	0.04294
2382.52964	0.04318
2381.24387	0.04334
2379.95810	0.04336
2378.67233	0.04325
2377.38656	0.04307
2376.10079	0.04287
2374.81502	0.04271
2373.52925	0.04280
2372.24349	0.04317
2370.95772	0.04365
2369.67195	0.04397
2368.38618	0.04411
2367.10041	0.04421
2365.81464	0.04429
2364.52887	0.04435
2363.24310	0.04437
2361.95733	0.04447
2360.67157	0.04478
2359.38580	0.04506
2358.10003	0.04505
2356.81426	0.04474
2355.52849	0.04431
2354.24272	0.04387
2352.95695	0.04355
2351.67118	0.04353
2350.38542	0.04368
2349.09965	0.04379
2347.81388	0.04401
2346.52811	0.04464
2345.24234	0.04514
2343.95657	0.04472
2342.67080	0.04381
2341.38503	0.04387
2340.09926	0.04478
2338.81350	0.04465
2337.52773	0.04351
2336.24196	0.04357
2334.95619	0.04458
2333.67042	0.04433
2332.38465	0.04335
2331.09888	0.04368
2329.81311	0.04408
2328.52735	0.04345
2327.24158	0.04388
2325.95581	0.04496
2324.67004	0.04492
2323.38427	0.04472
2322.09850	0.04483
2320.81273	0.04424
2319.52696	0.04391
2318.24119	0.04388
2316.95543	0.04343
2315.66966	0.04312
2314.38389	0.04284
2313.09812	0.04228
2311.81235	0.04187
2310.52658	0.04143
2309.24081	0.04102
2307.95504	0.04080
2306.66928	0.04059
2305.38351	0.04050
2304.09774	0.04052
2302.81197	0.04059
2301.52620	0.04063
2300.24043	0.04047
2298.95466	0.04015
2297.66889	0.03983
2296.38312	0.03965
2295.09736	0.03961
2293.81159	0.03956
2292.52582	0.03940
2291.24005	0.03908
2289.95428	0.03866
2288.66851	0.03824
2287.38274	0.03791
2286.09697	0.03762
2284.81121	0.03727
2283.52544	0.03691
2282.23967	0.03670
2280.95390	0.03676
2279.66813	0.03699
2278.38236	0.03722
2277.09659	0.03734
2275.81082	0.03724
2274.52505	0.03687
2273.23929	0.03623
2271.95352	0.03551
2270.66775	0.03494
2269.38198	0.03456
2268.09621	0.03421
2266.81044	0.03373
2265.52467	0.03303
2264.23890	0.03214
2262.95314	0.03131
2261.66737	0.03093
2260.38160	0.03126
2259.09583	0.03220
2257.81006	0.03329
2256.52429	0.03401
2255.23852	0.03411
2253.95275	0.03376
2252.66698	0.03328
2251.38122	0.03288
2250.09545	0.03273
2248.80968	0.03288
2247.52391	0.03307
2246.23814	0.03333
2244.95237	0.03351
2243.66660	0.03344
2242.38083	0.03314
2241.09507	0.03279
2239.80930	0.03267
2238.52353	0.03283
2237.23776	0.03301
2235.95199	0.03282
2234.66622	0.03214
2233.38045	0.03125
2232.09468	0.03051
2230.80891	0.03005
2229.52315	0.02973
2228.23738	0.02951
2226.95161	0.02942
2225.66584	0.02946
2224.38007	0.02950
2223.09430	0.02954
2221.80853	0.02979
2220.52276	0.03033
2219.23700	0.03093
2217.95123	0.03121
2216.66546	0.03094
2215.37969	0.03019
2214.09392	0.02931
2212.80815	0.02884
2211.52238	0.02903
2210.23661	0.02955
2208.95084	0.02982
2207.66508	0.02965
2206.37931	0.02936
2205.09354	0.02929
2203.80777	0.02941
2202.52200	0.02942
2201.23623	0.02900
2199.95046	0.02811
2198.66469	0.02706
2197.37893	0.02624
2196.09316	0.02581
2194.80739	0.02558
2193.52162	0.02546
2192.23585	0.02556
2190.95008	0.02583
2189.66431	0.02587
2188.37854	0.02539
2187.09277	0.02464
2185.80701	0.02413
2184.52124	0.02404
2183.23547	0.02423
2181.94970	0.02464
2180.66393	0.02546
2179.37816	0.02656
2178.09239	0.02734
2176.80662	0.02727
2175.52085	0.02644
2174.23509	0.02545
2172.94932	0.02479
2171.66355	0.02443
2170.37778	0.02397
2169.09201	0.02291
2167.80624	0.02104
2166.52047	0.01865
2165.23470	0.01663
2163.94894	0.01602
2162.66317	0.01714
2161.37740	0.01912
2160.09163	0.02054
2158.80586	0.02085
2157.52009	0.02068
2156.23432	0.02087
2154.94855	0.02160
2153.66278	0.02256
2152.37702	0.02343
2151.09125	0.02409
2149.80548	0.02459
2148.51971	0.02508
2147.23394	0.02559
2145.94817	0.02595
2144.66240	0.02595
2143.37663	0.02561
2142.09087	0.02508
2140.80510	0.02460
2139.51933	0.02449
2138.23356	0.02500
2136.94779	0.02594
2135.66202	0.02676
2134.37625	0.02701
2133.09048	0.02678
2131.80471	0.02655
2130.51895	0.02667
2129.23318	0.02713
2127.94741	0.02769
2126.66164	0.02821
2125.37587	0.02865
2124.09010	0.02901
2122.80433	0.02929
2121.51856	0.02959
2120.23280	0.03007
2118.94703	0.03066
2117.66126	0.03107
2116.37549	0.03103
2115.08972	0.03065
2113.80395	0.03026
2112.51818	0.03011
2111.23241	0.03012
2109.94664	0.03008
2108.66088	0.02992
2107.37511	0.02982
2106.08934	0.02988
2104.80357	0.02992
2103.51780	0.02968
2102.23203	0.02918
2100.94626	0.02872
2099.66049	0.02838
2098.37473	0.02818
2097.08896	0.02794
2095.80319	0.02769
2094.51742	0.02763
2093.23165	0.02790
2091.94588	0.02840
2090.66011	0.02881
2089.37434	0.02890
2088.08857	0.02867
2086.80281	0.02831
2085.51704	0.02793
2084.23127	0.02760
2082.94550	0.02747
2081.65973	0.02768
2080.37396	0.02821
2079.08819	0.02878
2077.80242	0.02905
2076.51666	0.02885
2075.23089	0.02823
2073.94512	0.02745
2072.65935	0.02674
2071.37358	0.02620
2070.08781	0.02571
2068.80204	0.02527
2067.51627	0.02507
2066.23050	0.02526
2064.94474	0.02567
2063.65897	0.02585
2062.37320	0.02550
2061.08743	0.02476
2059.80166	0.02398
2058.51589	0.02339
2057.23012	0.02303
2055.94435	0.02295
2054.65859	0.02316
2053.37282	0.02352
2052.08705	0.02370
2050.80128	0.02332
2049.51551	0.02236
2048.22974	0.02122
2046.94397	0.02042
2045.65820	0.02020
2044.37243	0.02049
2043.08667	0.02098
2041.80090	0.02131
2040.51513	0.02123
2039.22936	0.02080
2037.94359	0.02034
2036.65782	0.02004
2035.37205	0.01986
2034.08628	0.01964
2032.80052	0.01927
2031.51475	0.01876
2030.22898	0.01825
2028.94321	0.01808
2027.65744	0.01854
2026.37167	0.01965
2025.08590	0.02106
2023.80013	0.02232
2022.51436	0.02288
2021.22860	0.02241
2019.94283	0.02105
2018.65706	0.01949
2017.37129	0.01843
2016.08552	0.01819
2014.79975	0.01860
2013.51398	0.01932
2012.22821	0.01990
2010.94245	0.01994
2009.65668	0.01941
2008.37091	0.01864
2007.08514	0.01804
2005.79937	0.01775
2004.51360	0.01767
2003.22783	0.01772
2001.94206	0.01786
2000.65629	0.01804
1999.37053	0.01820
1998.08476	0.01832
1996.79899	0.01854
1995.51322	0.01904
1994.22745	0.01985
1992.94168	0.02067
1991.65591	0.02100
1990.37014	0.02063
1989.08438	0.01999
1987.79861	0.01969
1986.51284	0.01991
1985.22707	0.02034
1983.94130	0.02060
1982.65553	0.02065
1981.36976	0.02048
1980.08399	0.01994
1978.79822	0.01892
1977.51246	0.01767
1976.22669	0.01681
1974.94092	0.01675
1973.65515	0.01737
1972.36938	0.01815
1971.08361	0.01877
1969.79784	0.01925
1968.51207	0.01970
1967.22631	0.02010
1965.94054	0.02036
1964.65477	0.02054
1963.36900	0.02075
1962.08323	0.02086
1960.79746	0.02064
1959.51169	0.02005
1958.22592	0.01944
1956.94015	0.01920
1955.65439	0.01951
1954.36862	0.02022
1953.08285	0.02103
1951.79708	0.02163
1950.51131	0.02182
1949.22554	0.02159
1947.93977	0.02111
1946.65400	0.02065
1945.36823	0.02046
1944.08247	0.02062
1942.79670	0.02102
1941.51093	0.02139
1940.22516	0.02156
1938.93939	0.02157
1937.65362	0.02161
1936.36785	0.02180
1935.08208	0.02208
1933.79632	0.02223
1932.51055	0.02208
1931.22478	0.02169
1929.93901	0.02127
1928.65324	0.02105
1927.36747	0.02104
1926.08170	0.02119
1924.79593	0.02141
1923.51016	0.02175
1922.22440	0.02225
1920.93863	0.02287
1919.65286	0.02345
1918.36709	0.02373
1917.08132	0.02366
1915.79555	0.02341
1914.50978	0.02325
1913.22401	0.02321
1911.93825	0.02321
1910.65248	0.02318
1909.36671	0.02313
1908.08094	0.02311
1906.79517	0.02313
1905.50940	0.02312
1904.22363	0.02304
1902.93786	0.02290
1901.65209	0.02277
1900.36633	0.02273
1899.08056	0.02282
1897.79479	0.02304
1896.50902	0.02333
1895.22325	0.02355
1893.93748	0.02360
1892.65171	0.02351
1891.36594	0.02337
1890.08018	0.02325
1888.79441	0.02314
1887.50864	0.02308
1886.22287	0.02308
1884.93710	0.02307
1883.65133	0.02287
1882.36556	0.02247
1881.07979	0.02196
1879.79402	0.02159
1878.50826	0.02150
1877.22249	0.02176
1875.93672	0.02224
1874.65095	0.02275
1873.36518	0.02316
1872.07941	0.02342
1870.79364	0.02353
1869.50787	0.02347
1868.22211	0.02324
1866.93634	0.02292
1865.65057	0.02262
1864.36480	0.02240
1863.07903	0.02231
1861.79326	0.02234
1860.50749	0.02246
1859.22172	0.02255
1857.93595	0.02256
1856.65019	0.02251
1855.36442	0.02254
1854.07865	0.02267
1852.79288	0.02279
1851.50711	0.02278
1850.22134	0.02266
1848.93557	0.02253
1847.64980	0.02250
1846.36404	0.02259
1845.07827	0.02269
1843.79250	0.02267
1842.50673	0.02248
1841.22096	0.02228
1839.93519	0.02216
1838.64942	0.02211
1837.36365	0.02212
1836.07788	0.02216
1834.79212	0.02221
1833.50635	0.02225
1832.22058	0.02232
1830.93481	0.02243
1829.64904	0.02249
1828.36327	0.02243
1827.07750	0.02235
1825.79173	0.02236
1824.50597	0.02243
1823.22020	0.02247
1821.93443	0.02240
1820.64866	0.02219
1819.36289	0.02192
1818.07712	0.02174
1816.79135	0.02172
1815.50558	0.02180
1814.21981	0.02191
1812.93405	0.02198
1811.64828	0.02196
1810.36251	0.02188
1809.07674	0.02177
1807.79097	0.02169
1806.50520	0.02166
1805.21943	0.02167
1803.93366	0.02168
1802.64790	0.02169
1801.36213	0.02168
1800.07636	0.02163
1798.79059	0.02154
1797.50482	0.02140
1796.21905	0.02127
1794.93328	0.02121
1793.64751	0.02127
1792.36174	0.02135
1791.07598	0.02132
1789.79021	0.02122
1788.50444	0.02112
1787.21867	0.02108
1785.93290	0.02106
1784.64713	0.02104
1783.36136	0.02101
1782.07559	0.02103
1780.78983	0.02109
1779.50406	0.02110
1778.21829	0.02101
1776.93252	0.02084
1775.64675	0.02069
1774.36098	0.02067
1773.07521	0.02071
1771.78944	0.02068
1770.50367	0.02062
1769.21791	0.02068
1767.93214	0.02078
1766.64637	0.02078
1765.36060	0.02070
1764.07483	0.02066
1762.78906	0.02065
1761.50329	0.02053
1760.21752	0.02034
1758.93176	0.02023
1757.64599	0.02025
1756.36022	0.02026
1755.07445	0.02023
1753.78868	0.02030
1752.50291	0.02050
1751.21714	0.02066
1749.93137	0.02066
1748.64560	0.02060
1747.35984	0.02060
1746.07407	0.02066
1744.78830	0.02072
1743.50253	0.02076
1742.21676	0.02081
1740.93099	0.02093
1739.64522	0.02102
1738.35945	0.02105
1737.07369	0.02115
1735.78792	0.02146
1734.50215	0.02173
1733.21638	0.02175
1731.93061	0.02169
1730.64484	0.02186
1729.35907	0.02222
1728.07330	0.02255
1726.78753	0.02282
1725.50177	0.02318
1724.21600	0.02364
1722.93023	0.02413
1721.64446	0.02465
1720.35869	0.02534
1719.07292	0.02629
1717.78715	0.02730
1716.50138	0.02820
1715.21561	0.02909
1713.92985	0.03016
1712.64408	0.03148
1711.35831	0.03297
1710.07254	0.03452
1708.78677	0.03609
1707.50100	0.03768
1706.21523	0.03927
1704.92946	0.04082
1703.64370	0.04247
1702.35793	0.04454
1701.07216	0.04690
1699.78639	0.04914
1698.50062	0.05136
1697.21485	0.05393
1695.92908	0.05677
1694.64331	0.05943
1693.35754	0.06186
1692.07178	0.06432
1690.78601	0.06682
1689.50024	0.06925
1688.21447	0.07172
1686.92870	0.07459
1685.64293	0.07789
1684.35716	0.08116
1683.07139	0.08411
1681.78563	0.08698
1680.49986	0.09014
1679.21409	0.09362
1677.92832	0.09739
1676.64255	0.10140
1675.35678	0.10548
1674.07101	0.10946
1672.78524	0.11348
1671.49947	0.11779
1670.21371	0.12232
1668.92794	0.12679
1667.64217	0.13105
1666.35640	0.13516
1665.07063	0.13926
1663.78486	0.14336
1662.49909	0.14731
1661.21332	0.15106
1659.92756	0.15457
1658.64179	0.15779
1657.35602	0.16071
1656.07025	0.16356
1654.78448	0.16661
1653.49871	0.16956
1652.21294	0.17187
1650.92717	0.17360
1649.64140	0.17534
1648.35564	0.17739
1647.06987	0.17945
1645.78410	0.18119
1644.49833	0.18264
1643.21256	0.18405
1641.92679	0.18556
1640.64102	0.18709
1639.35525	0.18856
1638.06949	0.19003
1636.78372	0.19151
1635.49795	0.19277
1634.21218	0.19369
1632.92641	0.19436
1631.64064	0.19489
1630.35487	0.19516
1629.06910	0.19495
1627.78333	0.19417
1626.49757	0.19288
1625.21180	0.19117
1623.92603	0.18904
1622.64026	0.18640
1621.35449	0.18325
1620.06872	0.17981
1618.78295	0.17630
1617.49718	0.17267
1616.21142	0.16878
1614.92565	0.16467
1613.63988	0.16061
1612.35411	0.15668
1611.06834	0.15278
1609.78257	0.14885
1608.49680	0.14494
1607.21103	0.14113
1605.92526	0.13745
1604.63950	0.13392
1603.35373	0.13054
1602.06796	0.12731
1600.78219	0.12428
1599.49642	0.12151
1598.21065	0.11899
1596.92488	0.11669
1595.63911	0.11458
1594.35335	0.11264
1593.06758	0.11094
1591.78181	0.10950
1590.49604	0.10837
1589.21027	0.10751
1587.92450	0.10688
1586.63873	0.10648
1585.35296	0.10630
1584.06719	0.10632
1582.78143	0.10651
1581.49566	0.10678
1580.20989	0.10718
1578.92412	0.10790
1577.63835	0.10910
1576.35258	0.11061
1575.06681	0.11216
1573.78104	0.11379
1572.49528	0.11575
1571.20951	0.11805
1569.92374	0.12048
1568.63797	0.12290
1567.35220	0.12537
1566.06643	0.12800
1564.78066	0.13066
1563.49489	0.13326
1562.20912	0.13595
1560.92336	0.13888
1559.63759	0.14186
1558.35182	0.14451
1557.06605	0.14684
1555.78028	0.14914
1554.49451	0.15144
1553.20874	0.15352
1551.92297	0.15533
1550.63721	0.15696
1549.35144	0.15842
1548.06567	0.15966
1546.77990	0.16069
1545.49413	0.16153
1544.20836	0.16218
1542.92259	0.16270
1541.63682	0.16322
1540.35105	0.16362
1539.06529	0.16366
1537.77952	0.16333
1536.49375	0.16293
1535.20798	0.16268
1533.92221	0.16244
1532.63644	0.16196
1531.35067	0.16125
1530.06490	0.16048
1528.77914	0.15971
1527.49337	0.15889
1526.20760	0.15796
1524.92183	0.15694
1523.63606	0.15596
1522.35029	0.15503
1521.06452	0.15397
1519.77875	0.15271
1518.49298	0.15142
1517.20722	0.15016
1515.92145	0.14874
1514.63568	0.14708
1513.34991	0.14519
1512.06414	0.14308
1510.77837	0.14078
1509.49260	0.13846
1508.20683	0.13624
1506.92107	0.13395
1505.63530	0.13134
1504.34953	0.12847
1503.06376	0.12567
1501.77799	0.12307
1500.49222	0.12059
1499.20645	0.11810
1497.92068	0.11560
1496.63491	0.11301
1495.34915	0.11027
1494.06338	0.10749
1492.77761	0.10487
1491.49184	0.10248
1490.20607	0.10023
1488.92030	0.09813
1487.63453	0.09625
1486.34876	0.09461
1485.06299	0.09319
1483.77723	0.09201
1482.49146	0.09111
1481.20569	0.09049
1479.91992	0.09012
1478.63415	0.09001
1477.34838	0.09016
1476.06261	0.09061
1474.77684	0.09144
1473.49108	0.09262
1472.20531	0.09398
1470.91954	0.09537
1469.63377	0.09679
1468.34800	0.09831
1467.06223	0.09994
1465.77646	0.10161
1464.49069	0.10324
1463.20492	0.10481
1461.91916	0.10637
1460.63339	0.10802
1459.34762	0.10988
1458.06185	0.11192
1456.77608	0.11386
1455.49031	0.11546
1454.20454	0.11678
1452.91877	0.11792
1451.63301	0.11882
1450.34724	0.11940
1449.06147	0.11968
1447.77570	0.11968
1446.48993	0.11940
1445.20416	0.11892
1443.91839	0.11831
1442.63262	0.11759
1441.34685	0.11670
1440.06109	0.11569
1438.77532	0.11461
1437.48955	0.11344
1436.20378	0.11204
1434.91801	0.11039
1433.63224	0.10868
1432.34647	0.10706
1431.06070	0.10559
1429.77494	0.10426
1428.48917	0.10314
1427.20340	0.10223
1425.91763	0.10149
1424.63186	0.10081
1423.34609	0.10014
1422.06032	0.09960
1420.77455	0.09933
1419.48878	0.09927
1418.20302	0.09924
1416.91725	0.09919
1415.63148	0.09924
1414.34571	0.09942
1413.05994	0.09972
1411.77417	0.10009
1410.48840	0.10049
1409.20263	0.10090
1407.91687	0.10134
1406.63110	0.10189
1405.34533	0.10250
1404.05956	0.10308
1402.77379	0.10359
1401.48802	0.10402
1400.20225	0.10432
1398.91648	0.10442
1397.63071	0.10432
1396.34495	0.10414
1395.05918	0.10397
1393.77341	0.10377
1392.48764	0.10348
1391.20187	0.10314
1389.91610	0.10279
1388.63033	0.10244
1387.34456	0.10205
1386.05880	0.10162
1384.77303	0.10117
1383.48726	0.10075
1382.20149	0.10033
1380.91572	0.09985
1379.62995	0.09927
1378.34418	0.09860
1377.05841	0.09789
1375.77264	0.09720
1374.48688	0.09649
1373.20111	0.09569
1371.91534	0.09478
1370.62957	0.09378
1369.34380	0.09271
1368.05803	0.09154
1366.77226	0.09032
1365.48649	0.08914
1364.20073	0.08809
1362.91496	0.08717
1361.62919	0.08634
1360.34342	0.08559
1359.05765	0.08496
1357.77188	0.08449
1356.48611	0.08422
1355.20034	0.08418
1353.91457	0.08439
1352.62881	0.08483
1351.34304	0.08542
1350.05727	0.08613
1348.77150	0.08690
1347.48573	0.08773
1346.19996	0.08860
1344.91419	0.08951
1343.62842	0.09043
1342.34266	0.09134
1341.05689	0.09219
1339.77112	0.09288
1338.48535	0.09338
1337.19958	0.09369
1335.91381	0.09381
1334.62804	0.09372
1333.34227	0.09342
1332.05650	0.09291
1330.77074	0.09224
1329.48497	0.09149
1328.19920	0.09073
1326.91343	0.09001
1325.62766	0.08936
1324.34189	0.08878
1323.05612	0.08828
1321.77035	0.08788
1320.48459	0.08758
1319.19882	0.08738
1317.91305	0.08724
1316.62728	0.08710
1315.34151	0.08687
1314.05574	0.08652
1312.76997	0.08606
1311.48420	0.08554
1310.19843	0.08503
1308.91267	0.08451
1307.62690	0.08397
1306.34113	0.08344
1305.05536	0.08298
1303.76959	0.08262
1302.48382	0.08234
1301.19805	0.08209
1299.91228	0.08183
1298.62652	0.08156
1297.34075	0.08132
1296.05498	0.08117
1294.76921	0.08113
1293.48344	0.08123
1292.19767	0.08146
1290.91190	0.08181
1289.62613	0.08225
1288.34036	0.08277
1287.05460	0.08336
1285.76883	0.08398
1284.48306	0.08459
1283.19729	0.08515
1281.91152	0.08560
1280.62575	0.08590
1279.33998	0.08603
1278.05421	0.08604
1276.76845	0.08603
1275.48268	0.08601
1274.19691	0.08600
1272.91114	0.08597
1271.62537	0.08597
1270.33960	0.08605
1269.05383	0.08625
1267.76806	0.08659
1266.48229	0.08703
1265.19653	0.08750
1263.91076	0.08795
1262.62499	0.08838
1261.33922	0.08885
1260.05345	0.08940
1258.76768	0.09000
1257.48191	0.09062
1256.19614	0.09126
1254.91037	0.09195
1253.62461	0.09272
1252.33884	0.09359
1251.05307	0.09458
1249.76730	0.09567
1248.48153	0.09682
1247.19576	0.09799
1245.90999	0.09914
1244.62422	0.10026
1243.33846	0.10137
1242.05269	0.10245
1240.76692	0.10346
1239.48115	0.10434
1238.19538	0.10503
1236.90961	0.10549
1235.62384	0.10574
1234.33807	0.10579
1233.05230	0.10567
1231.76654	0.10533
1230.48077	0.10477
1229.19500	0.10398
1227.90923	0.10295
1226.62346	0.10170
1225.33769	0.10027
1224.05192	0.09870
1222.76615	0.09707
1221.48039	0.09546
1220.19462	0.09390
1218.90885	0.09244
1217.62308	0.09107
1216.33731	0.08987
1215.05154	0.08892
1213.76577	0.08828
1212.48000	0.08796
1211.19423	0.08791
1209.90847	0.08803
1208.62270	0.08827
1207.33693	0.08861
1206.05116	0.08901
1204.76539	0.08938
1203.47962	0.08959
1202.19385	0.08954
1200.90808	0.08921
1199.62232	0.08861
1198.33655	0.08777
1197.05078	0.08674
1195.76501	0.08556
1194.47924	0.08427
1193.19347	0.08296
1191.90770	0.08172
1190.62193	0.08056
1189.33616	0.07947
1188.05040	0.07844
1186.76463	0.07746
1185.47886	0.07654
1184.19309	0.07571
1182.90732	0.07498
1181.62155	0.07435
1180.33578	0.07383
1179.05001	0.07338
1177.76425	0.07297
1176.47848	0.07260
1175.19271	0.07227
1173.90694	0.07203
1172.62117	0.07187
1171.33540	0.07177
1170.04963	0.07174
1168.76386	0.07171
1167.47809	0.07167
1166.19233	0.07162
1164.90656	0.07161
1163.62079	0.07165
1162.33502	0.07168
1161.04925	0.07165
1159.76348	0.07152
1158.47771	0.07129
1157.19194	0.07091
1155.90618	0.07034
1154.62041	0.06964
1153.33464	0.06890
1152.04887	0.06818
1150.76310	0.06745
1149.47733	0.06669
1148.19156	0.06589
1146.90579	0.06510
1145.62002	0.06441
1144.33426	0.06387
1143.04849	0.06343
1141.76272	0.06305
1140.47695	0.06267
1139.19118	0.06227
1137.90541	0.06187
1136.61964	0.06147
1135.33387	0.06108
1134.04811	0.06075
1132.76234	0.06050
1131.47657	0.06035
1130.19080	0.06025
1128.90503	0.06017
1127.61926	0.06007
1126.33349	0.05993
1125.04772	0.05977
1123.76195	0.05963
1122.47619	0.05957
1121.19042	0.05959
1119.90465	0.05966
1118.61888	0.05973
1117.33311	0.05982
1116.04734	0.05992
1114.76157	0.06002
1113.47580	0.06012
1112.19004	0.06026
1110.90427	0.06042
1109.61850	0.06060
1108.33273	0.06077
1107.04696	0.06092
1105.76119	0.06104
1104.47542	0.06117
1103.18965	0.06133
1101.90388	0.06154
1100.61812	0.06179
1099.33235	0.06206
1098.04658	0.06234
1096.76081	0.06264
1095.47504	0.06299
1094.18927	0.06338
1092.90350	0.06381
1091.61773	0.06430
1090.33197	0.06487
1089.04620	0.06557
1087.76043	0.06643
1086.47466	0.06741
1085.18889	0.06837
1083.90312	0.06916
1082.61735	0.06969
1081.33158	0.06994
1080.04581	0.06995
1078.76005	0.06974
1077.47428	0.06932
1076.18851	0.06875
1074.90274	0.06813
1073.61697	0.06758
1072.33120	0.06713
1071.04543	0.06677
1069.75966	0.06645
1068.47390	0.06614
1067.18813	0.06587
1065.90236	0.06567
1064.61659	0.06555
1063.33082	0.06548
1062.04505	0.06536
1060.75928	0.06516
1059.47351	0.06488
1058.18774	0.06456
1056.90198	0.06422
1055.61621	0.06385
1054.33044	0.06351
1053.04467	0.06319
1051.75890	0.06288
1050.47313	0.06254
1049.18736	0.06221
1047.90159	0.06196
1046.61583	0.06181
1045.33006	0.06173
1044.04429	0.06166
1042.75852	0.06161
1041.47275	0.06159
1040.18698	0.06166
1038.90121	0.06187
1037.61544	0.06225
1036.32967	0.06278
1035.04391	0.06341
1033.75814	0.06403
1032.47237	0.06454
1031.18660	0.06484
1029.90083	0.06488
1028.61506	0.06465
1027.32929	0.06414
1026.04352	0.06342
1024.75775	0.06259
1023.47199	0.06178
1022.18622	0.06107
1020.90045	0.06046
1019.61468	0.05990
1018.32891	0.05941
1017.04314	0.05902
1015.75737	0.05872
1014.47160	0.05845
1013.18584	0.05810
1011.90007	0.05761
1010.61430	0.05698
1009.32853	0.05632
1008.04276	0.05571
1006.75699	0.05515
1005.47122	0.05457
1004.18545	0.05397
1002.89968	0.05339
1001.61392	0.05287
1000.32815	0.05240
999.04238	0.05190
997.75661	0.05138
996.47084	0.05087
995.18507	0.05042
993.89930	0.05000
992.61353	0.04960
991.32777	0.04919
990.04200	0.04877
988.75623	0.04839
987.47046	0.04811
986.18469	0.04793
984.89892	0.04780
983.61315	0.04764
982.32738	0.04750
981.04161	0.04751
979.75585	0.04775
978.47008	0.04816
977.18431	0.04859
975.89854	0.04892
974.61277	0.04914
973.32700	0.04920
972.04123	0.04909
970.75546	0.04883
969.46970	0.04847
968.18393	0.04807
966.89816	0.04767
965.61239	0.04727
964.32662	0.04693
963.04085	0.04670
961.75508	0.04658
960.46931	0.04647
959.18354	0.04626
957.89778	0.04594
956.61201	0.04561
955.32624	0.04543
954.04047	0.04540
952.75470	0.04540
951.46893	0.04534
950.18316	0.04523
948.89739	0.04513
947.61163	0.04505
946.32586	0.04499
945.04009	0.04499
943.75432	0.04511
942.46855	0.04532
941.18278	0.04547
939.89701	0.04546
938.61124	0.04531
937.32547	0.04510
936.03971	0.04491
934.75394	0.04478
933.46817	0.04468
932.18240	0.04460
930.89663	0.04451
929.61086	0.04438
928.32509	0.04426
927.03932	0.04416
925.75356	0.04407
924.46779	0.04395
923.18202	0.04376
921.89625	0.04351
920.61048	0.04324
919.32471	0.04298
918.03894	0.04275
916.75317	0.04252
915.46740	0.04229
914.18164	0.04209
912.89587	0.04192
911.61010	0.04176
910.32433	0.04158
909.03856	0.04138
907.75279	0.04120
906.46702	0.04107
905.18125	0.04098
903.89549	0.04093
902.60972	0.04093
901.32395	0.04093
900.03818	0.04087
898.75241	0.04073
897.46664	0.04054
896.18087	0.04033
894.89510	0.04016
893.60933	0.04006
892.32357	0.04007
891.03780	0.04014
889.75203	0.04022
888.46626	0.04028
887.18049	0.04034
885.89472	0.04042
884.60895	0.04053
883.32318	0.04065
882.03742	0.04072
880.75165	0.04072
879.46588	0.04071
878.18011	0.04079
876.89434	0.04099
875.60857	0.04121
874.32280	0.04132
873.03703	0.04127
871.75126	0.04113
870.46550	0.04106
869.17973	0.04109
867.89396	0.04112
866.60819	0.04104
865.32242	0.04083
864.03665	0.04060
862.75088	0.04045
861.46511	0.04039
860.17935	0.04039
858.89358	0.04041
857.60781	0.04044
856.32204	0.04050
855.03627	0.04062
853.75050	0.04081
852.46473	0.04100
851.17896	0.04112
849.89319	0.04113
848.60743	0.04102
847.32166	0.04084
846.03589	0.04065
844.75012	0.04048
843.46435	0.04038
842.17858	0.04035
840.89281	0.04036
839.60704	0.04035
838.32128	0.04027
837.03551	0.04013
835.74974	0.04000
834.46397	0.03992
833.17820	0.03991
831.89243	0.03993
830.60666	0.03996
829.32089	0.04000
828.03512	0.04006
826.74936	0.04016
825.46359	0.04029
824.17782	0.04045
822.89205	0.04063
821.60628	0.04085
820.32051	0.04111
819.03474	0.04137
817.74897	0.04158
816.46321	0.04170
815.17744	0.04173
813.89167	0.04173
812.60590	0.04177
811.32013	0.04195
810.03436	0.04226
808.74859	0.04260
807.46282	0.04287
806.17705	0.04302
804.89129	0.04312
803.60552	0.04325
802.31975	0.04345
801.03398	0.04368
799.74821	0.04385
798.46244	0.04392
797.17667	0.04392
795.89090	0.04392
794.60513	0.04398
793.31937	0.04415
792.03360	0.04442
790.74783	0.04478
789.46206	0.04514
788.17629	0.04541
786.89052	0.04556
785.60475	0.04562
784.31898	0.04564
783.03322	0.04565
781.74745	0.04566
780.46168	0.04569
779.17591	0.04575
777.89014	0.04583
776.60437	0.04591
775.31860	0.04599
774.03283	0.04613
772.74706	0.04637
771.46130	0.04670
770.17553	0.04707
768.88976	0.04738
767.60399	0.04759
766.31822	0.04774
765.03245	0.04784
763.74668	0.04793
762.46091	0.04801
761.17515	0.04808
759.88938	0.04816
758.60361	0.04827
757.31784	0.04845
756.03207	0.04871
754.74630	0.04899
753.46053	0.04925
752.17476	0.04948
750.88899	0.04970
749.60323	0.04990
748.31746	0.05008
747.03169	0.05025
745.74592	0.05045
744.46015	0.05067
743.17438	0.05087
741.88861	0.05103
740.60284	0.05116
739.31708	0.05129
738.03131	0.05148
736.74554	0.05177
735.45977	0.05213
734.17400	0.05250
732.88823	0.05283
731.60246	0.05314
730.31669	0.05342
729.03092	0.05370
727.74516	0.05395
726.45939	0.05418
725.17362	0.05442
723.88785	0.05467
722.60208	0.05507
721.31631	0.05550
720.03054	0.05587
718.74477	0.05615
717.45901	0.05639
716.17324	0.05660
714.88747	0.05675
713.60170	0.05684
712.31593	0.05692
711.03016	0.05706
709.74439	0.05731
708.45862	0.05764
707.17285	0.05798
705.88709	0.05830
704.60132	0.05858
703.31555	0.05881
702.02978	0.05900
700.74401	0.05917
699.45824	0.05933
698.17247	0.05951
696.88670	0.05971
695.60094	0.05994
694.31517	0.06016
693.02940	0.06030
691.74363	0.06038
690.45786	0.06043
689.17209	0.06051
687.88632	0.06063
686.60055	0.06076
685.31478	0.06088
684.02902	0.06099
682.74325	0.06114
681.45748	0.06133
680.17171	0.06154
678.88594	0.06175
677.60017	0.06194
676.31440	0.06210
675.02863	0.06223
673.74287	0.06235
672.45710	0.06248
671.17133	0.06264
669.88556	0.06285
668.59979	0.06305
667.31402	0.06318
666.02825	0.06335
664.74248	0.06349
663.45671	0.06357
662.17095	0.06364
660.88518	0.06374
659.59941	0.06390
658.31364	0.06408
657.02787	0.06423
655.74210	0.06432
654.45633	0.06438
653.17056	0.06445
651.88480	0.06454
650.59903	0.06465
649.31326	0.06476
648.02749	0.06485
646.74172	0.06490
645.45595	0.06493
644.17018	0.06498
642.88441	0.06505
641.59864	0.06509
640.31288	0.06505
639.02711	0.06496
637.74134	0.06490
636.45557	0.06492
635.16980	0.06504
633.88403	0.06517
632.59826	0.06523
631.31249	0.06516
630.02673	0.06493
628.74096	0.06460
627.45519	0.06441
626.16942	0.06395
624.88365	0.06334
623.59788	0.06282
622.31211	0.06243
621.02634	0.06218
619.74057	0.06245
618.45481	0.06390
617.16904	0.06633
615.88327	0.06832
614.59750	0.06848
613.31173	0.06684
612.02596	0.06480
610.74019	0.06371
609.45442	0.06371
608.16866	0.06394
606.88289	0.06374
605.59712	0.06324
604.31135	0.06301
603.02558	0.06330
601.73981	0.06387
600.45404	0.06439
599.16827	0.06486
597.88250	0.06543
596.59674	0.06608
595.31097	0.06656
594.02520	0.06667
592.73943	0.06650
591.45366	0.06629
590.16789	0.06624
588.88212	0.06634
587.59635	0.06643
586.31059	0.06639
585.02482	0.06625
583.73905	0.06612
582.45328	0.06611
581.16751	0.06614
579.88174	0.06610
578.59597	0.06596
577.31020	0.06585
576.02443	0.06589
574.73867	0.06610
573.45290	0.06636
572.16713	0.06653
570.88136	0.06665
569.59559	0.06679
568.30982	0.06697
567.02405	0.06713
565.73828	0.06722
564.45251	0.06728
563.16675	0.06733
561.88098	0.06739
560.59521	0.06741
559.30944	0.06739
558.02367	0.06739
556.73790	0.06748
555.45213	0.06765
554.16636	0.06781
552.88060	0.06787
551.59483	0.06785
550.30906	0.06783
549.02329	0.06785
547.73752	0.06781
546.45175	0.06762
545.16598	0.06725
543.88021	0.06679
542.59444	0.06638
541.30868	0.06612
540.02291	0.06607
538.73714	0.06622
537.45137	0.06651
536.16560	0.06684
534.87983	0.06713
533.59406	0.06731
532.30829	0.06733
531.02253	0.06718
529.73676	0.06698
528.45099	0.06689
527.16522	0.06691
525.87945	0.06692
524.59368	0.06678
523.30791	0.06651
522.02214	0.06618
520.73637	0.06588
519.45061	0.06555
518.16484	0.06517
516.87907	0.06480
515.59330	0.06456
514.30753	0.06451
513.02176	0.06460
511.73599	0.06467
510.45022	0.06460
509.16446	0.06438
507.87869	0.06406
506.59292	0.06370
505.30715	0.06335
504.02138	0.06305
502.73561	0.06276
501.44984	0.06248
500.16407	0.06226
498.87830	0.06212
497.59254	0.06200
496.30677	0.06184
495.02100	0.06162
493.73523	0.06139
492.44946	0.06119
491.16369	0.06104
489.87792	0.06093
488.59215	0.06081
487.30639	0.06064
486.02062	0.06042
484.73485	0.06020
483.44908	0.06002
482.16331	0.05985
480.87754	0.05968
479.59177	0.05951
478.30600	0.05936
477.02023	0.05926
475.73447	0.05917
474.44870	0.05904
473.16293	0.05883
471.87716	0.05851
470.59139	0.05814
469.30562	0.05781
468.01985	0.05761
466.73408	0.05754
465.44832	0.05750
464.16255	0.05735
462.87678	0.05703
461.59101	0.05659
460.30524	0.05618
459.01947	0.05589
457.73370	0.05567
456.44793	0.05546
455.16216	0.05529
453.87640	0.05517
452.59063	0.05507
451.30486	0.05489
450.01909	0.05458
448.73332	0.05418
447.44755	0.05375
446.16178	0.05339
444.87601	0.05311
443.59025	0.05289
442.30448	0.05268
441.01871	0.05249
439.73294	0.05231
438.44717	0.05214
437.16140	0.05195
435.87563	0.05173
434.58986	0.05151
433.30409	0.05131
432.01833	0.05114
430.73256	0.05096
429.44679	0.05076
428.16102	0.05056
426.87525	0.05036
425.58948	0.05015
424.30371	0.04989
423.01794	0.04958
421.73218	0.04926
420.44641	0.04903
419.16064	0.04888
417.87487	0.04876
416.58910	0.04862
415.30333	0.04843
414.01756	0.04821
412.73179	0.04804
411.44602	0.04791
410.16026	0.04774
408.87449	0.04748
407.58872	0.04714
406.30295	0.04683
405.01718	0.04660
403.73141	0.04643
402.44564	0.04628
401.15987	0.04612
399.87411	0.04595
