3996.16951	0.03894
3994.24086	0.03877
3992.31221	0.03870
3990.38355	0.03886
3988.45490	0.03919
3986.52625	0.03943
3984.59759	0.03940
3982.66894	0.03904
3980.74029	0.03861
3978.81163	0.03854
3976.88298	0.03876
3974.95433	0.03888
3973.02567	0.03879
3971.09702	0.03854
3969.16837	0.03840
3967.23972	0.03877
3965.31106	0.03925
3963.38241	0.03936
3961.45376	0.03947
3959.52510	0.03949
3957.59645	0.03912
3955.66780	0.03883
3953.73914	0.03872
3951.81049	0.03862
3949.88184	0.03863
3947.95318	0.03856
3946.02453	0.03830
3944.09588	0.03805
3942.16722	0.03813
3940.23857	0.03842
3938.30992	0.03827
3936.38126	0.03767
3934.45261	0.03726
3932.52396	0.03737
3930.59530	0.03769
3928.66665	0.03770
3926.73800	0.03744
3924.80934	0.03735
3922.88069	0.03759
3920.95204	0.03763
3919.02338	0.03731
3917.09473	0.03729
3915.16608	0.03768
3913.23742	0.03764
3911.30877	0.03742
3909.38012	0.03759
3907.45146	0.03767
3905.52281	0.03725
3903.59416	0.03709
3901.66550	0.03744
3899.73685	0.03759
3897.80820	0.03765
3895.87955	0.03777
3893.95089	0.03764
3892.02224	0.03721
3890.09359	0.03704
3888.16493	0.03690
3886.23628	0.03683
3884.30763	0.03759
3882.37897	0.03765
3880.45032	0.03671
3878.52167	0.03643
3876.59301	0.03658
3874.66436	0.03671
3872.73571	0.03681
3870.80705	0.03654
3868.87840	0.03707
3866.94975	0.03765
3865.02109	0.03713
3863.09244	0.03668
3861.16379	0.03639
3859.23513	0.03647
3857.30648	0.03694
3855.37783	0.03660
3853.44917	0.03635
3851.52052	0.03708
3849.59187	0.03727
3847.66321	0.03673
3845.73456	0.03591
3843.80591	0.03510
3841.87725	0.03492
3839.94860	0.03503
3838.01995	0.03521
3836.09129	0.03563
3834.16264	0.03543
3832.23399	0.03502
3830.30534	0.03518
3828.37668	0.03535
3826.44803	0.03522
3824.51938	0.03493
3822.59072	0.03424
3820.66207	0.03453
3818.73342	0.03543
3816.80476	0.03513
3814.87611	0.03525
3812.94746	0.03561
3811.01880	0.03529
3809.09015	0.03490
3807.16150	0.03473
3805.23284	0.03525
3803.30419	0.03490
3801.37554	0.03450
3799.44688	0.03564
3797.51823	0.03570
3795.58958	0.03451
3793.66092	0.03380
3791.73227	0.03404
3789.80362	0.03492
3787.87496	0.03547
3785.94631	0.03504
3784.01766	0.03414
3782.08900	0.03358
3780.16035	0.03344
3778.23170	0.03350
3776.30304	0.03336
3774.37439	0.03343
3772.44574	0.03391
3770.51708	0.03393
3768.58843	0.03388
3766.65978	0.03413
3764.73112	0.03453
3762.80247	0.03462
3760.87382	0.03422
3758.94517	0.03424
3757.01651	0.03466
3755.08786	0.03480
3753.15921	0.03430
3751.23055	0.03395
3749.30190	0.03410
3747.37325	0.03430
3745.44459	0.03323
3743.51594	0.03315
3741.58729	0.03433
3739.65863	0.03448
3737.72998	0.03380
3735.80133	0.03326
3733.87267	0.03326
3731.94402	0.03316
3730.01537	0.03322
3728.08671	0.03328
3726.15806	0.03367
3724.22941	0.03428
3722.30075	0.03425
3720.37210	0.03371
3718.44345	0.03322
3716.51479	0.03312
3714.58614	0.03270
3712.65749	0.03163
3710.72883	0.03141
3708.80018	0.03218
3706.87153	0.03273
3704.94287	0.03291
3703.01422	0.03307
3701.08557	0.03334
3699.15691	0.03337
3697.22826	0.03286
3695.29961	0.03265
3693.37095	0.03329
3691.44230	0.03388
3689.51365	0.03311
3687.58500	0.03224
3685.65634	0.03225
3683.72769	0.03239
3681.79904	0.03312
3679.87038	0.03415
3677.94173	0.03421
3676.01308	0.03331
3674.08442	0.03337
3672.15577	0.03306
3670.22712	0.03228
3668.29846	0.03274
3666.36981	0.03296
3664.44116	0.03247
3662.51250	0.03246
3660.58385	0.03323
3658.65520	0.03388
3656.72654	0.03377
3654.79789	0.03338
3652.86924	0.03260
3650.94058	0.03200
3649.01193	0.03250
3647.08328	0.03339
3645.15462	0.03403
3643.22597	0.03459
3641.29732	0.03489
3639.36866	0.03468
3637.44001	0.03434
3635.51136	0.03433
3633.58270	0.03452
3631.65405	0.03437
3629.72540	0.03405
3627.79674	0.03492
3625.86809	0.03568
3623.93944	0.03529
3622.01079	0.03512
3620.08213	0.03559
3618.15348	0.03673
3616.22483	0.03768
3614.29617	0.03739
3612.36752	0.03671
3610.43887	0.03658
3608.51021	0.03670
3606.58156	0.03678
3604.65291	0.03693
3602.72425	0.03731
3600.79560	0.03771
3598.86695	0.03789
3596.93829	0.03761
3595.00964	0.03726
3593.08099	0.03777
3591.15233	0.03876
3589.22368	0.03877
3587.29503	0.03809
3585.36637	0.03801
3583.43772	0.03849
3581.50907	0.03902
3579.58041	0.03956
3577.65176	0.04002
3575.72311	0.04011
3573.79445	0.03996
3571.86580	0.04017
3569.93715	0.04083
3568.00849	0.04138
3566.07984	0.04172
3564.15119	0.04189
3562.22253	0.04173
3560.29388	0.04150
3558.36523	0.04183
3556.43657	0.04248
3554.50792	0.04267
3552.57927	0.04237
3550.65062	0.04225
3548.72196	0.04244
3546.79331	0.04271
3544.86466	0.04321
3542.93600	0.04399
3541.00735	0.04471
3539.07870	0.04504
3537.15004	0.04493
3535.22139	0.04463
3533.29274	0.04446
3531.36408	0.04451
3529.43543	0.04469
3527.50678	0.04517
3525.57812	0.04583
3523.64947	0.04605
3521.72082	0.04580
3519.79216	0.04566
3517.86351	0.04588
3515.93486	0.04631
3514.00620	0.04678
3512.07755	0.04713
3510.14890	0.04730
3508.22024	0.04740
3506.29159	0.04749
3504.36294	0.04758
3502.43428	0.04754
3500.50563	0.04741
3498.57698	0.04746
3496.64832	0.04773
3494.71967	0.04817
3492.79102	0.04881
3490.86236	0.04942
3488.93371	0.04962
3487.00506	0.04929
3485.07641	0.04891
3483.14775	0.04911
3481.21910	0.04961
3479.29045	0.04977
3477.36179	0.04973
3475.43314	0.04992
3473.50449	0.05012
3471.57583	0.05002
3469.64718	0.05000
3467.71853	0.05048
3465.78987	0.05114
3463.86122	0.05142
3461.93257	0.05136
3460.00391	0.05151
3458.07526	0.05202
3456.14661	0.05249
3454.21795	0.05272
3452.28930	0.05292
3450.36065	0.05313
3448.43199	0.05327
3446.50334	0.05330
3444.57469	0.05300
3442.64603	0.05264
3440.71738	0.05271
3438.78873	0.05308
3436.86007	0.05355
3434.93142	0.05415
3433.00277	0.05470
3431.07411	0.05511
3429.14546	0.05529
3427.21681	0.05520
3425.28815	0.05506
3423.35950	0.05506
3421.43085	0.05533
3419.50219	0.05578
3417.57354	0.05614
3415.64489	0.05659
3413.71624	0.05708
3411.78758	0.05709
3409.85893	0.05694
3407.93028	0.05714
3406.00162	0.05720
3404.07297	0.05694
3402.14432	0.05697
3400.21566	0.05751
3398.28701	0.05802
3396.35836	0.05822
3394.42970	0.05830
3392.50105	0.05834
3390.57240	0.05839
3388.64374	0.05876
3386.71509	0.05933
3384.78644	0.05948
3382.85778	0.05910
3380.92913	0.05875
3379.00048	0.05888
3377.07182	0.05939
3375.14317	0.05986
3373.21452	0.06004
3371.28586	0.06014
3369.35721	0.06036
3367.42856	0.06066
3365.49990	0.06106
3363.57125	0.06145
3361.64260	0.06159
3359.71394	0.06152
3357.78529	0.06179
3355.85664	0.06256
3353.92798	0.06323
3351.99933	0.06350
3350.07068	0.06371
3348.14202	0.06415
3346.21337	0.06474
3344.28472	0.06510
3342.35607	0.06523
3340.42741	0.06534
3338.49876	0.06549
3336.57011	0.06566
3334.64145	0.06593
3332.71280	0.06635
3330.78415	0.06683
3328.85549	0.06734
3326.92684	0.06789
3324.99819	0.06817
3323.06953	0.06818
3321.14088	0.06833
3319.21223	0.06852
3317.28357	0.06845
3315.35492	0.06849
3313.42627	0.06880
3311.49761	0.06889
3309.56896	0.06885
3307.64031	0.06919
3305.71165	0.06980
3303.78300	0.07018
3301.85435	0.07020
3299.92569	0.07008
3297.99704	0.06994
3296.06839	0.06971
3294.13973	0.06947
3292.21108	0.06940
3290.28243	0.06945
3288.35377	0.06942
3286.42512	0.06931
3284.49647	0.06936
3282.56781	0.06961
3280.63916	0.06971
3278.71051	0.06937
3276.78186	0.06884
3274.85320	0.06843
3272.92455	0.06816
3270.99590	0.06793
3269.06724	0.06769
3267.13859	0.06746
3265.20994	0.06729
3263.28128	0.06688
3261.35263	0.06613
3259.42398	0.06563
3257.49532	0.06566
3255.56667	0.06569
3253.63802	0.06534
3251.70936	0.06483
3249.78071	0.06442
3247.85206	0.06421
3245.92340	0.06429
3243.99475	0.06428
3242.06610	0.06377
3240.13744	0.06325
3238.20879	0.06335
3236.28014	0.06360
3234.35148	0.06325
3232.42283	0.06248
3230.49418	0.06184
3228.56552	0.06147
3226.63687	0.06124
3224.70822	0.06113
3222.77956	0.06129
3220.85091	0.06156
3218.92226	0.06164
3216.99360	0.06143
3215.06495	0.06096
3213.13630	0.06050
3211.20764	0.06016
3209.27899	0.05975
3207.35034	0.05934
3205.42169	0.05927
3203.49303	0.05955
3201.56438	0.05984
3199.63573	0.05976
3197.70707	0.05926
3195.77842	0.05859
3193.84977	0.05790
3191.92111	0.05752
3189.99246	0.05773
3188.06381	0.05816
3186.13515	0.05813
3184.20650	0.05757
3182.27785	0.05702
3180.34919	0.05677
3178.42054	0.05646
3176.49189	0.05590
3174.56323	0.05552
3172.63458	0.05551
3170.70593	0.05525
3168.77727	0.05461
3166.84862	0.05406
3164.91997	0.05362
3162.99131	0.05317
3161.06266	0.05288
3159.13401	0.05268
3157.20535	0.05233
3155.27670	0.05181
3153.34805	0.05135
3151.41939	0.05117
3149.49074	0.05112
3147.56209	0.05090
3145.63343	0.05061
3143.70478	0.05040
3141.77613	0.05021
3139.84748	0.05006
3137.91882	0.04988
3135.99017	0.04955
3134.06152	0.04905
3132.13286	0.04858
3130.20421	0.04840
3128.27556	0.04840
3126.34690	0.04837
3124.41825	0.04831
3122.48960	0.04823
3120.56094	0.04820
3118.63229	0.04836
3116.70364	0.04846
3114.77498	0.04818
3112.84633	0.04787
3110.91768	0.04801
3108.98902	0.04831
3107.06037	0.04842
3105.13172	0.04844
3103.20306	0.04846
3101.27441	0.04835
3099.34576	0.04802
3097.41710	0.04759
3095.48845	0.04732
3093.55980	0.04741
3091.63114	0.04776
3089.70249	0.04813
3087.77384	0.04836
3085.84518	0.04853
3083.91653	0.04878
3081.98788	0.04889
3080.05922	0.04879
3078.13057	0.04870
3076.20192	0.04874
3074.27326	0.04872
3072.34461	0.04850
3070.41596	0.04835
3068.48731	0.04848
3066.55865	0.04870
3064.63000	0.04876
3062.70135	0.04855
3060.77269	0.04823
3058.84404	0.04803
3056.91539	0.04806
3054.98673	0.04817
3053.05808	0.04820
3051.12943	0.04808
3049.20077	0.04780
3047.27212	0.04730
3045.34347	0.04672
3043.41481	0.04641
3041.48616	0.04634
3039.55751	0.04613
3037.62885	0.04577
3035.70020	0.04550
3033.77155	0.04544
3031.84289	0.04549
3029.91424	0.04552
3027.98559	0.04548
3026.05693	0.04546
3024.12828	0.04559
3022.19963	0.04577
3020.27097	0.04601
3018.34232	0.04645
3016.41367	0.04713
3014.48501	0.04817
3012.55636	0.04950
3010.62771	0.05074
3008.69905	0.05173
3006.77040	0.05261
3004.84175	0.05322
3002.91309	0.05323
3000.98444	0.05258
2999.05579	0.05164
2997.12714	0.05069
2995.19848	0.04993
2993.26983	0.04951
2991.34118	0.04945
2989.41252	0.04963
2987.48387	0.04998
2985.55522	0.05047
2983.62656	0.05132
2981.69791	0.05265
2979.76926	0.05411
2977.84060	0.05540
2975.91195	0.05678
2973.98330	0.05876
2972.05464	0.06161
2970.12599	0.06510
2968.19734	0.06882
2966.26868	0.07257
2964.34003	0.07650
2962.41138	0.08079
2960.48272	0.08518
2958.55407	0.08910
2956.62542	0.09197
2954.69676	0.09345
2952.76811	0.09378
2950.83946	0.09374
2948.91080	0.09414
2946.98215	0.09574
2945.05350	0.09898
2943.12484	0.10385
2941.19619	0.11030
2939.26754	0.11820
2937.33888	0.12710
2935.41023	0.13678
2933.48158	0.14725
2931.55293	0.15828
2929.62427	0.16940
2927.69562	0.18005
2925.76697	0.18911
2923.83831	0.19533
2921.90966	0.19789
2919.98101	0.19641
2918.05235	0.19133
2916.12370	0.18320
2914.19505	0.17254
2912.26639	0.16084
2910.33774	0.14998
2908.40909	0.14076
2906.48043	0.13306
2904.55178	0.12649
2902.62313	0.12079
2900.69447	0.11566
2898.76582	0.11088
2896.83717	0.10657
2894.90851	0.10270
2892.97986	0.09885
2891.05121	0.09493
2889.12255	0.09142
2887.19390	0.08845
2885.26525	0.08565
2883.33659	0.08320
2881.40794	0.08168
2879.47929	0.08130
2877.55063	0.08182
2875.62198	0.08311
2873.69333	0.08484
2871.76467	0.08634
2869.83602	0.08752
2867.90737	0.08898
2865.97871	0.09168
2864.05006	0.09652
2862.12141	0.10389
2860.19276	0.11375
2858.26410	0.12538
2856.33545	0.13705
2854.40680	0.14627
2852.47814	0.15040
2850.54949	0.14763
2848.62084	0.13830
2846.69218	0.12481
2844.76353	0.11043
2842.83488	0.09765
2840.90622	0.08747
2838.97757	0.07985
2837.04892	0.07436
2835.12026	0.07039
2833.19161	0.06735
2831.26296	0.06479
2829.33430	0.06241
2827.40565	0.06012
2825.47700	0.05804
2823.54834	0.05632
2821.61969	0.05506
2819.69104	0.05413
2817.76238	0.05323
2815.83373	0.05231
2813.90508	0.05147
2811.97642	0.05073
2810.04777	0.05002
2808.11912	0.04929
2806.19046	0.04870
2804.26181	0.04827
2802.33316	0.04784
2800.40450	0.04741
2798.47585	0.04697
2796.54720	0.04640
2794.61855	0.04584
2792.68989	0.04540
2790.76124	0.04494
2788.83259	0.04460
2786.90393	0.04453
2784.97528	0.04438
2783.04663	0.04389
2781.11797	0.04334
2779.18932	0.04301
2777.26067	0.04288
2775.33201	0.04282
2773.40336	0.04262
2771.47471	0.04227
2769.54605	0.04196
2767.61740	0.04175
2765.68875	0.04160
2763.76009	0.04145
2761.83144	0.04123
2759.90279	0.04106
2757.97413	0.04101
2756.04548	0.04087
2754.11683	0.04061
2752.18817	0.04056
2750.25952	0.04060
2748.33087	0.04035
2746.40221	0.04005
2744.47356	0.03991
2742.54491	0.03972
2740.61625	0.03943
2738.68760	0.03923
2736.75895	0.03929
2734.83029	0.03939
2732.90164	0.03931
2730.97299	0.03911
2729.04433	0.03892
2727.11568	0.03880
2725.18703	0.03873
2723.25838	0.03862
2721.32972	0.03852
2719.40107	0.03843
2717.47242	0.03818
2715.54376	0.03796
2713.61511	0.03794
2711.68646	0.03789
2709.75780	0.03770
2707.82915	0.03749
2705.90050	0.03732
2703.97184	0.03724
2702.04319	0.03729
2700.11454	0.03741
2698.18588	0.03745
2696.25723	0.03724
2694.32858	0.03685
2692.39992	0.03653
2690.47127	0.03649
2688.54262	0.03664
2686.61396	0.03677
2684.68531	0.03678
2682.75666	0.03661
2680.82800	0.03641
2678.89935	0.03639
2676.97070	0.03646
2675.04204	0.03637
2673.11339	0.03625
2671.18474	0.03624
2669.25608	0.03619
2667.32743	0.03607
2665.39878	0.03602
2663.47012	0.03603
2661.54147	0.03589
2659.61282	0.03550
2657.68417	0.03503
2655.75551	0.03472
2653.82686	0.03449
2651.89821	0.03421
2649.96955	0.03392
2648.04090	0.03369
2646.11225	0.03359
2644.18359	0.03345
2642.25494	0.03307
2640.32629	0.03273
2638.39763	0.03258
2636.46898	0.03242
2634.54033	0.03219
2632.61167	0.03189
2630.68302	0.03171
2628.75437	0.03166
2626.82571	0.03158
2624.89706	0.03155
2622.96841	0.03146
2621.03975	0.03115
2619.11110	0.03083
2617.18245	0.03072
2615.25379	0.03063
2613.32514	0.03052
2611.39649	0.03052
2609.46783	0.03038
2607.53918	0.02996
2605.61053	0.02961
2603.68187	0.02954
2601.75322	0.02968
2599.82457	0.02974
2597.89591	0.02946
2595.96726	0.02914
2594.03861	0.02911
2592.10995	0.02909
2590.18130	0.02885
2588.25265	0.02854
2586.32400	0.02825
2584.39534	0.02805
2582.46669	0.02802
2580.53804	0.02811
2578.60938	0.02820
2576.68073	0.02818
2574.75208	0.02810
2572.82342	0.02809
2570.89477	0.02812
2568.96612	0.02808
2567.03746	0.02775
2565.10881	0.02732
2563.18016	0.02714
2561.25150	0.02699
2559.32285	0.02685
2557.39420	0.02701
2555.46554	0.02730
2553.53689	0.02739
2551.60824	0.02738
2549.67958	0.02728
2547.75093	0.02701
2545.82228	0.02673
2543.89362	0.02675
2541.96497	0.02696
2540.03632	0.02694
2538.10766	0.02652
2536.17901	0.02595
2534.25036	0.02573
2532.32170	0.02596
2530.39305	0.02630
2528.46440	0.02641
2526.53574	0.02640
2524.60709	0.02631
2522.67844	0.02600
2520.74978	0.02557
2518.82113	0.02533
2516.89248	0.02542
2514.96383	0.02554
2513.03517	0.02554
2511.10652	0.02555
2509.17787	0.02565
2507.24921	0.02579
2505.32056	0.02573
2503.39191	0.02544
2501.46325	0.02514
2499.53460	0.02494
2497.60595	0.02488
2495.67729	0.02498
2493.74864	0.02519
2491.81999	0.02539
2489.89133	0.02539
2487.96268	0.02521
2486.03403	0.02517
2484.10537	0.02533
2482.17672	0.02545
2480.24807	0.02522
2478.31941	0.02472
2476.39076	0.02457
2474.46211	0.02471
2472.53345	0.02449
2470.60480	0.02414
2468.67615	0.02424
2466.74749	0.02466
2464.81884	0.02501
2462.89019	0.02518
2460.96153	0.02514
2459.03288	0.02487
2457.10423	0.02444
2455.17557	0.02400
2453.24692	0.02377
2451.31827	0.02390
2449.38962	0.02417
2447.46096	0.02420
2445.53231	0.02409
2443.60366	0.02408
2441.67500	0.02415
2439.74635	0.02419
2437.81770	0.02410
2435.88904	0.02392
2433.96039	0.02381
2432.03174	0.02389
2430.10308	0.02405
2428.17443	0.02403
2426.24578	0.02390
2424.31712	0.02400
2422.38847	0.02432
2420.45982	0.02443
2418.53116	0.02452
2416.60251	0.02477
2414.67386	0.02465
2412.74520	0.02420
2410.81655	0.02425
2408.88790	0.02466
2406.95924	0.02464
2405.03059	0.02423
2403.10194	0.02404
2401.17328	0.02427
2399.24463	0.02444
2397.31598	0.02424
2395.38732	0.02395
2393.45867	0.02407
2391.53002	0.02449
2389.60136	0.02483
2387.67271	0.02498
2385.74406	0.02505
2383.81540	0.02514
2381.88675	0.02526
2379.95810	0.02537
2378.02945	0.02555
2376.10079	0.02573
2374.17214	0.02568
2372.24349	0.02558
2370.31483	0.02570
2368.38618	0.02597
2366.45753	0.02610
2364.52887	0.02604
2362.60022	0.02593
2360.67157	0.02608
2358.74291	0.02556
2356.81426	0.02593
2354.88561	0.02579
2352.95695	0.02537
2351.02830	0.02534
2349.09965	0.02544
2347.17099	0.02571
2345.24234	0.02608
2343.31369	0.02590
2341.38503	0.02514
2339.45638	0.02499
2337.52773	0.02529
2335.59907	0.02572
2333.67042	0.02601
2331.74177	0.02608
2329.81311	0.02598
2327.88446	0.02560
2325.95581	0.02507
2324.02715	0.02471
2322.09850	0.02472
2320.16985	0.02478
2318.24119	0.02450
2316.31254	0.02387
2314.38389	0.02325
2312.45524	0.02304
2310.52658	0.02321
2308.59793	0.02326
2306.66928	0.02292
2304.74062	0.02257
2302.81197	0.02235
2300.88332	0.02221
2298.95466	0.02214
2297.02601	0.02198
2295.09736	0.02154
2293.16870	0.02091
2291.24005	0.02045
2289.31140	0.02025
2287.38274	0.02000
2285.45409	0.01964
2283.52544	0.01954
2281.59678	0.01982
2279.66813	0.01999
2277.73948	0.01966
2275.81082	0.01918
2273.88217	0.01902
2271.95352	0.01909
2270.02486	0.01913
2268.09621	0.01884
2266.16756	0.01839
2264.23890	0.01876
2262.31025	0.01989
2260.38160	0.02045
2258.45294	0.02008
2256.52429	0.01957
2254.59564	0.01911
2252.66698	0.01834
2250.73833	0.01758
2248.80968	0.01742
2246.88102	0.01739
2244.95237	0.01695
2243.02372	0.01646
2241.09507	0.01614
2239.16641	0.01578
2237.23776	0.01562
2235.30911	0.01596
2233.38045	0.01645
2231.45180	0.01686
2229.52315	0.01719
2227.59449	0.01717
2225.66584	0.01678
2223.73719	0.01650
2221.80853	0.01629
2219.87988	0.01569
2217.95123	0.01512
2216.02257	0.01516
2214.09392	0.01496
2212.16527	0.01398
2210.23661	0.01334
2208.30796	0.01371
2206.37931	0.01402
2204.45065	0.01342
2202.52200	0.01280
2200.59335	0.01315
2198.66469	0.01401
2196.73604	0.01449
2194.80739	0.01401
2192.87873	0.01278
2190.95008	0.01188
2189.02143	0.01183
2187.09277	0.01207
2185.16412	0.01208
2183.23547	0.01195
2181.30681	0.01200
2179.37816	0.01234
2177.44951	0.01238
2175.52085	0.01144
2173.59220	0.01000
2171.66355	0.00902
2169.73490	0.00905
2167.80624	0.00994
2165.87759	0.01020
2163.94894	0.00907
2162.02028	0.00764
2160.09163	0.00724
2158.16298	0.00839
2156.23432	0.00994
2154.30567	0.01076
2152.37702	0.01113
2150.44836	0.01154
2148.51971	0.01162
2146.59106	0.01113
2144.66240	0.01124
2142.73375	0.01263
2140.80510	0.01458
2138.87644	0.01618
2136.94779	0.01697
2135.01914	0.01695
2133.09048	0.01638
2131.16183	0.01607
2129.23318	0.01622
2127.30452	0.01626
2125.37587	0.01651
2123.44722	0.01718
2121.51856	0.01751
2119.58991	0.01743
2117.66126	0.01726
2115.73260	0.01690
2113.80395	0.01660
2111.87530	0.01666
2109.94664	0.01675
2108.01799	0.01667
2106.08934	0.01669
2104.16069	0.01680
2102.23203	0.01651
2100.30338	0.01579
2098.37473	0.01491
2096.44607	0.01503
2094.51742	0.01605
2092.58877	0.01680
2090.66011	0.01662
2088.73146	0.01592
2086.80281	0.01543
2084.87415	0.01560
2082.94550	0.01578
2081.01685	0.01523
2079.08819	0.01409
2077.15954	0.01340
2075.23089	0.01370
2073.30223	0.01418
2071.37358	0.01404
2069.44493	0.01335
2067.51627	0.01269
2065.58762	0.01256
2063.65897	0.01297
2061.73031	0.01360
2059.80166	0.01409
2057.87301	0.01398
2055.94435	0.01348
2054.01570	0.01313
2052.08705	0.01258
2050.15839	0.01120
2048.22974	0.00955
2046.30109	0.00870
2044.37243	0.00886
2042.44378	0.00929
2040.51513	0.00913
2038.58647	0.00836
2036.65782	0.00761
2034.72917	0.00751
2032.80052	0.00809
2030.87186	0.00851
2028.94321	0.00824
2027.01456	0.00779
2025.08590	0.00721
2023.15725	0.00638
2021.22860	0.00633
2019.29994	0.00736
2017.37129	0.00815
2015.44264	0.00843
2013.51398	0.00906
2011.58533	0.00970
2009.65668	0.00945
2007.72802	0.00866
2005.79937	0.00834
2003.87072	0.00884
2001.94206	0.00986
2000.01341	0.01098
1998.08476	0.01186
1996.15610	0.01210
1994.22745	0.01167
1992.29880	0.01138
1990.37014	0.01166
1988.44149	0.01198
1986.51284	0.01174
1984.58418	0.01086
1982.65553	0.00947
1980.72688	0.00768
1978.79822	0.00610
1976.86957	0.00565
1974.94092	0.00614
1973.01226	0.00675
1971.08361	0.00760
1969.15496	0.00885
1967.22631	0.01000
1965.29765	0.01053
1963.36900	0.01048
1961.44035	0.01057
1959.51169	0.01128
1957.58304	0.01226
1955.65439	0.01293
1953.72573	0.01276
1951.79708	0.01187
1949.86843	0.01123
1947.93977	0.01148
1946.01112	0.01231
1944.08247	0.01304
1942.15381	0.01361
1940.22516	0.01432
1938.29651	0.01474
1936.36785	0.01452
1934.43920	0.01415
1932.51055	0.01414
1930.58189	0.01429
1928.65324	0.01434
1926.72459	0.01438
1924.79593	0.01474
1922.86728	0.01556
1920.93863	0.01622
1919.00997	0.01587
1917.08132	0.01507
1915.15267	0.01458
1913.22401	0.01453
1911.29536	0.01480
1909.36671	0.01499
1907.43805	0.01501
1905.50940	0.01492
1903.58075	0.01468
1901.65209	0.01451
1899.72344	0.01465
1897.79479	0.01499
1895.86614	0.01521
1893.93748	0.01518
1892.00883	0.01520
1890.08018	0.01554
1888.15152	0.01590
1886.22287	0.01579
1884.29422	0.01535
1882.36556	0.01498
1880.43691	0.01494
1878.50826	0.01520
1876.57960	0.01541
1874.65095	0.01541
1872.72230	0.01532
1870.79364	0.01523
1868.86499	0.01537
1866.93634	0.01583
1865.00768	0.01611
1863.07903	0.01604
1861.15038	0.01603
1859.22172	0.01625
1857.29307	0.01656
1855.36442	0.01680
1853.43576	0.01674
1851.50711	0.01641
1849.57846	0.01625
1847.64980	0.01640
1845.72115	0.01643
1843.79250	0.01640
1841.86384	0.01662
1839.93519	0.01655
1838.00654	0.01632
1836.07788	0.01640
1834.14923	0.01656
1832.22058	0.01642
1830.29192	0.01614
1828.36327	0.01615
1826.43462	0.01618
1824.50597	0.01609
1822.57731	0.01601
1820.64866	0.01597
1818.72001	0.01621
1816.79135	0.01677
1814.86270	0.01728
1812.93405	0.01735
1811.00539	0.01715
1809.07674	0.01701
1807.14809	0.01702
1805.21943	0.01714
1803.29078	0.01719
1801.36213	0.01710
1799.43347	0.01703
1797.50482	0.01703
1795.57617	0.01710
1793.64751	0.01708
1791.71886	0.01709
1789.79021	0.01725
1787.86155	0.01726
1785.93290	0.01721
1784.00425	0.01731
1782.07559	0.01741
1780.14694	0.01737
1778.21829	0.01746
1776.28963	0.01779
1774.36098	0.01814
1772.43233	0.01859
1770.50367	0.01940
1768.57502	0.02025
1766.64637	0.02141
1764.71771	0.02316
1762.78906	0.02566
1760.86041	0.02958
1758.93176	0.03499
1757.00310	0.04186
1755.07445	0.05031
1753.14580	0.05956
1751.21714	0.06900
1749.28849	0.07806
1747.35984	0.08541
1745.43118	0.08997
1743.50253	0.09102
1741.57388	0.08814
1739.64522	0.08188
1737.71657	0.07374
1735.78792	0.06460
1733.85926	0.05596
1731.93061	0.04938
1730.00196	0.04433
1728.07330	0.04026
1726.14465	0.03682
1724.21600	0.03378
1722.28734	0.03144
1720.35869	0.02971
1718.43004	0.02836
1716.50138	0.02789
1714.57273	0.02802
1712.64408	0.02820
1710.71542	0.02862
1708.78677	0.02938
1706.85812	0.03037
1704.92946	0.03173
1703.00081	0.03328
1701.07216	0.03457
1699.14350	0.03647
1697.21485	0.03841
1695.28620	0.04017
1693.35754	0.04242
1691.42889	0.04433
1689.50024	0.04622
1687.57159	0.04822
1685.64293	0.04966
1683.71428	0.05139
1681.78563	0.05368
1679.85697	0.05576
1677.92832	0.05785
1675.99967	0.05987
1674.07101	0.06203
1672.14236	0.06421
1670.21371	0.06622
1668.28505	0.06848
1666.35640	0.07077
1664.42775	0.07269
1662.49909	0.07462
1660.57044	0.07679
1658.64179	0.07893
1656.71313	0.08086
1654.78448	0.08202
1652.85583	0.08312
1650.92717	0.08506
1648.99852	0.08638
1647.06987	0.08700
1645.14121	0.08794
1643.21256	0.08891
1641.28391	0.08953
1639.35525	0.09001
1637.42660	0.09006
1635.49795	0.08977
1633.56929	0.08961
1631.64064	0.08910
1629.71199	0.08813
1627.78333	0.08696
1625.85468	0.08552
1623.92603	0.08366
1621.99738	0.08174
1620.06872	0.07970
1618.14007	0.07710
1616.21142	0.07450
1614.28276	0.07227
1612.35411	0.06977
1610.42546	0.06721
1608.49680	0.06488
1606.56815	0.06269
1604.63950	0.06061
1602.71084	0.05873
1600.78219	0.05712
1598.85354	0.05572
1596.92488	0.05444
1594.99623	0.05329
1593.06758	0.05233
1591.13892	0.05163
1589.21027	0.05119
1587.28162	0.05098
1585.35296	0.05087
1583.42431	0.05081
1581.49566	0.05094
1579.56700	0.05129
1577.63835	0.05152
1575.70970	0.05199
1573.78104	0.05305
1571.85239	0.05384
1569.92374	0.05452
1567.99508	0.05558
1566.06643	0.05672
1564.13778	0.05798
1562.20912	0.05925
1560.28047	0.06002
1558.35182	0.06120
1556.42316	0.06284
1554.49451	0.06397
1552.56586	0.06492
1550.63721	0.06581
1548.70855	0.06666
1546.77990	0.06756
1544.85125	0.06845
1542.92259	0.06921
1540.99394	0.06955
1539.06529	0.07000
1537.13663	0.07078
1535.20798	0.07099
1533.27933	0.07087
1531.35067	0.07098
1529.42202	0.07098
1527.49337	0.07088
1525.56471	0.07081
1523.63606	0.07049
1521.70741	0.06987
1519.77875	0.06957
1517.85010	0.06918
1515.92145	0.06851
1513.99279	0.06776
1512.06414	0.06683
1510.13549	0.06576
1508.20683	0.06419
1506.27818	0.06241
1504.34953	0.06109
1502.42087	0.05958
1500.49222	0.05775
1498.56357	0.05592
1496.63491	0.05413
1494.70626	0.05253
1492.77761	0.05085
1490.84895	0.04905
1488.92030	0.04754
1486.99165	0.04632
1485.06299	0.04539
1483.13434	0.04473
1481.20569	0.04437
1479.27704	0.04442
1477.34838	0.04494
1475.41973	0.04617
1473.49108	0.04840
1471.56242	0.05209
1469.63377	0.05689
1467.70512	0.06131
1465.77646	0.06423
1463.84781	0.06576
1461.91916	0.06664
1459.99050	0.06729
1458.06185	0.06777
1456.13320	0.06826
1454.20454	0.06841
1452.27589	0.06778
1450.34724	0.06695
1448.41858	0.06627
1446.48993	0.06582
1444.56128	0.06549
1442.63262	0.06510
1440.70397	0.06466
1438.77532	0.06398
1436.84666	0.06299
1434.91801	0.06191
1432.98936	0.06053
1431.06070	0.05889
1429.13205	0.05736
1427.20340	0.05605
1425.27474	0.05501
1423.34609	0.05447
1421.41744	0.05432
1419.48878	0.05426
1417.56013	0.05437
1415.63148	0.05429
1413.70283	0.05385
1411.77417	0.05318
1409.84552	0.05252
1407.91687	0.05218
1405.98821	0.05216
1404.05956	0.05227
1402.13091	0.05230
1400.20225	0.05212
1398.27360	0.05196
1396.34495	0.05183
1394.41629	0.05168
1392.48764	0.05172
1390.55899	0.05181
1388.63033	0.05181
1386.70168	0.05195
1384.77303	0.05235
1382.84437	0.05287
1380.91572	0.05349
1378.98707	0.05398
1377.05841	0.05391
1375.12976	0.05319
1373.20111	0.05228
1371.27245	0.05153
1369.34380	0.05086
1367.41515	0.05025
1365.48649	0.04968
1363.55784	0.04910
1361.62919	0.04860
1359.70053	0.04816
1357.77188	0.04777
1355.84323	0.04757
1353.91457	0.04761
1351.98592	0.04775
1350.05727	0.04789
1348.12861	0.04809
1346.19996	0.04836
1344.27131	0.04863
1342.34266	0.04883
1340.41400	0.04891
1338.48535	0.04889
1336.55670	0.04887
1334.62804	0.04882
1332.69939	0.04866
1330.77074	0.04837
1328.84208	0.04807
1326.91343	0.04789
1324.98478	0.04784
1323.05612	0.04783
1321.12747	0.04784
1319.19882	0.04785
1317.27016	0.04785
1315.34151	0.04779
1313.41286	0.04760
1311.48420	0.04734
1309.55555	0.04710
1307.62690	0.04688
1305.69824	0.04667
1303.76959	0.04653
1301.84094	0.04637
1299.91228	0.04612
1297.98363	0.04586
1296.05498	0.04563
1294.12632	0.04551
1292.19767	0.04557
1290.26902	0.04583
1288.34036	0.04623
1286.41171	0.04672
1284.48306	0.04724
1282.55440	0.04774
1280.62575	0.04813
1278.69710	0.04836
1276.76845	0.04845
1274.83979	0.04847
1272.91114	0.04855
1270.98249	0.04877
1269.05383	0.04908
1267.12518	0.04943
1265.19653	0.04978
1263.26787	0.05009
1261.33922	0.05041
1259.41057	0.05073
1257.48191	0.05108
1255.55326	0.05152
1253.62461	0.05209
1251.69595	0.05276
1249.76730	0.05353
1247.83865	0.05442
1245.90999	0.05537
1243.98134	0.05625
1242.05269	0.05700
1240.12403	0.05764
1238.19538	0.05815
1236.26673	0.05847
1234.33807	0.05861
1232.40942	0.05853
1230.48077	0.05825
1228.55211	0.05785
1226.62346	0.05733
1224.69481	0.05667
1222.76615	0.05591
1220.83750	0.05514
1218.90885	0.05441
1216.98019	0.05371
1215.05154	0.05310
1213.12289	0.05263
1211.19423	0.05228
1209.26558	0.05210
1207.33693	0.05211
1205.40828	0.05223
1203.47962	0.05236
1201.55097	0.05260
1199.62232	0.05311
1197.69366	0.05342
1195.76501	0.05363
1193.83636	0.05368
1191.90770	0.05369
1189.97905	0.05378
1188.05040	0.05402
1186.12174	0.05447
1184.19309	0.05516
1182.26444	0.05616
1180.33578	0.05744
1178.40713	0.05884
1176.47848	0.06022
1174.54982	0.06141
1172.62117	0.06232
1170.69252	0.06311
1168.76386	0.06393
1166.83521	0.06475
1164.90656	0.06546
1162.97790	0.06596
1161.04925	0.06620
1159.12060	0.06612
1157.19194	0.06574
1155.26329	0.06523
1153.33464	0.06457
1151.40598	0.06376
1149.47733	0.06292
1147.54868	0.06215
1145.62002	0.06148
1143.69137	0.06074
1141.76272	0.05957
1139.83406	0.05786
1137.90541	0.05579
1135.97676	0.05362
1134.04811	0.05155
1132.11945	0.04978
1130.19080	0.04856
1128.26215	0.04806
1126.33349	0.04817
1124.40484	0.04862
1122.47619	0.04930
1120.54753	0.05006
1118.61888	0.05059
1116.69023	0.05076
1114.76157	0.05054
1112.83292	0.05003
1110.90427	0.04959
1108.97561	0.04953
1107.04696	0.04966
1105.11831	0.04981
1103.18965	0.05008
1101.26100	0.05053
1099.33235	0.05107
1097.40369	0.05153
1095.47504	0.05170
1093.54639	0.05154
1091.61773	0.05129
1089.68908	0.05102
1087.76043	0.05066
1085.83177	0.05031
1083.90312	0.05003
1081.97447	0.04973
1080.04581	0.04930
1078.11716	0.04878
1076.18851	0.04811
1074.25985	0.04727
1072.33120	0.04643
1070.40255	0.04575
1068.47390	0.04521
1066.54524	0.04482
1064.61659	0.04462
1062.68794	0.04444
1060.75928	0.04415
1058.83063	0.04375
1056.90198	0.04330
1054.97332	0.04281
1053.04467	0.04234
1051.11602	0.04186
1049.18736	0.04124
1047.25871	0.04066
1045.33006	0.04032
1043.40140	0.04020
1041.47275	0.04015
1039.54410	0.04013
1037.61544	0.04020
1035.68679	0.04040
1033.75814	0.04067
1031.82948	0.04081
1029.90083	0.04075
1027.97218	0.04056
1026.04352	0.04023
1024.11487	0.03980
1022.18622	0.03937
1020.25756	0.03892
1018.32891	0.03847
1016.40026	0.03813
1014.47160	0.03784
1012.54295	0.03743
1010.61430	0.03694
1008.68564	0.03646
1006.75699	0.03603
1004.82834	0.03565
1002.89968	0.03528
1000.97103	0.03486
999.04238	0.03441
997.11373	0.03401
995.18507	0.03375
993.25642	0.03355
991.32777	0.03329
989.39911	0.03304
987.47046	0.03294
985.54181	0.03290
983.61315	0.03286
981.68450	0.03285
979.75585	0.03282
977.82719	0.03271
975.89854	0.03262
973.96989	0.03265
972.04123	0.03274
970.11258	0.03271
968.18393	0.03259
966.25527	0.03251
964.32662	0.03238
962.39797	0.03213
960.46931	0.03182
958.54066	0.03145
956.61201	0.03108
954.68335	0.03073
952.75470	0.03039
950.82605	0.03009
948.89739	0.02993
946.96874	0.02980
945.04009	0.02953
943.11143	0.02924
941.18278	0.02907
939.25413	0.02891
937.32547	0.02868
935.39682	0.02853
933.46817	0.02856
931.53952	0.02855
929.61086	0.02840
927.68221	0.02819
925.75356	0.02803
923.82490	0.02798
921.89625	0.02791
919.96760	0.02770
918.03894	0.02750
916.11029	0.02743
914.18164	0.02739
912.25298	0.02725
910.32433	0.02710
908.39568	0.02696
906.46702	0.02676
904.53837	0.02654
902.60972	0.02642
900.68106	0.02632
898.75241	0.02627
896.82376	0.02638
894.89510	0.02648
892.96645	0.02638
891.03780	0.02636
889.10914	0.02648
887.18049	0.02645
885.25184	0.02630
883.32318	0.02630
881.39453	0.02645
879.46588	0.02659
877.53722	0.02668
875.60857	0.02679
873.67992	0.02690
871.75126	0.02682
869.82261	0.02660
867.89396	0.02642
865.96530	0.02628
864.03665	0.02618
862.10800	0.02620
860.17935	0.02626
858.25069	0.02618
856.32204	0.02603
854.39339	0.02604
852.46473	0.02618
850.53608	0.02623
848.60743	0.02608
846.67877	0.02590
844.75012	0.02588
842.82147	0.02589
840.89281	0.02576
838.96416	0.02549
837.03551	0.02528
835.10685	0.02519
833.17820	0.02511
831.24955	0.02511
829.32089	0.02513
827.39224	0.02501
825.46359	0.02483
823.53493	0.02487
821.60628	0.02514
819.67763	0.02535
817.74897	0.02532
815.82032	0.02518
813.89167	0.02508
811.96301	0.02500
810.03436	0.02498
808.10571	0.02512
806.17705	0.02534
804.24840	0.02549
802.31975	0.02560
800.39109	0.02571
798.46244	0.02581
796.53379	0.02597
794.60513	0.02609
792.67648	0.02609
790.74783	0.02612
788.81918	0.02618
786.89052	0.02619
784.96187	0.02626
783.03322	0.02645
781.10456	0.02663
779.17591	0.02660
777.24726	0.02647
775.31860	0.02650
773.38995	0.02671
771.46130	0.02693
769.53264	0.02709
767.60399	0.02720
765.67534	0.02730
763.74668	0.02740
761.81803	0.02749
759.88938	0.02752
757.96072	0.02749
756.03207	0.02756
754.10342	0.02781
752.17476	0.02808
750.24611	0.02829
748.31746	0.02858
746.38880	0.02890
744.46015	0.02909
742.53150	0.02921
740.60284	0.02947
738.67419	0.02988
736.74554	0.03037
734.81688	0.03084
732.88823	0.03126
730.95958	0.03184
729.03092	0.03266
727.10227	0.03333
725.17362	0.03377
723.24497	0.03425
721.31631	0.03470
719.38766	0.03472
717.45901	0.03440
715.53035	0.03403
713.60170	0.03371
711.67305	0.03345
709.74439	0.03324
707.81574	0.03314
705.88709	0.03314
703.95843	0.03317
702.02978	0.03313
700.10113	0.03301
698.17247	0.03287
696.24382	0.03288
694.31517	0.03298
692.38651	0.03299
690.45786	0.03292
688.52921	0.03292
686.60055	0.03294
684.67190	0.03285
682.74325	0.03279
680.81459	0.03291
678.88594	0.03303
676.95729	0.03298
675.02863	0.03283
673.09998	0.03275
671.17133	0.03282
669.24267	0.03293
667.31402	0.03284
665.38537	0.03284
663.45671	0.03284
661.52806	0.03282
659.59941	0.03285
657.67075	0.03296
655.74210	0.03308
653.81345	0.03305
651.88480	0.03293
649.95614	0.03286
648.02749	0.03288
646.09884	0.03291
644.17018	0.03291
642.24153	0.03291
640.31288	0.03289
638.38422	0.03283
636.45557	0.03278
634.52692	0.03280
632.59826	0.03270
630.66961	0.03309
628.74096	0.03532
626.81230	0.03177
624.88365	0.02677
622.95500	0.02388
621.02634	0.02423
619.09769	0.02629
617.16904	0.02895
615.24038	0.03164
613.31173	0.03319
611.38308	0.03285
609.45442	0.03168
607.52577	0.03110
605.59712	0.03127
603.66846	0.03245
601.73981	0.03373
599.81116	0.03393
597.88250	0.03368
595.95385	0.03355
594.02520	0.03331
592.09654	0.03313
590.16789	0.03324
588.23924	0.03336
586.31059	0.03332
584.38193	0.03324
582.45328	0.03318
580.52463	0.03309
578.59597	0.03298
576.66732	0.03284
574.73867	0.03261
572.81001	0.03226
570.88136	0.03184
568.95271	0.03159
567.02405	0.03171
565.09540	0.03201
563.16675	0.03213
561.23809	0.03210
559.30944	0.03220
557.38079	0.03241
555.45213	0.03251
553.52348	0.03252
551.59483	0.03252
549.66617	0.03248
547.73752	0.03242
545.80887	0.03226
543.88021	0.03201
541.95156	0.03185
540.02291	0.03181
538.09425	0.03170
536.16560	0.03158
534.23695	0.03164
532.30829	0.03166
530.37964	0.03137
528.45099	0.03107
526.52233	0.03112
524.59368	0.03128
522.66503	0.03124
520.73637	0.03099
518.80772	0.03074
516.87907	0.03050
514.95042	0.03026
513.02176	0.03003
511.09311	0.02989
509.16446	0.02997
507.23580	0.03018
505.30715	0.03025
503.37850	0.03013
501.44984	0.03002
499.52119	0.02993
497.59254	0.02978
495.66388	0.02961
493.73523	0.02946
491.80658	0.02934
489.87792	0.02927
487.94927	0.02928
486.02062	0.02932
484.09196	0.02928
482.16331	0.02913
480.23466	0.02886
478.30600	0.02870
476.37735	0.02891
474.44870	0.02923
472.52004	0.02919
470.59139	0.02890
468.66274	0.02869
466.73408	0.02868
464.80543	0.02877
462.87678	0.02883
460.94812	0.02883
459.01947	0.02871
457.09082	0.02854
455.16216	0.02837
453.23351	0.02816
451.30486	0.02791
449.37620	0.02770
447.44755	0.02748
445.51890	0.02721
443.59025	0.02696
441.66159	0.02680
439.73294	0.02671
437.80429	0.02663
435.87563	0.02646
433.94698	0.02617
432.01833	0.02595
430.08967	0.02584
428.16102	0.02567
426.23237	0.02541
424.30371	0.02520
422.37506	0.02506
420.44641	0.02487
418.51775	0.02465
416.58910	0.02448
414.66045	0.02431
412.73179	0.02417
410.80314	0.02404
408.87449	0.02388
406.94583	0.02368
405.01718	0.02349
403.08853	0.02337
401.15987	0.02333
399.23122	0.02328
