3996.16951	0.02782
3994.24086	0.02773
3992.31221	0.02796
3990.38355	0.02855
3988.45490	0.02910
3986.52625	0.02920
3984.59759	0.02885
3982.66894	0.02869
3980.74029	0.02878
3978.81163	0.02834
3976.88298	0.02771
3974.95433	0.02766
3973.02567	0.02794
3971.09702	0.02824
3969.16837	0.02851
3967.23972	0.02848
3965.31106	0.02806
3963.38241	0.02752
3961.45376	0.02732
3959.52510	0.02743
3957.59645	0.02733
3955.66780	0.02711
3953.73914	0.02721
3951.81049	0.02739
3949.88184	0.02723
3947.95318	0.02696
3946.02453	0.02682
3944.09588	0.02675
3942.16722	0.02687
3940.23857	0.02736
3938.30992	0.02796
3936.38126	0.02791
3934.45261	0.02701
3932.52396	0.02625
3930.59530	0.02632
3928.66665	0.02661
3926.73800	0.02652
3924.80934	0.02638
3922.88069	0.02644
3920.95204	0.02652
3919.02338	0.02669
3917.09473	0.02717
3915.16608	0.02746
3913.23742	0.02728
3911.30877	0.02708
3909.38012	0.02709
3907.45146	0.02694
3905.52281	0.02642
3903.59416	0.02608
3901.66550	0.02636
3899.73685	0.02672
3897.80820	0.02651
3895.87955	0.02599
3893.95089	0.02573
3892.02224	0.02583
3890.09359	0.02604
3888.16493	0.02624
3886.23628	0.02650
3884.30763	0.02670
3882.37897	0.02668
3880.45032	0.02682
3878.52167	0.02738
3876.59301	0.02771
3874.66436	0.02741
3872.73571	0.02689
3870.80705	0.02665
3868.87840	0.02684
3866.94975	0.02729
3865.02109	0.02757
3863.09244	0.02759
3861.16379	0.02768
3859.23513	0.02792
3857.30648	0.02776
3855.37783	0.02699
3853.44917	0.02632
3851.52052	0.02625
3849.59187	0.02652
3847.66321	0.02674
3845.73456	0.02692
3843.80591	0.02713
3841.87725	0.02709
3839.94860	0.02643
3838.01995	0.02538
3836.09129	0.02493
3834.16264	0.02546
3832.23399	0.02607
3830.30534	0.02625
3828.37668	0.02627
3826.44803	0.02608
3824.51938	0.02580
3822.59072	0.02585
3820.66207	0.02605
3818.73342	0.02603
3816.80476	0.02577
3814.87611	0.02538
3812.94746	0.02531
3811.01880	0.02588
3809.09015	0.02641
3807.16150	0.02627
3805.23284	0.02585
3803.30419	0.02581
3801.37554	0.02616
3799.44688	0.02656
3797.51823	0.02660
3795.58958	0.02605
3793.66092	0.02539
3791.73227	0.02520
3789.80362	0.02550
3787.87496	0.02590
3785.94631	0.02597
3784.01766	0.02579
3782.08900	0.02588
3780.16035	0.02613
3778.23170	0.02610
3776.30304	0.02582
3774.37439	0.02555
3772.44574	0.02533
3770.51708	0.02529
3768.58843	0.02547
3766.65978	0.02555
3764.73112	0.02520
3762.80247	0.02475
3760.87382	0.02476
3758.94517	0.02497
3757.01651	0.02509
3755.08786	0.02554
3753.15921	0.02615
3751.23055	0.02601
3749.30190	0.02530
3747.37325	0.02516
3745.44459	0.02557
3743.51594	0.02547
3741.58729	0.02474
3739.65863	0.02432
3737.72998	0.02460
3735.80133	0.02491
3733.87267	0.02475
3731.94402	0.02412
3730.01537	0.02362
3728.08671	0.02373
3726.15806	0.02406
3724.22941	0.02403
3722.30075	0.02358
3720.37210	0.02312
3718.44345	0.02321
3716.51479	0.02354
3714.58614	0.02365
3712.65749	0.02366
3710.72883	0.02393
3708.80018	0.02445
3706.87153	0.02478
3704.94287	0.02469
3703.01422	0.02423
3701.08557	0.02364
3699.15691	0.02332
3697.22826	0.02338
3695.29961	0.02336
3693.37095	0.02336
3691.44230	0.02386
3689.51365	0.02477
3687.58500	0.02537
3685.65634	0.02496
3683.72769	0.02399
3681.79904	0.02360
3679.87038	0.02397
3677.94173	0.02433
3676.01308	0.02437
3674.08442	0.02437
3672.15577	0.02438
3670.22712	0.02432
3668.29846	0.02430
3666.36981	0.02444
3664.44116	0.02478
3662.51250	0.02529
3660.58385	0.02566
3658.65520	0.02565
3656.72654	0.02554
3654.79789	0.02548
3652.86924	0.02538
3650.94058	0.02545
3649.01193	0.02599
3647.08328	0.02669
3645.15462	0.02699
3643.22597	0.02705
3641.29732	0.02728
3639.36866	0.02760
3637.44001	0.02788
3635.51136	0.02819
3633.58270	0.02850
3631.65405	0.02859
3629.72540	0.02861
3627.79674	0.02869
3625.86809	0.02884
3623.93944	0.02899
3622.01079	0.02926
3620.08213	0.02939
3618.15348	0.02939
3616.22483	0.02983
3614.29617	0.03059
3612.36752	0.03079
3610.43887	0.03035
3608.51021	0.03017
3606.58156	0.03043
3604.65291	0.03056
3602.72425	0.03049
3600.79560	0.03078
3598.86695	0.03150
3596.93829	0.03220
3595.00964	0.03263
3593.08099	0.03282
3591.15233	0.03301
3589.22368	0.03335
3587.29503	0.03381
3585.36637	0.03396
3583.43772	0.03380
3581.50907	0.03399
3579.58041	0.03458
3577.65176	0.03503
3575.72311	0.03539
3573.79445	0.03604
3571.86580	0.03689
3569.93715	0.03739
3568.00849	0.03746
3566.07984	0.03751
3564.15119	0.03767
3562.22253	0.03794
3560.29388	0.03829
3558.36523	0.03832
3556.43657	0.03812
3554.50792	0.03826
3552.57927	0.03887
3550.65062	0.03956
3548.72196	0.04023
3546.79331	0.04092
3544.86466	0.04123
3542.93600	0.04115
3541.00735	0.04125
3539.07870	0.04182
3537.15004	0.04242
3535.22139	0.04267
3533.29274	0.04290
3531.36408	0.04352
3529.43543	0.04414
3527.50678	0.04416
3525.57812	0.04377
3523.64947	0.04364
3521.72082	0.04385
3519.79216	0.04421
3517.86351	0.04485
3515.93486	0.04565
3514.00620	0.04604
3512.07755	0.04589
3510.14890	0.04573
3508.22024	0.04601
3506.29159	0.04660
3504.36294	0.04694
3502.43428	0.04680
3500.50563	0.04660
3498.57698	0.04687
3496.64832	0.04749
3494.71967	0.04802
3492.79102	0.04854
3490.86236	0.04910
3488.93371	0.04939
3487.00506	0.04939
3485.07641	0.04939
3483.14775	0.04945
3481.21910	0.04958
3479.29045	0.04979
3477.36179	0.05018
3475.43314	0.05067
3473.50449	0.05102
3471.57583	0.05161
3469.64718	0.05257
3467.71853	0.05324
3465.78987	0.05347
3463.86122	0.05358
3461.93257	0.05363
3460.00391	0.05360
3458.07526	0.05352
3456.14661	0.05365
3454.21795	0.05411
3452.28930	0.05485
3450.36065	0.05549
3448.43199	0.05568
3446.50334	0.05558
3444.57469	0.05552
3442.64603	0.05556
3440.71738	0.05567
3438.78873	0.05587
3436.86007	0.05614
3434.93142	0.05641
3433.00277	0.05647
3431.07411	0.05654
3429.14546	0.05709
3427.21681	0.05788
3425.28815	0.05825
3423.35950	0.05826
3421.43085	0.05842
3419.50219	0.05872
3417.57354	0.05897
3415.64489	0.05930
3413.71624	0.05973
3411.78758	0.06024
3409.85893	0.06089
3407.93028	0.06151
3406.00162	0.06201
3404.07297	0.06242
3402.14432	0.06261
3400.21566	0.06252
3398.28701	0.06243
3396.35836	0.06243
3394.42970	0.06243
3392.50105	0.06273
3390.57240	0.06342
3388.64374	0.06397
3386.71509	0.06390
3384.78644	0.06359
3382.85778	0.06383
3380.92913	0.06457
3379.00048	0.06525
3377.07182	0.06567
3375.14317	0.06581
3373.21452	0.06590
3371.28586	0.06634
3369.35721	0.06687
3367.42856	0.06698
3365.49990	0.06692
3363.57125	0.06711
3361.64260	0.06742
3359.71394	0.06775
3357.78529	0.06850
3355.85664	0.06965
3353.92798	0.07057
3351.99933	0.07103
3350.07068	0.07129
3348.14202	0.07136
3346.21337	0.07137
3344.28472	0.07169
3342.35607	0.07243
3340.42741	0.07324
3338.49876	0.07370
3336.57011	0.07400
3334.64145	0.07452
3332.71280	0.07512
3330.78415	0.07542
3328.85549	0.07556
3326.92684	0.07584
3324.99819	0.07623
3323.06953	0.07651
3321.14088	0.07658
3319.21223	0.07669
3317.28357	0.07716
3315.35492	0.07776
3313.42627	0.07803
3311.49761	0.07807
3309.56896	0.07815
3307.64031	0.07835
3305.71165	0.07866
3303.78300	0.07887
3301.85435	0.07881
3299.92569	0.07865
3297.99704	0.07856
3296.06839	0.07852
3294.13973	0.07871
3292.21108	0.07916
3290.28243	0.07947
3288.35377	0.07946
3286.42512	0.07930
3284.49647	0.07909
3282.56781	0.07881
3280.63916	0.07858
3278.71051	0.07856
3276.78186	0.07858
3274.85320	0.07824
3272.92455	0.07751
3270.99590	0.07681
3269.06724	0.07651
3267.13859	0.07646
3265.20994	0.07616
3263.28128	0.07551
3261.35263	0.07492
3259.42398	0.07465
3257.49532	0.07430
3255.56667	0.07354
3253.63802	0.07267
3251.70936	0.07208
3249.78071	0.07186
3247.85206	0.07179
3245.92340	0.07167
3243.99475	0.07153
3242.06610	0.07142
3240.13744	0.07122
3238.20879	0.07080
3236.28014	0.07032
3234.35148	0.06984
3232.42283	0.06938
3230.49418	0.06924
3228.56552	0.06930
3226.63687	0.06915
3224.70822	0.06898
3222.77956	0.06888
3220.85091	0.06844
3218.92226	0.06776
3216.99360	0.06730
3215.06495	0.06712
3213.13630	0.06693
3211.20764	0.06657
3209.27899	0.06623
3207.35034	0.06607
3205.42169	0.06601
3203.49303	0.06596
3201.56438	0.06585
3199.63573	0.06550
3197.70707	0.06492
3195.77842	0.06451
3193.84977	0.06421
3191.92111	0.06358
3189.99246	0.06292
3188.06381	0.06275
3186.13515	0.06289
3184.20650	0.06293
3182.27785	0.06281
3180.34919	0.06252
3178.42054	0.06186
3176.49189	0.06076
3174.56323	0.05980
3172.63458	0.05936
3170.70593	0.05911
3168.77727	0.05870
3166.84862	0.05815
3164.91997	0.05757
3162.99131	0.05710
3161.06266	0.05682
3159.13401	0.05666
3157.20535	0.05652
3155.27670	0.05617
3153.34805	0.05539
3151.41939	0.05439
3149.49074	0.05382
3147.56209	0.05390
3145.63343	0.05410
3143.70478	0.05389
3141.77613	0.05317
3139.84748	0.05228
3137.91882	0.05182
3135.99017	0.05184
3134.06152	0.05200
3132.13286	0.05225
3130.20421	0.05238
3128.27556	0.05196
3126.34690	0.05141
3124.41825	0.05128
3122.48960	0.05123
3120.56094	0.05098
3118.63229	0.05083
3116.70364	0.05082
3114.77498	0.05080
3112.84633	0.05091
3110.91768	0.05102
3108.98902	0.05068
3107.06037	0.05022
3105.13172	0.05030
3103.20306	0.05068
3101.27441	0.05085
3099.34576	0.05090
3097.41710	0.05104
3095.48845	0.05127
3093.55980	0.05158
3091.63114	0.05185
3089.70249	0.05184
3087.77384	0.05164
3085.84518	0.05156
3083.91653	0.05166
3081.98788	0.05175
3080.05922	0.05188
3078.13057	0.05220
3076.20192	0.05255
3074.27326	0.05262
3072.34461	0.05245
3070.41596	0.05227
3068.48731	0.05208
3066.55865	0.05199
3064.63000	0.05209
3062.70135	0.05215
3060.77269	0.05202
3058.84404	0.05183
3056.91539	0.05172
3054.98673	0.05165
3053.05808	0.05135
3051.12943	0.05073
3049.20077	0.05013
3047.27212	0.04976
3045.34347	0.04965
3043.41481	0.04978
3041.48616	0.04979
3039.55751	0.04943
3037.62885	0.04894
3035.70020	0.04858
3033.77155	0.04847
3031.84289	0.04857
3029.91424	0.04858
3027.98559	0.04827
3026.05693	0.04796
3024.12828	0.04798
3022.19963	0.04850
3020.27097	0.04939
3018.34232	0.05030
3016.41367	0.05131
3014.48501	0.05261
3012.55636	0.05408
3010.62771	0.05552
3008.69905	0.05685
3006.77040	0.05791
3004.84175	0.05848
3002.91309	0.05844
3000.98444	0.05776
2999.05579	0.05662
2997.12714	0.05546
2995.19848	0.05460
2993.26983	0.05399
2991.34118	0.05381
2989.41252	0.05412
2987.48387	0.05454
2985.55522	0.05522
2983.62656	0.05642
2981.69791	0.05796
2979.76926	0.05974
2977.84060	0.06170
2975.91195	0.06382
2973.98330	0.06649
2972.05464	0.06992
2970.12599	0.07397
2968.19734	0.07882
2966.26868	0.08464
2964.34003	0.09082
2962.41138	0.09680
2960.48272	0.10232
2958.55407	0.10693
2956.62542	0.11024
2954.69676	0.11214
2952.76811	0.11280
2950.83946	0.11292
2948.91080	0.11368
2946.98215	0.11592
2945.05350	0.11979
2943.12484	0.12557
2941.19619	0.13384
2939.26754	0.14454
2937.33888	0.15701
2935.41023	0.17046
2933.48158	0.18465
2931.55293	0.19941
2929.62427	0.21396
2927.69562	0.22757
2925.76697	0.23940
2923.83831	0.24778
2921.90966	0.25126
2919.98101	0.24936
2918.05235	0.24222
2916.12370	0.23048
2914.19505	0.21576
2912.26639	0.20044
2910.33774	0.18620
2908.40909	0.17380
2906.48043	0.16343
2904.55178	0.15465
2902.62313	0.14706
2900.69447	0.14042
2898.76582	0.13437
2896.83717	0.12858
2894.90851	0.12309
2892.97986	0.11790
2891.05121	0.11272
2889.12255	0.10775
2887.19390	0.10356
2885.26525	0.10013
2883.33659	0.09721
2881.40794	0.09519
2879.47929	0.09456
2877.55063	0.09550
2875.62198	0.09775
2873.69333	0.10045
2871.76467	0.10259
2869.83602	0.10399
2867.90737	0.10573
2865.97871	0.10943
2864.05006	0.11627
2862.12141	0.12660
2860.19276	0.14018
2858.26410	0.15591
2856.33545	0.17122
2854.40680	0.18264
2852.47814	0.18713
2850.54949	0.18294
2848.62084	0.17026
2846.69218	0.15183
2844.76353	0.13211
2842.83488	0.11491
2840.90622	0.10175
2838.97757	0.09207
2837.04892	0.08472
2835.12026	0.07901
2833.19161	0.07453
2831.26296	0.07101
2829.33430	0.06816
2827.40565	0.06563
2825.47700	0.06332
2823.54834	0.06121
2821.61969	0.05929
2819.69104	0.05777
2817.76238	0.05665
2815.83373	0.05557
2813.90508	0.05446
2811.97642	0.05347
2810.04777	0.05273
2808.11912	0.05215
2806.19046	0.05147
2804.26181	0.05059
2802.33316	0.04975
2800.40450	0.04924
2798.47585	0.04893
2796.54720	0.04851
2794.61855	0.04802
2792.68989	0.04754
2790.76124	0.04703
2788.83259	0.04657
2786.90393	0.04616
2784.97528	0.04577
2783.04663	0.04550
2781.11797	0.04527
2779.18932	0.04492
2777.26067	0.04445
2775.33201	0.04399
2773.40336	0.04356
2771.47471	0.04312
2769.54605	0.04282
2767.61740	0.04268
2765.68875	0.04252
2763.76009	0.04233
2761.83144	0.04219
2759.90279	0.04208
2757.97413	0.04192
2756.04548	0.04162
2754.11683	0.04125
2752.18817	0.04095
2750.25952	0.04077
2748.33087	0.04053
2746.40221	0.04015
2744.47356	0.03986
2742.54491	0.03986
2740.61625	0.03995
2738.68760	0.03992
2736.75895	0.03977
2734.83029	0.03970
2732.90164	0.03984
2730.97299	0.03996
2729.04433	0.03976
2727.11568	0.03934
2725.18703	0.03900
2723.25838	0.03882
2721.32972	0.03870
2719.40107	0.03852
2717.47242	0.03826
2715.54376	0.03799
2713.61511	0.03787
2711.68646	0.03782
2709.75780	0.03764
2707.82915	0.03734
2705.90050	0.03717
2703.97184	0.03727
2702.04319	0.03738
2700.11454	0.03736
2698.18588	0.03730
2696.25723	0.03726
2694.32858	0.03720
2692.39992	0.03709
2690.47127	0.03704
2688.54262	0.03707
2686.61396	0.03701
2684.68531	0.03687
2682.75666	0.03682
2680.82800	0.03679
2678.89935	0.03668
2676.97070	0.03653
2675.04204	0.03636
2673.11339	0.03620
2671.18474	0.03611
2669.25608	0.03605
2667.32743	0.03597
2665.39878	0.03581
2663.47012	0.03562
2661.54147	0.03540
2659.61282	0.03516
2657.68417	0.03498
2655.75551	0.03480
2653.82686	0.03465
2651.89821	0.03461
2649.96955	0.03444
2648.04090	0.03401
2646.11225	0.03357
2644.18359	0.03331
2642.25494	0.03317
2640.32629	0.03312
2638.39763	0.03293
2636.46898	0.03244
2634.54033	0.03189
2632.61167	0.03155
2630.68302	0.03146
2628.75437	0.03142
2626.82571	0.03126
2624.89706	0.03118
2622.96841	0.03128
2621.03975	0.03119
2619.11110	0.03066
2617.18245	0.03010
2615.25379	0.02984
2613.32514	0.02981
2611.39649	0.02982
2609.46783	0.02983
2607.53918	0.02979
2605.61053	0.02956
2603.68187	0.02921
2601.75322	0.02904
2599.82457	0.02908
2597.89591	0.02897
2595.96726	0.02856
2594.03861	0.02819
2592.10995	0.02802
2590.18130	0.02784
2588.25265	0.02751
2586.32400	0.02720
2584.39534	0.02714
2582.46669	0.02722
2580.53804	0.02719
2578.60938	0.02712
2576.68073	0.02721
2574.75208	0.02745
2572.82342	0.02745
2570.89477	0.02691
2568.96612	0.02635
2567.03746	0.02634
2565.10881	0.02645
2563.18016	0.02613
2561.25150	0.02576
2559.32285	0.02580
2557.39420	0.02606
2555.46554	0.02617
2553.53689	0.02608
2551.60824	0.02614
2549.67958	0.02632
2547.75093	0.02610
2545.82228	0.02541
2543.89362	0.02472
2541.96497	0.02456
2540.03632	0.02482
2538.10766	0.02494
2536.17901	0.02495
2534.25036	0.02493
2532.32170	0.02467
2530.39305	0.02430
2528.46440	0.02411
2526.53574	0.02410
2524.60709	0.02417
2522.67844	0.02446
2520.74978	0.02486
2518.82113	0.02505
2516.89248	0.02509
2514.96383	0.02511
2513.03517	0.02504
2511.10652	0.02487
2509.17787	0.02461
2507.24921	0.02421
2505.32056	0.02388
2503.39191	0.02355
2501.46325	0.02313
2499.53460	0.02305
2497.60595	0.02354
2495.67729	0.02393
2493.74864	0.02373
2491.81999	0.02351
2489.89133	0.02361
2487.96268	0.02356
2486.03403	0.02341
2484.10537	0.02344
2482.17672	0.02342
2480.24807	0.02323
2478.31941	0.02310
2476.39076	0.02330
2474.46211	0.02376
2472.53345	0.02399
2470.60480	0.02391
2468.67615	0.02398
2466.74749	0.02411
2464.81884	0.02396
2462.89019	0.02363
2460.96153	0.02322
2459.03288	0.02284
2457.10423	0.02276
2455.17557	0.02283
2453.24692	0.02272
2451.31827	0.02267
2449.38962	0.02288
2447.46096	0.02317
2445.53231	0.02324
2443.60366	0.02301
2441.67500	0.02282
2439.74635	0.02285
2437.81770	0.02304
2435.88904	0.02317
2433.96039	0.02314
2432.03174	0.02317
2430.10308	0.02336
2428.17443	0.02345
2426.24578	0.02334
2424.31712	0.02320
2422.38847	0.02313
2420.45982	0.02306
2418.53116	0.02288
2416.60251	0.02253
2414.67386	0.02219
2412.74520	0.02217
2410.81655	0.02234
2408.88790	0.02247
2406.95924	0.02271
2405.03059	0.02293
2403.10194	0.02286
2401.17328	0.02291
2399.24463	0.02312
2397.31598	0.02309
2395.38732	0.02284
2393.45867	0.02273
2391.53002	0.02285
2389.60136	0.02307
2387.67271	0.02326
2385.74406	0.02336
2383.81540	0.02341
2381.88675	0.02340
2379.95810	0.02333
2378.02945	0.02333
2376.10079	0.02344
2374.17214	0.02353
2372.24349	0.02341
2370.31483	0.02311
2368.38618	0.02303
2366.45753	0.02329
2364.52887	0.02357
2362.60022	0.02380
2360.67157	0.02409
2358.74291	0.02433
2356.81426	0.02440
2354.88561	0.02433
2352.95695	0.02419
2351.02830	0.02415
2349.09965	0.02434
2347.17099	0.02452
2345.24234	0.02444
2343.31369	0.02424
2341.38503	0.02423
2339.45638	0.02436
2337.52773	0.02439
2335.59907	0.02424
2333.67042	0.02406
2331.74177	0.02399
2329.81311	0.02404
2327.88446	0.02411
2325.95581	0.02417
2324.02715	0.02420
2322.09850	0.02416
2320.16985	0.02394
2318.24119	0.02357
2316.31254	0.02326
2314.38389	0.02305
2312.45524	0.02288
2310.52658	0.02280
2308.59793	0.02283
2306.66928	0.02280
2304.74062	0.02245
2302.81197	0.02183
2300.88332	0.02139
2298.95466	0.02124
2297.02601	0.02105
2295.09736	0.02091
2293.16870	0.02099
2291.24005	0.02112
2289.31140	0.02129
2287.38274	0.02128
2285.45409	0.02077
2283.52544	0.02014
2281.59678	0.01989
2279.66813	0.01972
2277.73948	0.01938
2275.81082	0.01922
2273.88217	0.01921
2271.95352	0.01900
2270.02486	0.01870
2268.09621	0.01855
2266.16756	0.01836
2264.23890	0.01803
2262.31025	0.01783
2260.38160	0.01777
2258.45294	0.01755
2256.52429	0.01727
2254.59564	0.01736
2252.66698	0.01769
2250.73833	0.01774
2248.80968	0.01776
2246.88102	0.01799
2244.95237	0.01795
2243.02372	0.01727
2241.09507	0.01662
2239.16641	0.01656
2237.23776	0.01687
2235.30911	0.01706
2233.38045	0.01683
2231.45180	0.01656
2229.52315	0.01678
2227.59449	0.01696
2225.66584	0.01630
2223.73719	0.01559
2221.80853	0.01590
2219.87988	0.01649
2217.95123	0.01609
2216.02257	0.01542
2214.09392	0.01566
2212.16527	0.01576
2210.23661	0.01493
2208.30796	0.01431
2206.37931	0.01374
2204.45065	0.01230
2202.52200	0.01121
2200.59335	0.01169
2198.66469	0.01301
2196.73604	0.01413
2194.80739	0.01458
2192.87873	0.01414
2190.95008	0.01287
2189.02143	0.01123
2187.09277	0.01020
2185.16412	0.01031
2183.23547	0.01087
2181.30681	0.01120
2179.37816	0.01142
2177.44951	0.01136
2175.52085	0.01109
2173.59220	0.01146
2171.66355	0.01214
2169.73490	0.01226
2167.80624	0.01194
2165.87759	0.01168
2163.94894	0.01146
2162.02028	0.01082
2160.09163	0.00995
2158.16298	0.00967
2156.23432	0.01012
2154.30567	0.01113
2152.37702	0.01245
2150.44836	0.01322
2148.51971	0.01295
2146.59106	0.01229
2144.66240	0.01191
2142.73375	0.01207
2140.80510	0.01296
2138.87644	0.01397
2136.94779	0.01420
2135.01914	0.01411
2133.09048	0.01443
2131.16183	0.01495
2129.23318	0.01536
2127.30452	0.01551
2125.37587	0.01560
2123.44722	0.01603
2121.51856	0.01649
2119.58991	0.01663
2117.66126	0.01658
2115.73260	0.01646
2113.80395	0.01624
2111.87530	0.01604
2109.94664	0.01601
2108.01799	0.01620
2106.08934	0.01662
2104.16069	0.01691
2102.23203	0.01671
2100.30338	0.01635
2098.37473	0.01606
2096.44607	0.01603
2094.51742	0.01635
2092.58877	0.01668
2090.66011	0.01666
2088.73146	0.01636
2086.80281	0.01597
2084.87415	0.01570
2082.94550	0.01565
2081.01685	0.01600
2079.08819	0.01644
2077.15954	0.01625
2075.23089	0.01542
2073.30223	0.01461
2071.37358	0.01421
2069.44493	0.01393
2067.51627	0.01348
2065.58762	0.01326
2063.65897	0.01349
2061.73031	0.01373
2059.80166	0.01386
2057.87301	0.01396
2055.94435	0.01372
2054.01570	0.01317
2052.08705	0.01273
2050.15839	0.01223
2048.22974	0.01140
2046.30109	0.01080
2044.37243	0.01090
2042.44378	0.01114
2040.51513	0.01083
2038.58647	0.01028
2036.65782	0.01023
2034.72917	0.01051
2032.80052	0.01021
2030.87186	0.00919
2028.94321	0.00866
2027.01456	0.00909
2025.08590	0.00957
2023.15725	0.01021
2021.22860	0.01155
2019.29994	0.01259
2017.37129	0.01237
2015.44264	0.01133
2013.51398	0.01013
2011.58533	0.00887
2009.65668	0.00810
2007.72802	0.00827
2005.79937	0.00878
2003.87072	0.00965
2001.94206	0.01120
2000.01341	0.01226
1998.08476	0.01217
1996.15610	0.01189
1994.22745	0.01171
1992.29880	0.01129
1990.37014	0.01112
1988.44149	0.01153
1986.51284	0.01230
1984.58418	0.01300
1982.65553	0.01280
1980.72688	0.01118
1978.79822	0.00918
1976.86957	0.00866
1974.94092	0.00999
1973.01226	0.01150
1971.08361	0.01205
1969.15496	0.01202
1967.22631	0.01189
1965.29765	0.01189
1963.36900	0.01206
1961.44035	0.01201
1959.51169	0.01175
1957.58304	0.01177
1955.65439	0.01216
1953.72573	0.01256
1951.79708	0.01281
1949.86843	0.01311
1947.93977	0.01347
1946.01112	0.01355
1944.08247	0.01353
1942.15381	0.01369
1940.22516	0.01390
1938.29651	0.01436
1936.36785	0.01515
1934.43920	0.01553
1932.51055	0.01501
1930.58189	0.01417
1928.65324	0.01394
1926.72459	0.01453
1924.79593	0.01530
1922.86728	0.01558
1920.93863	0.01547
1919.00997	0.01532
1917.08132	0.01526
1915.15267	0.01537
1913.22401	0.01568
1911.29536	0.01577
1909.36671	0.01546
1907.43805	0.01519
1905.50940	0.01523
1903.58075	0.01517
1901.65209	0.01496
1899.72344	0.01502
1897.79479	0.01532
1895.86614	0.01557
1893.93748	0.01575
1892.00883	0.01581
1890.08018	0.01557
1888.15152	0.01505
1886.22287	0.01456
1884.29422	0.01458
1882.36556	0.01511
1880.43691	0.01568
1878.50826	0.01608
1876.57960	0.01621
1874.65095	0.01610
1872.72230	0.01598
1870.79364	0.01601
1868.86499	0.01599
1866.93634	0.01578
1865.00768	0.01567
1863.07903	0.01588
1861.15038	0.01620
1859.22172	0.01626
1857.29307	0.01608
1855.36442	0.01590
1853.43576	0.01584
1851.50711	0.01579
1849.57846	0.01581
1847.64980	0.01592
1845.72115	0.01599
1843.79250	0.01607
1841.86384	0.01630
1839.93519	0.01652
1838.00654	0.01652
1836.07788	0.01642
1834.14923	0.01641
1832.22058	0.01640
1830.29192	0.01622
1828.36327	0.01600
1826.43462	0.01596
1824.50597	0.01612
1822.57731	0.01629
1820.64866	0.01638
1818.72001	0.01648
1816.79135	0.01673
1814.86270	0.01703
1812.93405	0.01714
1811.00539	0.01710
1809.07674	0.01708
1807.14809	0.01713
1805.21943	0.01719
1803.29078	0.01733
1801.36213	0.01753
1799.43347	0.01766
1797.50482	0.01770
1795.57617	0.01772
1793.64751	0.01774
1791.71886	0.01779
1789.79021	0.01788
1787.86155	0.01794
1785.93290	0.01799
1784.00425	0.01812
1782.07559	0.01836
1780.14694	0.01861
1778.21829	0.01882
1776.28963	0.01905
1774.36098	0.01942
1772.43233	0.02000
1770.50367	0.02084
1768.57502	0.02205
1766.64637	0.02383
1764.71771	0.02639
1762.78906	0.03005
1760.86041	0.03525
1758.93176	0.04235
1757.00310	0.05146
1755.07445	0.06237
1753.14580	0.07462
1751.21714	0.08736
1749.28849	0.09920
1747.35984	0.10866
1745.43118	0.11456
1743.50253	0.11593
1741.57388	0.11230
1739.64522	0.10395
1737.71657	0.09256
1735.78792	0.08043
1733.85926	0.06922
1731.93061	0.05999
1730.00196	0.05304
1728.07330	0.04774
1726.14465	0.04333
1724.21600	0.03952
1722.28734	0.03637
1720.35869	0.03399
1718.43004	0.03252
1716.50138	0.03189
1714.57273	0.03176
1712.64408	0.03195
1710.71542	0.03262
1708.78677	0.03380
1706.85812	0.03530
1704.92946	0.03713
1703.00081	0.03932
1701.07216	0.04171
1699.14350	0.04408
1697.21485	0.04638
1695.28620	0.04882
1693.35754	0.05140
1691.42889	0.05403
1689.50024	0.05660
1687.57159	0.05910
1685.64293	0.06169
1683.71428	0.06440
1681.78563	0.06702
1679.85697	0.06956
1677.92832	0.07220
1675.99967	0.07492
1674.07101	0.07767
1672.14236	0.08047
1670.21371	0.08333
1668.28505	0.08616
1666.35640	0.08892
1664.42775	0.09168
1662.49909	0.09445
1660.57044	0.09705
1658.64179	0.09939
1656.71313	0.10158
1654.78448	0.10378
1652.85583	0.10589
1650.92717	0.10763
1648.99852	0.10901
1647.06987	0.11030
1645.14121	0.11154
1643.21256	0.11253
1641.28391	0.11319
1639.35525	0.11366
1637.42660	0.11398
1635.49795	0.11403
1633.56929	0.11369
1631.64064	0.11293
1629.71199	0.11182
1627.78333	0.11031
1625.85468	0.10833
1623.92603	0.10590
1621.99738	0.10318
1620.06872	0.10025
1618.14007	0.09718
1616.21142	0.09405
1614.28276	0.09081
1612.35411	0.08746
1610.42546	0.08417
1608.49680	0.08110
1606.56815	0.07825
1604.63950	0.07558
1602.71084	0.07309
1600.78219	0.07084
1598.85354	0.06891
1596.92488	0.06729
1594.99623	0.06590
1593.06758	0.06474
1591.13892	0.06387
1589.21027	0.06334
1587.28162	0.06305
1585.35296	0.06289
1583.42431	0.06285
1581.49566	0.06304
1579.56700	0.06351
1577.63835	0.06419
1575.70970	0.06500
1573.78104	0.06592
1571.85239	0.06694
1569.92374	0.06808
1567.99508	0.06941
1566.06643	0.07093
1564.13778	0.07247
1562.20912	0.07399
1560.28047	0.07562
1558.35182	0.07731
1556.42316	0.07888
1554.49451	0.08031
1552.56586	0.08173
1550.63721	0.08311
1548.70855	0.08441
1546.77990	0.08560
1544.85125	0.08663
1542.92259	0.08751
1540.99394	0.08828
1539.06529	0.08895
1537.13663	0.08948
1535.20798	0.08982
1533.27933	0.08995
1531.35067	0.08995
1529.42202	0.08992
1527.49337	0.08986
1525.56471	0.08969
1523.63606	0.08935
1521.70741	0.08889
1519.77875	0.08833
1517.85010	0.08767
1515.92145	0.08683
1513.99279	0.08566
1512.06414	0.08416
1510.13549	0.08246
1508.20683	0.08062
1506.27818	0.07859
1504.34953	0.07637
1502.42087	0.07408
1500.49222	0.07178
1498.56357	0.06948
1496.63491	0.06717
1494.70626	0.06486
1492.77761	0.06258
1490.84895	0.06044
1488.92030	0.05855
1486.99165	0.05698
1485.06299	0.05576
1483.13434	0.05494
1481.20569	0.05458
1479.27704	0.05473
1477.34838	0.05556
1475.41973	0.05741
1473.49108	0.06066
1471.56242	0.06570
1469.63377	0.07207
1467.70512	0.07805
1465.77646	0.08208
1463.84781	0.08409
1461.91916	0.08509
1459.99050	0.08606
1458.06185	0.08728
1456.13320	0.08813
1454.20454	0.08799
1452.27589	0.08699
1450.34724	0.08576
1448.41858	0.08476
1446.48993	0.08405
1444.56128	0.08344
1442.63262	0.08278
1440.70397	0.08201
1438.77532	0.08104
1436.84666	0.07983
1434.91801	0.07825
1432.98936	0.07624
1431.06070	0.07393
1429.13205	0.07164
1427.20340	0.06974
1425.27474	0.06846
1423.34609	0.06782
1421.41744	0.06773
1419.48878	0.06794
1417.56013	0.06811
1415.63148	0.06796
1413.70283	0.06742
1411.77417	0.06661
1409.84552	0.06582
1407.91687	0.06540
1405.98821	0.06545
1404.05956	0.06573
1402.13091	0.06584
1400.20225	0.06565
1398.27360	0.06537
1396.34495	0.06515
1394.41629	0.06501
1392.48764	0.06491
1390.55899	0.06491
1388.63033	0.06509
1386.70168	0.06540
1384.77303	0.06585
1382.84437	0.06661
1380.91572	0.06758
1378.98707	0.06831
1377.05841	0.06826
1375.12976	0.06735
1373.20111	0.06609
1371.27245	0.06498
1369.34380	0.06408
1367.41515	0.06319
1365.48649	0.06224
1363.55784	0.06131
1361.62919	0.06056
1359.70053	0.06011
1357.77188	0.05991
1355.84323	0.05981
1353.91457	0.05976
1351.98592	0.05987
1350.05727	0.06013
1348.12861	0.06042
1346.19996	0.06072
1344.27131	0.06107
1342.34266	0.06145
1340.41400	0.06174
1338.48535	0.06183
1336.55670	0.06176
1334.62804	0.06155
1332.69939	0.06121
1330.77074	0.06087
1328.84208	0.06065
1326.91343	0.06052
1324.98478	0.06041
1323.05612	0.06033
1321.12747	0.06023
1319.19882	0.06012
1317.27016	0.06002
1315.34151	0.05996
1313.41286	0.05985
1311.48420	0.05963
1309.55555	0.05934
1307.62690	0.05904
1305.69824	0.05883
1303.76959	0.05866
1301.84094	0.05846
1299.91228	0.05821
1297.98363	0.05787
1296.05498	0.05757
1294.12632	0.05746
1292.19767	0.05754
1290.26902	0.05776
1288.34036	0.05818
1286.41171	0.05880
1284.48306	0.05949
1282.55440	0.06021
1280.62575	0.06088
1278.69710	0.06134
1276.76845	0.06146
1274.83979	0.06143
1272.91114	0.06155
1270.98249	0.06190
1269.05383	0.06234
1267.12518	0.06277
1265.19653	0.06321
1263.26787	0.06366
1261.33922	0.06419
1259.41057	0.06479
1257.48191	0.06537
1255.55326	0.06592
1253.62461	0.06656
1251.69595	0.06743
1249.76730	0.06860
1247.83865	0.07000
1245.90999	0.07142
1243.98134	0.07267
1242.05269	0.07370
1240.12403	0.07452
1238.19538	0.07512
1236.26673	0.07548
1234.33807	0.07557
1232.40942	0.07541
1230.48077	0.07502
1228.55211	0.07450
1226.62346	0.07387
1224.69481	0.07307
1222.76615	0.07211
1220.83750	0.07104
1218.90885	0.06994
1216.98019	0.06891
1215.05154	0.06803
1213.12289	0.06730
1211.19423	0.06678
1209.26558	0.06653
1207.33693	0.06654
1205.40828	0.06680
1203.47962	0.06724
1201.55097	0.06780
1199.62232	0.06840
1197.69366	0.06885
1195.76501	0.06912
1193.83636	0.06922
1191.90770	0.06922
1189.97905	0.06924
1188.05040	0.06955
1186.12174	0.07027
1184.19309	0.07136
1182.26444	0.07277
1180.33578	0.07440
1178.40713	0.07614
1176.47848	0.07786
1174.54982	0.07941
1172.62117	0.08078
1170.69252	0.08210
1168.76386	0.08333
1166.83521	0.08431
1164.90656	0.08514
1162.97790	0.08589
1161.04925	0.08634
1159.12060	0.08629
1157.19194	0.08578
1155.26329	0.08497
1153.33464	0.08397
1151.40598	0.08288
1149.47733	0.08173
1147.54868	0.08047
1145.62002	0.07919
1143.69137	0.07794
1141.76272	0.07632
1139.83406	0.07396
1137.90541	0.07105
1135.97676	0.06799
1134.04811	0.06506
1132.11945	0.06249
1130.19080	0.06064
1128.26215	0.05988
1126.33349	0.06003
1124.40484	0.06074
1122.47619	0.06178
1120.54753	0.06290
1118.61888	0.06376
1116.69023	0.06415
1114.76157	0.06400
1112.83292	0.06342
1110.90427	0.06275
1108.97561	0.06237
1107.04696	0.06241
1105.11831	0.06271
1103.18965	0.06318
1101.26100	0.06384
1099.33235	0.06451
1097.40369	0.06496
1095.47504	0.06513
1093.54639	0.06500
1091.61773	0.06462
1089.68908	0.06419
1087.76043	0.06382
1085.83177	0.06351
1083.90312	0.06321
1081.97447	0.06279
1080.04581	0.06208
1078.11716	0.06104
1076.18851	0.05985
1074.25985	0.05870
1072.33120	0.05767
1070.40255	0.05683
1068.47390	0.05628
1066.54524	0.05592
1064.61659	0.05549
1062.68794	0.05497
1060.75928	0.05454
1058.83063	0.05416
1056.90198	0.05361
1054.97332	0.05288
1053.04467	0.05214
1051.11602	0.05144
1049.18736	0.05078
1047.25871	0.05020
1045.33006	0.04977
1043.40140	0.04943
1041.47275	0.04918
1039.54410	0.04919
1037.61544	0.04950
1035.68679	0.04993
1033.75814	0.05025
1031.82948	0.05037
1029.90083	0.05034
1027.97218	0.05022
1026.04352	0.04991
1024.11487	0.04937
1022.18622	0.04869
1020.25756	0.04799
1018.32891	0.04737
1016.40026	0.04681
1014.47160	0.04621
1012.54295	0.04555
1010.61430	0.04498
1008.68564	0.04448
1006.75699	0.04399
1004.82834	0.04349
1002.89968	0.04298
1000.97103	0.04249
999.04238	0.04203
997.11373	0.04159
995.18507	0.04121
993.25642	0.04085
991.32777	0.04050
989.39911	0.04024
987.47046	0.04004
985.54181	0.03984
983.61315	0.03966
981.68450	0.03957
979.75585	0.03953
977.82719	0.03950
975.89854	0.03959
973.96989	0.03979
972.04123	0.03989
970.11258	0.03977
968.18393	0.03953
966.25527	0.03926
964.32662	0.03896
962.39797	0.03856
960.46931	0.03813
958.54066	0.03777
956.61201	0.03743
954.68335	0.03705
952.75470	0.03661
950.82605	0.03613
948.89739	0.03570
946.96874	0.03540
945.04009	0.03520
943.11143	0.03507
941.18278	0.03508
939.25413	0.03507
937.32547	0.03476
935.39682	0.03430
933.46817	0.03401
931.53952	0.03390
929.61086	0.03388
927.68221	0.03386
925.75356	0.03379
923.82490	0.03364
921.89625	0.03343
919.96760	0.03326
918.03894	0.03309
916.11029	0.03279
914.18164	0.03252
912.25298	0.03242
910.32433	0.03235
908.39568	0.03224
906.46702	0.03213
904.53837	0.03186
902.60972	0.03146
900.68106	0.03122
898.75241	0.03118
896.82376	0.03122
894.89510	0.03120
892.96645	0.03108
891.03780	0.03100
889.10914	0.03105
887.18049	0.03107
885.25184	0.03102
883.32318	0.03108
881.39453	0.03134
879.46588	0.03161
877.53722	0.03179
875.60857	0.03200
873.67992	0.03219
871.75126	0.03211
869.82261	0.03184
867.89396	0.03166
865.96530	0.03163
864.03665	0.03161
862.10800	0.03145
860.17935	0.03121
858.25069	0.03107
856.32204	0.03113
854.39339	0.03132
852.46473	0.03140
850.53608	0.03138
848.60743	0.03129
846.67877	0.03108
844.75012	0.03086
842.82147	0.03077
840.89281	0.03073
838.96416	0.03066
837.03551	0.03052
835.10685	0.03027
833.17820	0.03004
831.24955	0.02997
829.32089	0.03001
827.39224	0.03013
825.46359	0.03033
823.53493	0.03051
821.60628	0.03052
819.67763	0.03047
817.74897	0.03059
815.82032	0.03075
813.89167	0.03070
811.96301	0.03051
810.03436	0.03037
808.10571	0.03039
806.17705	0.03050
804.24840	0.03057
802.31975	0.03062
800.39109	0.03074
798.46244	0.03097
796.53379	0.03118
794.60513	0.03128
792.67648	0.03136
790.74783	0.03150
788.81918	0.03168
786.89052	0.03188
784.96187	0.03213
783.03322	0.03237
781.10456	0.03255
779.17591	0.03263
777.24726	0.03268
775.31860	0.03265
773.38995	0.03253
771.46130	0.03260
769.53264	0.03293
767.60399	0.03318
765.67534	0.03323
763.74668	0.03334
761.81803	0.03359
759.88938	0.03385
757.96072	0.03410
756.03207	0.03433
754.10342	0.03457
752.17476	0.03481
750.24611	0.03503
748.31746	0.03526
746.38880	0.03550
744.46015	0.03580
742.53150	0.03624
740.60284	0.03665
738.67419	0.03703
736.74554	0.03765
734.81688	0.03834
732.88823	0.03891
730.95958	0.03964
729.03092	0.04060
727.10227	0.04167
725.17362	0.04280
723.24497	0.04367
721.31631	0.04412
719.38766	0.04407
717.45901	0.04371
715.53035	0.04318
713.60170	0.04268
711.67305	0.04237
709.74439	0.04216
707.81574	0.04199
705.88709	0.04191
703.95843	0.04195
702.02978	0.04206
700.10113	0.04217
698.17247	0.04222
696.24382	0.04222
694.31517	0.04214
692.38651	0.04191
690.45786	0.04168
688.52921	0.04161
686.60055	0.04165
684.67190	0.04165
682.74325	0.04161
680.81459	0.04154
678.88594	0.04146
676.95729	0.04141
675.02863	0.04143
673.09998	0.04146
671.17133	0.04145
669.24267	0.04144
667.31402	0.04150
665.38537	0.04161
663.45671	0.04166
661.52806	0.04163
659.59941	0.04160
657.67075	0.04161
655.74210	0.04155
653.81345	0.04150
651.88480	0.04156
649.95614	0.04163
648.02749	0.04155
646.09884	0.04144
644.17018	0.04144
642.24153	0.04149
640.31288	0.04143
638.38422	0.04127
636.45557	0.04111
634.52692	0.04102
632.59826	0.04103
630.66961	0.04127
628.74096	0.04177
626.81230	0.04105
624.88365	0.03967
622.95500	0.03804
621.02634	0.03685
619.09769	0.03696
617.16904	0.03814
615.24038	0.03949
613.31173	0.03972
611.38308	0.03876
609.45442	0.03855
607.52577	0.03928
605.59712	0.04009
603.66846	0.04114
601.73981	0.04176
599.81116	0.04154
597.88250	0.04128
595.95385	0.04132
594.02520	0.04145
592.09654	0.04165
590.16789	0.04194
588.23924	0.04219
586.31059	0.04225
584.38193	0.04223
582.45328	0.04217
580.52463	0.04189
578.59597	0.04160
576.66732	0.04169
574.73867	0.04203
572.81001	0.04224
570.88136	0.04212
568.95271	0.04182
567.02405	0.04168
565.09540	0.04179
563.16675	0.04195
561.23809	0.04196
559.30944	0.04182
557.38079	0.04169
555.45213	0.04162
553.52348	0.04148
551.59483	0.04135
549.66617	0.04145
547.73752	0.04151
545.80887	0.04129
543.88021	0.04099
541.95156	0.04077
540.02291	0.04058
538.09425	0.04050
536.16560	0.04055
534.23695	0.04049
532.30829	0.04030
530.37964	0.04036
528.45099	0.04069
526.52233	0.04085
524.59368	0.04066
522.66503	0.04033
520.73637	0.03998
518.80772	0.03954
516.87907	0.03910
514.95042	0.03881
513.02176	0.03864
511.09311	0.03852
509.16446	0.03840
507.23580	0.03822
505.30715	0.03799
503.37850	0.03785
501.44984	0.03783
499.52119	0.03781
497.59254	0.03768
495.66388	0.03745
493.73523	0.03730
491.80658	0.03725
489.87792	0.03715
487.94927	0.03706
486.02062	0.03701
484.09196	0.03695
482.16331	0.03689
480.23466	0.03688
478.30600	0.03687
476.37735	0.03682
474.44870	0.03670
472.52004	0.03656
470.59139	0.03643
468.66274	0.03628
466.73408	0.03625
464.80543	0.03631
462.87678	0.03624
460.94812	0.03611
459.01947	0.03607
457.09082	0.03595
455.16216	0.03561
453.23351	0.03521
451.30486	0.03493
449.37620	0.03471
447.44755	0.03442
445.51890	0.03407
443.59025	0.03378
441.66159	0.03355
439.73294	0.03329
437.80429	0.03303
435.87563	0.03290
433.94698	0.03281
432.01833	0.03255
430.08967	0.03224
428.16102	0.03205
426.23237	0.03193
424.30371	0.03176
422.37506	0.03150
420.44641	0.03121
418.51775	0.03100
416.58910	0.03091
414.66045	0.03089
412.73179	0.03082
410.80314	0.03063
408.87449	0.03034
406.94583	0.03009
405.01718	0.02992
403.08853	0.02969
401.15987	0.02934
399.23122	0.02893
