3996.16951	0.02543
3994.24086	0.02522
3992.31221	0.02483
3990.38355	0.02439
3988.45490	0.02398
3986.52625	0.02392
3984.59759	0.02412
3982.66894	0.02406
3980.74029	0.02372
3978.81163	0.02354
3976.88298	0.02369
3974.95433	0.02397
3973.02567	0.02419
3971.09702	0.02436
3969.16837	0.02464
3967.23972	0.02470
3965.31106	0.02420
3963.38241	0.02352
3961.45376	0.02325
3959.52510	0.02332
3957.59645	0.02317
3955.66780	0.02281
3953.73914	0.02273
3951.81049	0.02280
3949.88184	0.02278
3947.95318	0.02290
3946.02453	0.02329
3944.09588	0.02377
3942.16722	0.02412
3940.23857	0.02433
3938.30992	0.02439
3936.38126	0.02419
3934.45261	0.02393
3932.52396	0.02364
3930.59530	0.02325
3928.66665	0.02296
3926.73800	0.02295
3924.80934	0.02341
3922.88069	0.02416
3920.95204	0.02465
3919.02338	0.02450
3917.09473	0.02391
3915.16608	0.02317
3913.23742	0.02266
3911.30877	0.02267
3909.38012	0.02306
3907.45146	0.02328
3905.52281	0.02333
3903.59416	0.02342
3901.66550	0.02323
3899.73685	0.02285
3897.80820	0.02276
3895.87955	0.02288
3893.95089	0.02296
3892.02224	0.02326
3890.09359	0.02363
3888.16493	0.02383
3886.23628	0.02380
3884.30763	0.02338
3882.37897	0.02307
3880.45032	0.02288
3878.52167	0.02240
3876.59301	0.02201
3874.66436	0.02175
3872.73571	0.02157
3870.80705	0.02198
3868.87840	0.02241
3866.94975	0.02271
3865.02109	0.02310
3863.09244	0.02324
3861.16379	0.02325
3859.23513	0.02278
3857.30648	0.02202
3855.37783	0.02207
3853.44917	0.02250
3851.52052	0.02255
3849.59187	0.02265
3847.66321	0.02253
3845.73456	0.02222
3843.80591	0.02219
3841.87725	0.02232
3839.94860	0.02247
3838.01995	0.02251
3836.09129	0.02223
3834.16264	0.02195
3832.23399	0.02152
3830.30534	0.02094
3828.37668	0.02087
3826.44803	0.02128
3824.51938	0.02174
3822.59072	0.02245
3820.66207	0.02264
3818.73342	0.02222
3816.80476	0.02228
3814.87611	0.02251
3812.94746	0.02281
3811.01880	0.02265
3809.09015	0.02184
3807.16150	0.02146
3805.23284	0.02140
3803.30419	0.02160
3801.37554	0.02165
3799.44688	0.02114
3797.51823	0.02089
3795.58958	0.02077
3793.66092	0.02092
3791.73227	0.02164
3789.80362	0.02223
3787.87496	0.02228
3785.94631	0.02212
3784.01766	0.02209
3782.08900	0.02212
3780.16035	0.02190
3778.23170	0.02147
3776.30304	0.02150
3774.37439	0.02179
3772.44574	0.02169
3770.51708	0.02140
3768.58843	0.02105
3766.65978	0.02089
3764.73112	0.02084
3762.80247	0.02087
3760.87382	0.02115
3758.94517	0.02137
3757.01651	0.02155
3755.08786	0.02174
3753.15921	0.02190
3751.23055	0.02186
3749.30190	0.02174
3747.37325	0.02172
3745.44459	0.02224
3743.51594	0.02193
3741.58729	0.02100
3739.65863	0.02085
3737.72998	0.02122
3735.80133	0.02129
3733.87267	0.02080
3731.94402	0.02037
3730.01537	0.02009
3728.08671	0.02015
3726.15806	0.02028
3724.22941	0.02033
3722.30075	0.02044
3720.37210	0.02068
3718.44345	0.02114
3716.51479	0.02122
3714.58614	0.02092
3712.65749	0.02085
3710.72883	0.02079
3708.80018	0.02063
3706.87153	0.02052
3704.94287	0.02046
3703.01422	0.02060
3701.08557	0.02072
3699.15691	0.02042
3697.22826	0.01990
3695.29961	0.01948
3693.37095	0.01953
3691.44230	0.02013
3689.51365	0.02102
3687.58500	0.02130
3685.65634	0.02069
3683.72769	0.02008
3681.79904	0.01983
3679.87038	0.01994
3677.94173	0.02038
3676.01308	0.02106
3674.08442	0.02125
3672.15577	0.02155
3670.22712	0.02192
3668.29846	0.02159
3666.36981	0.02131
3664.44116	0.02147
3662.51250	0.02175
3660.58385	0.02169
3658.65520	0.02154
3656.72654	0.02196
3654.79789	0.02261
3652.86924	0.02307
3650.94058	0.02332
3649.01193	0.02338
3647.08328	0.02345
3645.15462	0.02355
3643.22597	0.02345
3641.29732	0.02332
3639.36866	0.02370
3637.44001	0.02450
3635.51136	0.02503
3633.58270	0.02500
3631.65405	0.02471
3629.72540	0.02473
3627.79674	0.02482
3625.86809	0.02492
3623.93944	0.02486
3622.01079	0.02485
3620.08213	0.02525
3618.15348	0.02581
3616.22483	0.02618
3614.29617	0.02610
3612.36752	0.02587
3610.43887	0.02638
3608.51021	0.02735
3606.58156	0.02775
3604.65291	0.02784
3602.72425	0.02790
3600.79560	0.02773
3598.86695	0.02750
3596.93829	0.02765
3595.00964	0.02831
3593.08099	0.02920
3591.15233	0.02997
3589.22368	0.03043
3587.29503	0.03055
3585.36637	0.03040
3583.43772	0.03033
3581.50907	0.03057
3579.58041	0.03108
3577.65176	0.03181
3575.72311	0.03246
3573.79445	0.03262
3571.86580	0.03241
3569.93715	0.03247
3568.00849	0.03310
3566.07984	0.03379
3564.15119	0.03418
3562.22253	0.03427
3560.29388	0.03418
3558.36523	0.03437
3556.43657	0.03520
3554.50792	0.03638
3552.57927	0.03721
3550.65062	0.03751
3548.72196	0.03782
3546.79331	0.03822
3544.86466	0.03836
3542.93600	0.03845
3541.00735	0.03875
3539.07870	0.03898
3537.15004	0.03912
3535.22139	0.03942
3533.29274	0.03970
3531.36408	0.03965
3529.43543	0.03961
3527.50678	0.04002
3525.57812	0.04062
3523.64947	0.04099
3521.72082	0.04107
3519.79216	0.04114
3517.86351	0.04143
3515.93486	0.04186
3514.00620	0.04230
3512.07755	0.04280
3510.14890	0.04313
3508.22024	0.04312
3506.29159	0.04318
3504.36294	0.04356
3502.43428	0.04388
3500.50563	0.04392
3498.57698	0.04380
3496.64832	0.04380
3494.71967	0.04403
3492.79102	0.04445
3490.86236	0.04512
3488.93371	0.04594
3487.00506	0.04649
3485.07641	0.04653
3483.14775	0.04646
3481.21910	0.04668
3479.29045	0.04718
3477.36179	0.04765
3475.43314	0.04788
3473.50449	0.04813
3471.57583	0.04870
3469.64718	0.04939
3467.71853	0.04979
3465.78987	0.04995
3463.86122	0.05007
3461.93257	0.05010
3460.00391	0.04990
3458.07526	0.04952
3456.14661	0.04931
3454.21795	0.04959
3452.28930	0.05002
3450.36065	0.05036
3448.43199	0.05086
3446.50334	0.05148
3444.57469	0.05182
3442.64603	0.05179
3440.71738	0.05167
3438.78873	0.05178
3436.86007	0.05220
3434.93142	0.05283
3433.00277	0.05347
3431.07411	0.05397
3429.14546	0.05432
3427.21681	0.05450
3425.28815	0.05463
3423.35950	0.05494
3421.43085	0.05536
3419.50219	0.05554
3417.57354	0.05557
3415.64489	0.05585
3413.71624	0.05638
3411.78758	0.05682
3409.85893	0.05701
3407.93028	0.05699
3406.00162	0.05711
3404.07297	0.05776
3402.14432	0.05872
3400.21566	0.05919
3398.28701	0.05890
3396.35836	0.05866
3394.42970	0.05891
3392.50105	0.05930
3390.57240	0.05961
3388.64374	0.05981
3386.71509	0.05996
3384.78644	0.06009
3382.85778	0.06017
3380.92913	0.06043
3379.00048	0.06091
3377.07182	0.06138
3375.14317	0.06174
3373.21452	0.06213
3371.28586	0.06269
3369.35721	0.06312
3367.42856	0.06322
3365.49990	0.06341
3363.57125	0.06391
3361.64260	0.06449
3359.71394	0.06513
3357.78529	0.06590
3355.85664	0.06646
3353.92798	0.06661
3351.99933	0.06657
3350.07068	0.06681
3348.14202	0.06747
3346.21337	0.06813
3344.28472	0.06840
3342.35607	0.06843
3340.42741	0.06863
3338.49876	0.06907
3336.57011	0.06949
3334.64145	0.06983
3332.71280	0.07025
3330.78415	0.07086
3328.85549	0.07144
3326.92684	0.07157
3324.99819	0.07145
3323.06953	0.07156
3321.14088	0.07174
3319.21223	0.07192
3317.28357	0.07239
3315.35492	0.07295
3313.42627	0.07332
3311.49761	0.07358
3309.56896	0.07381
3307.64031	0.07402
3305.71165	0.07419
3303.78300	0.07432
3301.85435	0.07432
3299.92569	0.07405
3297.99704	0.07395
3296.06839	0.07438
3294.13973	0.07482
3292.21108	0.07487
3290.28243	0.07490
3288.35377	0.07513
3286.42512	0.07526
3284.49647	0.07516
3282.56781	0.07489
3280.63916	0.07466
3278.71051	0.07467
3276.78186	0.07472
3274.85320	0.07460
3272.92455	0.07434
3270.99590	0.07419
3269.06724	0.07414
3267.13859	0.07380
3265.20994	0.07311
3263.28128	0.07251
3261.35263	0.07216
3259.42398	0.07181
3257.49532	0.07129
3255.56667	0.07069
3253.63802	0.06998
3251.70936	0.06934
3249.78071	0.06907
3247.85206	0.06910
3245.92340	0.06914
3243.99475	0.06880
3242.06610	0.06811
3240.13744	0.06754
3238.20879	0.06729
3236.28014	0.06716
3234.35148	0.06691
3232.42283	0.06644
3230.49418	0.06596
3228.56552	0.06567
3226.63687	0.06560
3224.70822	0.06567
3222.77956	0.06573
3220.85091	0.06570
3218.92226	0.06554
3216.99360	0.06519
3215.06495	0.06476
3213.13630	0.06443
3211.20764	0.06432
3209.27899	0.06437
3207.35034	0.06423
3205.42169	0.06372
3203.49303	0.06307
3201.56438	0.06264
3199.63573	0.06248
3197.70707	0.06240
3195.77842	0.06220
3193.84977	0.06190
3191.92111	0.06162
3189.99246	0.06128
3188.06381	0.06078
3186.13515	0.06023
3184.20650	0.05987
3182.27785	0.05986
3180.34919	0.05985
3178.42054	0.05937
3176.49189	0.05863
3174.56323	0.05798
3172.63458	0.05732
3170.70593	0.05653
3168.77727	0.05595
3166.84862	0.05576
3164.91997	0.05569
3162.99131	0.05562
3161.06266	0.05540
3159.13401	0.05486
3157.20535	0.05417
3155.27670	0.05368
3153.34805	0.05341
3151.41939	0.05316
3149.49074	0.05280
3147.56209	0.05258
3145.63343	0.05255
3143.70478	0.05229
3141.77613	0.05185
3139.84748	0.05159
3137.91882	0.05126
3135.99017	0.05057
3134.06152	0.04988
3132.13286	0.04959
3130.20421	0.04954
3128.27556	0.04929
3126.34690	0.04886
3124.41825	0.04863
3122.48960	0.04855
3120.56094	0.04849
3118.63229	0.04865
3116.70364	0.04884
3114.77498	0.04881
3112.84633	0.04878
3110.91768	0.04887
3108.98902	0.04879
3107.06037	0.04861
3105.13172	0.04874
3103.20306	0.04911
3101.27441	0.04920
3099.34576	0.04895
3097.41710	0.04876
3095.48845	0.04884
3093.55980	0.04908
3091.63114	0.04939
3089.70249	0.04969
3087.77384	0.04984
3085.84518	0.04992
3083.91653	0.05008
3081.98788	0.05034
3080.05922	0.05052
3078.13057	0.05051
3076.20192	0.05055
3074.27326	0.05078
3072.34461	0.05088
3070.41596	0.05069
3068.48731	0.05050
3066.55865	0.05047
3064.63000	0.05039
3062.70135	0.05014
3060.77269	0.04986
3058.84404	0.04968
3056.91539	0.04966
3054.98673	0.04962
3053.05808	0.04933
3051.12943	0.04887
3049.20077	0.04848
3047.27212	0.04821
3045.34347	0.04807
3043.41481	0.04786
3041.48616	0.04741
3039.55751	0.04694
3037.62885	0.04670
3035.70020	0.04671
3033.77155	0.04681
3031.84289	0.04666
3029.91424	0.04620
3027.98559	0.04593
3026.05693	0.04621
3024.12828	0.04688
3022.19963	0.04747
3020.27097	0.04780
3018.34232	0.04810
3016.41367	0.04877
3014.48501	0.05005
3012.55636	0.05164
3010.62771	0.05302
3008.69905	0.05411
3006.77040	0.05496
3004.84175	0.05551
3002.91309	0.05561
3000.98444	0.05506
2999.05579	0.05395
2997.12714	0.05284
2995.19848	0.05222
2993.26983	0.05192
2991.34118	0.05163
2989.41252	0.05154
2987.48387	0.05196
2985.55522	0.05283
2983.62656	0.05399
2981.69791	0.05548
2979.76926	0.05720
2977.84060	0.05893
2975.91195	0.06084
2973.98330	0.06338
2972.05464	0.06682
2970.12599	0.07101
2968.19734	0.07561
2966.26868	0.08042
2964.34003	0.08553
2962.41138	0.09085
2960.48272	0.09589
2958.55407	0.10014
2956.62542	0.10329
2954.69676	0.10503
2952.76811	0.10561
2950.83946	0.10588
2948.91080	0.10656
2946.98215	0.10824
2945.05350	0.11177
2943.12484	0.11753
2941.19619	0.12504
2939.26754	0.13397
2937.33888	0.14450
2935.41023	0.15652
2933.48158	0.16944
2931.55293	0.18244
2929.62427	0.19494
2927.69562	0.20651
2925.76697	0.21630
2923.83831	0.22319
2921.90966	0.22623
2919.98101	0.22488
2918.05235	0.21915
2916.12370	0.20941
2914.19505	0.19670
2912.26639	0.18298
2910.33774	0.17022
2908.40909	0.15944
2906.48043	0.15058
2904.55178	0.14304
2902.62313	0.13614
2900.69447	0.12967
2898.76582	0.12399
2896.83717	0.11915
2894.90851	0.11442
2892.97986	0.10946
2891.05121	0.10468
2889.12255	0.10028
2887.19390	0.09621
2885.26525	0.09276
2883.33659	0.09029
2881.40794	0.08884
2879.47929	0.08835
2877.55063	0.08893
2875.62198	0.09075
2873.69333	0.09348
2871.76467	0.09592
2869.83602	0.09742
2867.90737	0.09884
2865.97871	0.10173
2864.05006	0.10756
2862.12141	0.11690
2860.19276	0.12905
2858.26410	0.14266
2856.33545	0.15609
2854.40680	0.16672
2852.47814	0.17127
2850.54949	0.16769
2848.62084	0.15641
2846.69218	0.13995
2844.76353	0.12208
2842.83488	0.10633
2840.90622	0.09420
2838.97757	0.08526
2837.04892	0.07853
2835.12026	0.07337
2833.19161	0.06933
2831.26296	0.06599
2829.33430	0.06313
2827.40565	0.06069
2825.47700	0.05852
2823.54834	0.05661
2821.61969	0.05510
2819.69104	0.05385
2817.76238	0.05262
2815.83373	0.05131
2813.90508	0.05006
2811.97642	0.04913
2810.04777	0.04848
2808.11912	0.04778
2806.19046	0.04699
2804.26181	0.04626
2802.33316	0.04576
2800.40450	0.04542
2798.47585	0.04499
2796.54720	0.04439
2794.61855	0.04379
2792.68989	0.04340
2790.76124	0.04319
2788.83259	0.04288
2786.90393	0.04234
2784.97528	0.04182
2783.04663	0.04145
2781.11797	0.04111
2779.18932	0.04070
2777.26067	0.04030
2775.33201	0.03999
2773.40336	0.03977
2771.47471	0.03950
2769.54605	0.03928
2767.61740	0.03923
2765.68875	0.03908
2763.76009	0.03875
2761.83144	0.03838
2759.90279	0.03805
2757.97413	0.03783
2756.04548	0.03765
2754.11683	0.03736
2752.18817	0.03714
2750.25952	0.03721
2748.33087	0.03725
2746.40221	0.03693
2744.47356	0.03648
2742.54491	0.03625
2740.61625	0.03618
2738.68760	0.03610
2736.75895	0.03595
2734.83029	0.03584
2732.90164	0.03582
2730.97299	0.03579
2729.04433	0.03563
2727.11568	0.03540
2725.18703	0.03518
2723.25838	0.03498
2721.32972	0.03479
2719.40107	0.03453
2717.47242	0.03425
2715.54376	0.03400
2713.61511	0.03383
2711.68646	0.03377
2709.75780	0.03374
2707.82915	0.03368
2705.90050	0.03361
2703.97184	0.03353
2702.04319	0.03349
2700.11454	0.03348
2698.18588	0.03346
2696.25723	0.03340
2694.32858	0.03322
2692.39992	0.03301
2690.47127	0.03298
2688.54262	0.03304
2686.61396	0.03305
2684.68531	0.03294
2682.75666	0.03283
2680.82800	0.03287
2678.89935	0.03286
2676.97070	0.03274
2675.04204	0.03277
2673.11339	0.03283
2671.18474	0.03269
2669.25608	0.03246
2667.32743	0.03227
2665.39878	0.03209
2663.47012	0.03204
2661.54147	0.03213
2659.61282	0.03223
2657.68417	0.03217
2655.75551	0.03192
2653.82686	0.03160
2651.89821	0.03134
2649.96955	0.03105
2648.04090	0.03069
2646.11225	0.03036
2644.18359	0.03008
2642.25494	0.02985
2640.32629	0.02967
2638.39763	0.02954
2636.46898	0.02941
2634.54033	0.02913
2632.61167	0.02875
2630.68302	0.02855
2628.75437	0.02844
2626.82571	0.02812
2624.89706	0.02776
2622.96841	0.02769
2621.03975	0.02782
2619.11110	0.02781
2617.18245	0.02744
2615.25379	0.02670
2613.32514	0.02604
2611.39649	0.02597
2609.46783	0.02626
2607.53918	0.02621
2605.61053	0.02579
2603.68187	0.02559
2601.75322	0.02572
2599.82457	0.02568
2597.89591	0.02533
2595.96726	0.02504
2594.03861	0.02500
2592.10995	0.02492
2590.18130	0.02451
2588.25265	0.02416
2586.32400	0.02413
2584.39534	0.02395
2582.46669	0.02351
2580.53804	0.02324
2578.60938	0.02323
2576.68073	0.02315
2574.75208	0.02315
2572.82342	0.02335
2570.89477	0.02351
2568.96612	0.02361
2567.03746	0.02349
2565.10881	0.02303
2563.18016	0.02268
2561.25150	0.02265
2559.32285	0.02276
2557.39420	0.02290
2555.46554	0.02303
2553.53689	0.02301
2551.60824	0.02281
2549.67958	0.02256
2547.75093	0.02228
2545.82228	0.02195
2543.89362	0.02175
2541.96497	0.02177
2540.03632	0.02179
2538.10766	0.02176
2536.17901	0.02181
2534.25036	0.02185
2532.32170	0.02167
2530.39305	0.02130
2528.46440	0.02105
2526.53574	0.02107
2524.60709	0.02130
2522.67844	0.02147
2520.74978	0.02121
2518.82113	0.02074
2516.89248	0.02057
2514.96383	0.02061
2513.03517	0.02059
2511.10652	0.02049
2509.17787	0.02049
2507.24921	0.02074
2505.32056	0.02085
2503.39191	0.02056
2501.46325	0.02039
2499.53460	0.02045
2497.60595	0.02043
2495.67729	0.02046
2493.74864	0.02060
2491.81999	0.02070
2489.89133	0.02070
2487.96268	0.02048
2486.03403	0.01999
2484.10537	0.01977
2482.17672	0.02013
2480.24807	0.02048
2478.31941	0.02031
2476.39076	0.02007
2474.46211	0.02010
2472.53345	0.02000
2470.60480	0.01966
2468.67615	0.01950
2466.74749	0.01967
2464.81884	0.01993
2462.89019	0.02008
2460.96153	0.02007
2459.03288	0.01997
2457.10423	0.01999
2455.17557	0.02015
2453.24692	0.02025
2451.31827	0.02031
2449.38962	0.02041
2447.46096	0.02026
2445.53231	0.01982
2443.60366	0.01944
2441.67500	0.01934
2439.74635	0.01954
2437.81770	0.01980
2435.88904	0.01980
2433.96039	0.01973
2432.03174	0.01977
2430.10308	0.01963
2428.17443	0.01932
2426.24578	0.01926
2424.31712	0.01955
2422.38847	0.01982
2420.45982	0.01977
2418.53116	0.01960
2416.60251	0.01960
2414.67386	0.01961
2412.74520	0.01951
2410.81655	0.01939
2408.88790	0.01926
2406.95924	0.01902
2405.03059	0.01883
2403.10194	0.01883
2401.17328	0.01883
2399.24463	0.01865
2397.31598	0.01860
2395.38732	0.01893
2393.45867	0.01952
2391.53002	0.01980
2389.60136	0.01964
2387.67271	0.01942
2385.74406	0.01945
2383.81540	0.01972
2381.88675	0.01988
2379.95810	0.01966
2378.02945	0.01937
2376.10079	0.01956
2374.17214	0.02008
2372.24349	0.02019
2370.31483	0.01931
2368.38618	0.02023
2366.45753	0.02044
2364.52887	0.02102
2362.60022	0.02045
2360.67157	0.02102
2358.74291	0.01971
2356.81426	0.02123
2354.88561	0.02098
2352.95695	0.02037
2351.02830	0.02070
2349.09965	0.02051
2347.17099	0.02062
2345.24234	0.02092
2343.31369	0.02140
2341.38503	0.02091
2339.45638	0.02019
2337.52773	0.02060
2335.59907	0.02147
2333.67042	0.02145
2331.74177	0.02110
2329.81311	0.02096
2327.88446	0.02105
2325.95581	0.02127
2324.02715	0.02147
2322.09850	0.02150
2320.16985	0.02131
2318.24119	0.02089
2316.31254	0.02051
2314.38389	0.02026
2312.45524	0.02011
2310.52658	0.01997
2308.59793	0.01982
2306.66928	0.01976
2304.74062	0.01945
2302.81197	0.01890
2300.88332	0.01879
2298.95466	0.01938
2297.02601	0.01989
2295.09736	0.01996
2293.16870	0.01965
2291.24005	0.01901
2289.31140	0.01828
2287.38274	0.01787
2285.45409	0.01776
2283.52544	0.01775
2281.59678	0.01786
2279.66813	0.01802
2277.73948	0.01801
2275.81082	0.01765
2273.88217	0.01705
2271.95352	0.01665
2270.02486	0.01665
2268.09621	0.01666
2266.16756	0.01646
2264.23890	0.01632
2262.31025	0.01623
2260.38160	0.01609
2258.45294	0.01618
2256.52429	0.01646
2254.59564	0.01649
2252.66698	0.01607
2250.73833	0.01556
2248.80968	0.01545
2246.88102	0.01536
2244.95237	0.01505
2243.02372	0.01481
2241.09507	0.01494
2239.16641	0.01511
2237.23776	0.01504
2235.30911	0.01487
2233.38045	0.01477
2231.45180	0.01463
2229.52315	0.01416
2227.59449	0.01400
2225.66584	0.01449
2223.73719	0.01449
2221.80853	0.01398
2219.87988	0.01386
2217.95123	0.01387
2216.02257	0.01393
2214.09392	0.01425
2212.16527	0.01422
2210.23661	0.01374
2208.30796	0.01385
2206.37931	0.01419
2204.45065	0.01370
2202.52200	0.01314
2200.59335	0.01336
2198.66469	0.01347
2196.73604	0.01255
2194.80739	0.01163
2192.87873	0.01198
2190.95008	0.01288
2189.02143	0.01288
2187.09277	0.01218
2185.16412	0.01197
2183.23547	0.01209
2181.30681	0.01184
2179.37816	0.01109
2177.44951	0.00984
2175.52085	0.00897
2173.59220	0.00911
2171.66355	0.00975
2169.73490	0.01052
2167.80624	0.01049
2165.87759	0.00894
2163.94894	0.00715
2162.02028	0.00623
2160.09163	0.00668
2158.16298	0.00846
2156.23432	0.00966
2154.30567	0.00983
2152.37702	0.00988
2150.44836	0.00993
2148.51971	0.01063
2146.59106	0.01180
2144.66240	0.01199
2142.73375	0.01142
2140.80510	0.01144
2138.87644	0.01191
2136.94779	0.01200
2135.01914	0.01174
2133.09048	0.01174
2131.16183	0.01233
2129.23318	0.01324
2127.30452	0.01376
2125.37587	0.01375
2123.44722	0.01379
2121.51856	0.01400
2119.58991	0.01409
2117.66126	0.01434
2115.73260	0.01462
2113.80395	0.01417
2111.87530	0.01350
2109.94664	0.01362
2108.01799	0.01410
2106.08934	0.01434
2104.16069	0.01419
2102.23203	0.01358
2100.30338	0.01316
2098.37473	0.01324
2096.44607	0.01326
2094.51742	0.01307
2092.58877	0.01336
2090.66011	0.01402
2088.73146	0.01434
2086.80281	0.01437
2084.87415	0.01416
2082.94550	0.01330
2081.01685	0.01225
2079.08819	0.01199
2077.15954	0.01245
2075.23089	0.01245
2073.30223	0.01171
2071.37358	0.01114
2069.44493	0.01118
2067.51627	0.01151
2065.58762	0.01185
2063.65897	0.01190
2061.73031	0.01152
2059.80166	0.01103
2057.87301	0.01087
2055.94435	0.01128
2054.01570	0.01209
2052.08705	0.01282
2050.15839	0.01281
2048.22974	0.01209
2046.30109	0.01145
2044.37243	0.01117
2042.44378	0.01104
2040.51513	0.01077
2038.58647	0.01018
2036.65782	0.00934
2034.72917	0.00841
2032.80052	0.00783
2030.87186	0.00787
2028.94321	0.00802
2027.01456	0.00768
2025.08590	0.00703
2023.15725	0.00653
2021.22860	0.00567
2019.29994	0.00490
2017.37129	0.00589
2015.44264	0.00816
2013.51398	0.00929
2011.58533	0.00842
2009.65668	0.00716
2007.72802	0.00707
2005.79937	0.00806
2003.87072	0.00908
2001.94206	0.00943
2000.01341	0.00960
1998.08476	0.01010
1996.15610	0.01054
1994.22745	0.01065
1992.29880	0.01076
1990.37014	0.01098
1988.44149	0.01106
1986.51284	0.01109
1984.58418	0.01066
1982.65553	0.00908
1980.72688	0.00765
1978.79822	0.00770
1976.86957	0.00839
1974.94092	0.00887
1973.01226	0.00911
1971.08361	0.00900
1969.15496	0.00889
1967.22631	0.00921
1965.29765	0.00949
1963.36900	0.00931
1961.44035	0.00918
1959.51169	0.00969
1957.58304	0.01075
1955.65439	0.01161
1953.72573	0.01185
1951.79708	0.01174
1949.86843	0.01153
1947.93977	0.01119
1946.01112	0.01071
1944.08247	0.01046
1942.15381	0.01089
1940.22516	0.01164
1938.29651	0.01179
1936.36785	0.01115
1934.43920	0.01050
1932.51055	0.01030
1930.58189	0.01059
1928.65324	0.01122
1926.72459	0.01178
1924.79593	0.01214
1922.86728	0.01239
1920.93863	0.01251
1919.00997	0.01246
1917.08132	0.01232
1915.15267	0.01241
1913.22401	0.01260
1911.29536	0.01238
1909.36671	0.01203
1907.43805	0.01222
1905.50940	0.01263
1903.58075	0.01248
1901.65209	0.01211
1899.72344	0.01217
1897.79479	0.01244
1895.86614	0.01275
1893.93748	0.01310
1892.00883	0.01320
1890.08018	0.01309
1888.15152	0.01299
1886.22287	0.01289
1884.29422	0.01285
1882.36556	0.01291
1880.43691	0.01294
1878.50826	0.01298
1876.57960	0.01307
1874.65095	0.01310
1872.72230	0.01306
1870.79364	0.01301
1868.86499	0.01287
1866.93634	0.01262
1865.00768	0.01253
1863.07903	0.01264
1861.15038	0.01276
1859.22172	0.01282
1857.29307	0.01285
1855.36442	0.01294
1853.43576	0.01311
1851.50711	0.01327
1849.57846	0.01338
1847.64980	0.01334
1845.72115	0.01330
1843.79250	0.01342
1841.86384	0.01358
1839.93519	0.01369
1838.00654	0.01381
1836.07788	0.01404
1834.14923	0.01414
1832.22058	0.01394
1830.29192	0.01367
1828.36327	0.01338
1826.43462	0.01325
1824.50597	0.01340
1822.57731	0.01358
1820.64866	0.01363
1818.72001	0.01366
1816.79135	0.01378
1814.86270	0.01391
1812.93405	0.01407
1811.00539	0.01434
1809.07674	0.01472
1807.14809	0.01505
1805.21943	0.01519
1803.29078	0.01525
1801.36213	0.01533
1799.43347	0.01541
1797.50482	0.01541
1795.57617	0.01533
1793.64751	0.01533
1791.71886	0.01542
1789.79021	0.01542
1787.86155	0.01539
1785.93290	0.01545
1784.00425	0.01562
1782.07559	0.01593
1780.14694	0.01627
1778.21829	0.01655
1776.28963	0.01686
1774.36098	0.01734
1772.43233	0.01794
1770.50367	0.01858
1768.57502	0.01960
1766.64637	0.02115
1764.71771	0.02348
1762.78906	0.02701
1760.86041	0.03189
1758.93176	0.03843
1757.00310	0.04692
1755.07445	0.05696
1753.14580	0.06807
1751.21714	0.07954
1749.28849	0.09015
1747.35984	0.09878
1745.43118	0.10430
1743.50253	0.10579
1741.57388	0.10290
1739.64522	0.09593
1737.71657	0.08603
1735.78792	0.07519
1733.85926	0.06485
1731.93061	0.05595
1730.00196	0.04920
1728.07330	0.04407
1726.14465	0.03981
1724.21600	0.03623
1722.28734	0.03337
1720.35869	0.03143
1718.43004	0.03046
1716.50138	0.03006
1714.57273	0.03003
1712.64408	0.03033
1710.71542	0.03091
1708.78677	0.03197
1706.85812	0.03355
1704.92946	0.03531
1703.00081	0.03715
1701.07216	0.03936
1699.14350	0.04145
1697.21485	0.04366
1695.28620	0.04603
1693.35754	0.04812
1691.42889	0.05040
1689.50024	0.05273
1687.57159	0.05493
1685.64293	0.05735
1683.71428	0.05970
1681.78563	0.06189
1679.85697	0.06429
1677.92832	0.06671
1675.99967	0.06916
1674.07101	0.07160
1672.14236	0.07412
1670.21371	0.07678
1668.28505	0.07927
1666.35640	0.08166
1664.42775	0.08422
1662.49909	0.08678
1660.57044	0.08907
1658.64179	0.09117
1656.71313	0.09307
1654.78448	0.09503
1652.85583	0.09688
1650.92717	0.09816
1648.99852	0.09948
1647.06987	0.10083
1645.14121	0.10182
1643.21256	0.10265
1641.28391	0.10349
1639.35525	0.10415
1637.42660	0.10464
1635.49795	0.10485
1633.56929	0.10453
1631.64064	0.10395
1629.71199	0.10323
1627.78333	0.10216
1625.85468	0.10067
1623.92603	0.09882
1621.99738	0.09659
1620.06872	0.09418
1618.14007	0.09184
1616.21142	0.08928
1614.28276	0.08632
1612.35411	0.08342
1610.42546	0.08064
1608.49680	0.07796
1606.56815	0.07539
1604.63950	0.07291
1602.71084	0.07060
1600.78219	0.06850
1598.85354	0.06663
1596.92488	0.06499
1594.99623	0.06360
1593.06758	0.06248
1591.13892	0.06168
1589.21027	0.06112
1587.28162	0.06072
1585.35296	0.06051
1583.42431	0.06052
1581.49566	0.06072
1579.56700	0.06101
1577.63835	0.06162
1575.70970	0.06248
1573.78104	0.06332
1571.85239	0.06444
1569.92374	0.06577
1567.99508	0.06703
1566.06643	0.06836
1564.13778	0.06977
1562.20912	0.07121
1560.28047	0.07291
1558.35182	0.07445
1556.42316	0.07572
1554.49451	0.07708
1552.56586	0.07831
1550.63721	0.07942
1548.70855	0.08045
1546.77990	0.08140
1544.85125	0.08229
1542.92259	0.08308
1540.99394	0.08385
1539.06529	0.08438
1537.13663	0.08459
1535.20798	0.08496
1533.27933	0.08536
1531.35067	0.08548
1529.42202	0.08542
1527.49337	0.08521
1525.56471	0.08485
1523.63606	0.08448
1521.70741	0.08419
1519.77875	0.08367
1517.85010	0.08307
1515.92145	0.08235
1513.99279	0.08134
1512.06414	0.08004
1510.13549	0.07846
1508.20683	0.07689
1506.27818	0.07527
1504.34953	0.07331
1502.42087	0.07134
1500.49222	0.06937
1498.56357	0.06729
1496.63491	0.06520
1494.70626	0.06300
1492.77761	0.06081
1490.84895	0.05883
1488.92030	0.05707
1486.99165	0.05559
1485.06299	0.05440
1483.13434	0.05358
1481.20569	0.05317
1479.27704	0.05323
1477.34838	0.05394
1475.41973	0.05560
1473.49108	0.05872
1471.56242	0.06353
1469.63377	0.06954
1467.70512	0.07526
1465.77646	0.07913
1463.84781	0.08092
1461.91916	0.08167
1459.99050	0.08245
1458.06185	0.08357
1456.13320	0.08437
1454.20454	0.08425
1452.27589	0.08342
1450.34724	0.08227
1448.41858	0.08138
1446.48993	0.08078
1444.56128	0.08023
1442.63262	0.07963
1440.70397	0.07888
1438.77532	0.07793
1436.84666	0.07675
1434.91801	0.07517
1432.98936	0.07337
1431.06070	0.07147
1429.13205	0.06947
1427.20340	0.06765
1425.27474	0.06634
1423.34609	0.06559
1421.41744	0.06537
1419.48878	0.06560
1417.56013	0.06576
1415.63148	0.06561
1413.70283	0.06508
1411.77417	0.06432
1409.84552	0.06372
1407.91687	0.06344
1405.98821	0.06347
1404.05956	0.06362
1402.13091	0.06369
1400.20225	0.06357
1398.27360	0.06331
1396.34495	0.06313
1394.41629	0.06315
1392.48764	0.06317
1390.55899	0.06316
1388.63033	0.06323
1386.70168	0.06344
1384.77303	0.06386
1382.84437	0.06462
1380.91572	0.06562
1378.98707	0.06639
1377.05841	0.06632
1375.12976	0.06536
1373.20111	0.06408
1371.27245	0.06296
1369.34380	0.06202
1367.41515	0.06109
1365.48649	0.06026
1363.55784	0.05955
1361.62919	0.05887
1359.70053	0.05825
1357.77188	0.05783
1355.84323	0.05763
1353.91457	0.05768
1351.98592	0.05790
1350.05727	0.05816
1348.12861	0.05844
1346.19996	0.05878
1344.27131	0.05915
1342.34266	0.05952
1340.41400	0.05983
1338.48535	0.05995
1336.55670	0.05988
1334.62804	0.05970
1332.69939	0.05945
1330.77074	0.05915
1328.84208	0.05881
1326.91343	0.05847
1324.98478	0.05826
1323.05612	0.05821
1321.12747	0.05820
1319.19882	0.05815
1317.27016	0.05813
1315.34151	0.05815
1313.41286	0.05806
1311.48420	0.05781
1309.55555	0.05750
1307.62690	0.05722
1305.69824	0.05704
1303.76959	0.05687
1301.84094	0.05662
1299.91228	0.05631
1297.98363	0.05599
1296.05498	0.05572
1294.12632	0.05557
1292.19767	0.05555
1290.26902	0.05575
1288.34036	0.05625
1286.41171	0.05694
1284.48306	0.05764
1282.55440	0.05828
1280.62575	0.05879
1278.69710	0.05915
1276.76845	0.05935
1274.83979	0.05945
1272.91114	0.05955
1270.98249	0.05974
1269.05383	0.06008
1267.12518	0.06056
1265.19653	0.06105
1263.26787	0.06145
1261.33922	0.06186
1259.41057	0.06241
1257.48191	0.06312
1255.55326	0.06383
1253.62461	0.06448
1251.69595	0.06523
1249.76730	0.06626
1247.83865	0.06758
1245.90999	0.06893
1243.98134	0.07015
1242.05269	0.07125
1240.12403	0.07215
1238.19538	0.07271
1236.26673	0.07297
1234.33807	0.07303
1232.40942	0.07290
1230.48077	0.07255
1228.55211	0.07199
1226.62346	0.07125
1224.69481	0.07042
1222.76615	0.06960
1220.83750	0.06875
1218.90885	0.06782
1216.98019	0.06680
1215.05154	0.06583
1213.12289	0.06514
1211.19423	0.06478
1209.26558	0.06470
1207.33693	0.06480
1205.40828	0.06504
1203.47962	0.06540
1201.55097	0.06591
1199.62232	0.06657
1197.69366	0.06699
1195.76501	0.06715
1193.83636	0.06717
1191.90770	0.06718
1189.97905	0.06733
1188.05040	0.06772
1186.12174	0.06838
1184.19309	0.06932
1182.26444	0.07056
1180.33578	0.07206
1178.40713	0.07367
1176.47848	0.07524
1174.54982	0.07670
1172.62117	0.07800
1170.69252	0.07920
1168.76386	0.08033
1166.83521	0.08137
1164.90656	0.08225
1162.97790	0.08289
1161.04925	0.08324
1159.12060	0.08318
1157.19194	0.08266
1155.26329	0.08192
1153.33464	0.08110
1151.40598	0.08013
1149.47733	0.07907
1147.54868	0.07812
1145.62002	0.07717
1143.69137	0.07597
1141.76272	0.07432
1139.83406	0.07215
1137.90541	0.06953
1135.97676	0.06664
1134.04811	0.06381
1132.11945	0.06144
1130.19080	0.05986
1128.26215	0.05917
1126.33349	0.05932
1124.40484	0.06002
1122.47619	0.06097
1120.54753	0.06191
1118.61888	0.06267
1116.69023	0.06311
1114.76157	0.06310
1112.83292	0.06271
1110.90427	0.06223
1108.97561	0.06194
1107.04696	0.06187
1105.11831	0.06202
1103.18965	0.06247
1101.26100	0.06314
1099.33235	0.06379
1097.40369	0.06428
1095.47504	0.06462
1093.54639	0.06468
1091.61773	0.06442
1089.68908	0.06409
1087.76043	0.06383
1085.83177	0.06359
1083.90312	0.06328
1081.97447	0.06282
1080.04581	0.06213
1078.11716	0.06131
1076.18851	0.06038
1074.25985	0.05935
1072.33120	0.05836
1070.40255	0.05756
1068.47390	0.05694
1066.54524	0.05643
1064.61659	0.05597
1062.68794	0.05556
1060.75928	0.05517
1058.83063	0.05474
1056.90198	0.05422
1054.97332	0.05363
1053.04467	0.05293
1051.11602	0.05222
1049.18736	0.05165
1047.25871	0.05123
1045.33006	0.05081
1043.40140	0.05037
1041.47275	0.05009
1039.54410	0.05005
1037.61544	0.05019
1035.68679	0.05047
1033.75814	0.05072
1031.82948	0.05086
1029.90083	0.05088
1027.97218	0.05071
1026.04352	0.05034
1024.11487	0.04989
1022.18622	0.04935
1020.25756	0.04874
1018.32891	0.04819
1016.40026	0.04764
1014.47160	0.04704
1012.54295	0.04653
1010.61430	0.04610
1008.68564	0.04555
1006.75699	0.04486
1004.82834	0.04415
1002.89968	0.04357
1000.97103	0.04308
999.04238	0.04268
997.11373	0.04232
995.18507	0.04194
993.25642	0.04159
991.32777	0.04124
989.39911	0.04083
987.47046	0.04041
985.54181	0.04009
983.61315	0.03994
981.68450	0.03986
979.75585	0.03981
977.82719	0.03978
975.89854	0.03976
973.96989	0.03986
972.04123	0.04005
970.11258	0.04009
968.18393	0.03993
966.25527	0.03970
964.32662	0.03948
962.39797	0.03917
960.46931	0.03871
958.54066	0.03816
956.61201	0.03755
954.68335	0.03694
952.75470	0.03654
950.82605	0.03632
948.89739	0.03608
946.96874	0.03573
945.04009	0.03540
943.11143	0.03523
941.18278	0.03516
939.25413	0.03496
937.32547	0.03466
935.39682	0.03445
933.46817	0.03430
931.53952	0.03406
929.61086	0.03378
927.68221	0.03360
925.75356	0.03359
923.82490	0.03363
921.89625	0.03354
919.96760	0.03329
918.03894	0.03295
916.11029	0.03274
914.18164	0.03270
912.25298	0.03258
910.32433	0.03234
908.39568	0.03219
906.46702	0.03215
904.53837	0.03202
902.60972	0.03184
900.68106	0.03173
898.75241	0.03158
896.82376	0.03133
894.89510	0.03118
892.96645	0.03107
891.03780	0.03091
889.10914	0.03082
887.18049	0.03102
885.25184	0.03140
883.32318	0.03159
881.39453	0.03152
879.46588	0.03148
877.53722	0.03165
875.60857	0.03186
873.67992	0.03191
871.75126	0.03184
869.82261	0.03169
867.89396	0.03153
865.96530	0.03144
864.03665	0.03136
862.10800	0.03128
860.17935	0.03126
858.25069	0.03131
856.32204	0.03131
854.39339	0.03127
852.46473	0.03123
850.53608	0.03115
848.60743	0.03106
846.67877	0.03094
844.75012	0.03074
842.82147	0.03053
840.89281	0.03042
838.96416	0.03040
837.03551	0.03042
835.10685	0.03040
833.17820	0.03026
831.24955	0.03012
829.32089	0.03007
827.39224	0.03003
825.46359	0.02997
823.53493	0.03003
821.60628	0.03014
819.67763	0.03014
817.74897	0.03013
815.82032	0.03024
813.89167	0.03036
811.96301	0.03039
810.03436	0.03044
808.10571	0.03069
806.17705	0.03107
804.24840	0.03130
802.31975	0.03133
800.39109	0.03136
798.46244	0.03151
796.53379	0.03174
794.60513	0.03187
792.67648	0.03181
790.74783	0.03184
788.81918	0.03202
786.89052	0.03214
784.96187	0.03228
783.03322	0.03259
781.10456	0.03286
779.17591	0.03289
777.24726	0.03281
775.31860	0.03288
773.38995	0.03316
771.46130	0.03342
769.53264	0.03357
767.60399	0.03370
765.67534	0.03386
763.74668	0.03399
761.81803	0.03411
759.88938	0.03433
757.96072	0.03462
756.03207	0.03480
754.10342	0.03491
752.17476	0.03500
750.24611	0.03509
748.31746	0.03530
746.38880	0.03571
744.46015	0.03616
742.53150	0.03653
740.60284	0.03679
738.67419	0.03713
736.74554	0.03777
734.81688	0.03848
732.88823	0.03900
730.95958	0.03951
729.03092	0.04025
727.10227	0.04123
725.17362	0.04219
723.24497	0.04286
721.31631	0.04341
719.38766	0.04359
717.45901	0.04328
715.53035	0.04268
713.60170	0.04218
711.67305	0.04189
709.74439	0.04174
707.81574	0.04169
705.88709	0.04169
703.95843	0.04170
702.02978	0.04168
700.10113	0.04165
698.17247	0.04167
696.24382	0.04168
694.31517	0.04163
692.38651	0.04157
690.45786	0.04152
688.52921	0.04145
686.60055	0.04127
684.67190	0.04108
682.74325	0.04101
680.81459	0.04104
678.88594	0.04111
676.95729	0.04109
675.02863	0.04106
673.09998	0.04110
671.17133	0.04121
669.24267	0.04126
667.31402	0.04120
665.38537	0.04113
663.45671	0.04117
661.52806	0.04122
659.59941	0.04113
657.67075	0.04096
655.74210	0.04086
653.81345	0.04090
651.88480	0.04098
649.95614	0.04110
648.02749	0.04111
646.09884	0.04106
644.17018	0.04110
642.24153	0.04116
640.31288	0.04114
638.38422	0.04110
636.45557	0.04109
634.52692	0.04100
632.59826	0.04076
630.66961	0.04090
628.74096	0.04221
626.81230	0.04071
624.88365	0.03857
622.95500	0.03759
621.02634	0.03796
619.09769	0.03910
617.16904	0.04146
615.24038	0.04351
613.31173	0.04225
611.38308	0.03803
609.45442	0.03540
607.52577	0.03676
605.59712	0.03917
603.66846	0.04007
601.73981	0.03998
599.81116	0.04023
597.88250	0.04079
595.95385	0.04114
594.02520	0.04108
592.09654	0.04075
590.16789	0.04068
588.23924	0.04110
586.31059	0.04156
584.38193	0.04154
582.45328	0.04117
580.52463	0.04096
578.59597	0.04095
576.66732	0.04093
574.73867	0.04091
572.81001	0.04081
570.88136	0.04052
568.95271	0.04029
567.02405	0.04050
565.09540	0.04100
563.16675	0.04138
561.23809	0.04149
559.30944	0.04133
557.38079	0.04108
555.45213	0.04096
553.52348	0.04092
551.59483	0.04074
549.66617	0.04052
547.73752	0.04044
545.80887	0.04036
543.88021	0.04011
541.95156	0.03992
540.02291	0.03989
538.09425	0.03970
536.16560	0.03935
534.23695	0.03917
532.30829	0.03921
530.37964	0.03933
528.45099	0.03946
526.52233	0.03940
524.59368	0.03903
522.66503	0.03862
520.73637	0.03843
518.80772	0.03840
516.87907	0.03834
514.95042	0.03818
513.02176	0.03802
511.09311	0.03785
509.16446	0.03755
507.23580	0.03716
505.30715	0.03696
503.37850	0.03700
501.44984	0.03692
499.52119	0.03674
497.59254	0.03666
495.66388	0.03664
493.73523	0.03657
491.80658	0.03649
489.87792	0.03634
487.94927	0.03608
486.02062	0.03594
484.09196	0.03602
482.16331	0.03603
480.23466	0.03591
478.30600	0.03581
476.37735	0.03571
474.44870	0.03570
472.52004	0.03583
470.59139	0.03590
468.66274	0.03582
466.73408	0.03575
464.80543	0.03580
462.87678	0.03590
460.94812	0.03595
459.01947	0.03600
457.09082	0.03602
455.16216	0.03587
453.23351	0.03561
451.30486	0.03529
449.37620	0.03492
447.44755	0.03455
445.51890	0.03428
443.59025	0.03409
441.66159	0.03383
439.73294	0.03351
437.80429	0.03331
435.87563	0.03317
433.94698	0.03297
432.01833	0.03276
430.08967	0.03260
428.16102	0.03239
426.23237	0.03211
424.30371	0.03177
422.37506	0.03152
420.44641	0.03138
418.51775	0.03116
416.58910	0.03086
414.66045	0.03072
412.73179	0.03063
410.80314	0.03036
408.87449	0.03001
406.94583	0.02984
405.01718	0.02977
403.08853	0.02961
401.15987	0.02934
399.23122	0.02909
